LocalTimestamp,PG
1659513872.336862,10235
1659513872.378896,10325
1659513872.42093,10414
1659513872.459889,10488
1659513872.498847,10568
1659513872.537806,10657
1659513872.576081,10751
1659513872.614356,10871
1659513872.652631,11005
1659513872.694152,11120
1659513872.735673,11216
1659513872.774632,11277
1659513872.81359,11366
1659513872.852549,11380
1659513872.895096,11315
1659513872.937642,11218
1659513872.976259,11101
1659513873.014876,11021
1659513873.053493,10935
1659513873.095014,10894
1659513873.136535,10823
1659513873.175494,10750
1659513873.214452,10697
1659513873.253411,10645
1659513873.294932,10616
1659513873.336454,10585
1659513873.374729,10573
1659513873.413004,10550
1659513873.451279,10559
1659513873.495363,10543
1659513873.539448,10540
1659513873.583533,10535
1659513873.624541,10539
1659513873.66555,10543
1659513873.704509,10563
1659513873.743467,10586
1659513873.782426,10593
1659513873.822067,10540
1659513873.86171,10422
1659513873.901351,10307
1659513873.942873,10234
1659513873.984395,10164
1659513874.023353,10127
1659513874.062311,10097
1659513874.10127,10093
1659513874.143816,10071
1659513874.186363,10044
1659513874.225322,10015
1659513874.26428,10012
1659513874.303239,10017
1659513874.342197,10019
1659513874.381155,10040
1659513874.420114,10059
1659513874.462148,10077
1659513874.504182,10109
1659513874.542115,10132
1659513874.580049,10173
1659513874.617982,10213
1659513874.659503,10238
1659513874.701025,10280
1659513874.740325,10235
1659513874.779625,10135
1659513874.818926,10056
1659513874.859422,10005
1659513874.899918,9952
1659513874.938877,9915
1659513874.977835,9920
1659513875.016793,9924
1659513875.060058,9919
1659513875.103322,9914
1659513875.146587,9925
1659513875.189851,9946
1659513875.233115,9977
1659513875.27028,9975
1659513875.307444,9987
1659513875.344608,10001
1659513875.381773,10006
1659513875.42432,10036
1659513875.466866,10042
1659513875.504799,10066
1659513875.542733,10092
1659513875.580666,10126
1659513875.621675,10165
1659513875.662684,10184
1659513875.7013,10146
1659513875.739917,10052
1659513875.778534,9984
1659513875.820568,9939
1659513875.862602,9928
1659513875.900877,9921
1659513875.939152,9931
1659513875.977427,9954
1659513876.019461,9974
1659513876.061495,9998
1659513876.100112,10014
1659513876.138729,10051
1659513876.177345,10083
1659513876.22143,10132
1659513876.265515,10173
1659513876.309599,10211
1659513876.343944,10257
1659513876.378289,10281
1659513876.423057,10315
1659513876.467825,10345
1659513876.512593,10382
1659513876.553089,10424
1659513876.593586,10429
1659513876.632886,10350
1659513876.672186,10245
1659513876.711486,10184
1659513876.750445,10135
1659513876.789403,10111
1659513876.828362,10113
1659513876.86937,10118
1659513876.910379,10131
1659513876.949338,10137
1659513876.988296,10147
1659513877.027255,10183
1659513877.065871,10203
1659513877.104488,10239
1659513877.143105,10286
1659513877.185139,10346
1659513877.227173,10398
1659513877.266473,10453
1659513877.305773,10520
1659513877.345074,10568
1659513877.386595,10634
1659513877.428117,10666
1659513877.466733,10710
1659513877.50535,10684
1659513877.543967,10566
1659513877.586001,10443
1659513877.628035,10382
1659513877.666994,10330
1659513877.705952,10279
1659513877.74491,10261
1659513877.785919,10240
1659513877.826928,10223
1659513877.871013,10216
1659513877.915097,10201
1659513877.959182,10209
1659513877.997799,10228
1659513878.036416,10259
1659513878.075032,10286
1659513878.116554,10311
1659513878.158075,10336
1659513878.196692,10347
1659513878.235309,10362
1659513878.273925,10371
1659513878.315959,10388
1659513878.357994,10397
1659513878.39661,10408
1659513878.435227,10370
1659513878.473844,10236
1659513878.512802,10095
1659513878.551761,10007
1659513878.590719,9955
1659513878.632241,9925
1659513878.673762,9915
1659513878.713062,9921
1659513878.752362,9935
1659513878.791663,9960
1659513878.832159,9996
1659513878.872655,10021
1659513878.911272,10075
1659513878.949889,10118
1659513878.988505,10150
1659513879.027122,10199
1659513879.065739,10250
1659513879.104356,10306
1659513879.145877,10391
1659513879.187399,10454
1659513879.226357,10526
1659513879.265316,10591
1659513879.304274,10566
1659513879.345795,10490
1659513879.387317,10404
1659513879.431401,10376
1659513879.475486,10381
1659513879.519571,10386
1659513879.553916,10408
1659513879.588261,10420
1659513879.633029,10434
1659513879.677797,10439
1659513879.722565,10467
1659513879.761523,10490
1659513879.800482,10514
1659513879.83944,10553
1659513879.880449,10577
1659513879.921458,10610
1659513879.960758,10639
1659513880.000058,10667
1659513880.039359,10698
1659513880.077975,10727
1659513880.116592,10732
1659513880.155209,10630
1659513880.19673,10500
1659513880.238252,10405
1659513880.276697,10363
1659513880.315143,10339
1659513880.353589,10326
1659513880.392035,10338
1659513880.430481,10339
1659513880.468927,10353
1659513880.511473,10349
1659513880.55402,10372
1659513880.592979,10386
1659513880.631937,10413
1659513880.670896,10426
1659513880.711905,10442
1659513880.752913,10469
1659513880.79734,10466
1659513880.841766,10487
1659513880.886192,10503
1659513880.920537,10521
1659513880.954882,10478
1659513880.998967,10380
1659513881.043051,10247
1659513881.087136,10185
1659513881.125753,10156
1659513881.164369,10126
1659513881.202986,10121
1659513881.244508,10120
1659513881.286029,10128
1659513881.323962,10105
1659513881.361896,10083
1659513881.399829,10044
1659513881.438446,10021
1659513881.477062,10017
1659513881.515679,10021
1659513881.557713,10038
1659513881.599747,10060
1659513881.638364,10083
1659513881.67698,10115
1659513881.715597,10145
1659513881.757119,10114
1659513881.79864,9988
1659513881.83794,9866
1659513881.877241,9812
1659513881.916541,9798
1659513881.955158,9781
1659513881.993774,9807
1659513882.032391,9831
1659513882.073913,9868
1659513882.115434,9895
1659513882.154392,9925
1659513882.193351,9975
1659513882.232309,10024
1659513882.273318,10074
1659513882.314327,10110
1659513882.358753,10156
1659513882.40318,10211
1659513882.447606,10263
1659513882.481438,10315
1659513882.515271,10319
1659513882.559355,10205
1659513882.60344,10017
1659513882.647525,9923
1659513882.680844,9858
1659513882.714164,9830
1659513882.758932,9829
1659513882.8037,9821
1659513882.848468,9826
1659513882.887427,9823
1659513882.926385,9850
1659513882.965343,9879
1659513883.007378,9929
1659513883.049412,9966
1659513883.088712,10001
1659513883.128012,10039
1659513883.167312,10080
1659513883.208321,10122
1659513883.24933,10165
1659513883.287947,10205
1659513883.326564,10234
1659513883.36518,10222
1659513883.40448,10096
1659513883.443781,9921
1659513883.483081,9802
1659513883.524602,9752
1659513883.566124,9729
1659513883.604741,9734
1659513883.643357,9734
1659513883.681974,9739
1659513883.722983,9724
1659513883.763992,9729
1659513883.803634,9758
1659513883.843276,9797
1659513883.882918,9857
1659513883.924439,9914
1659513883.965961,9985
1659513884.004236,10054
1659513884.042511,10128
1659513884.080786,10197
1659513884.123332,10251
1659513884.165879,10277
1659513884.204838,10185
1659513884.243796,10081
1659513884.282754,10034
1659513884.323763,10046
1659513884.364772,10064
1659513884.408857,10073
1659513884.452941,10075
1659513884.497026,10048
1659513884.535984,10021
1659513884.574943,9997
1659513884.613901,9986
1659513884.654397,9985
1659513884.694894,10000
1659513884.734194,10034
1659513884.773494,10063
1659513884.812794,10090
1659513884.851411,10145
1659513884.890028,10204
1659513884.928645,10269
1659513884.969653,10306
1659513885.010662,10198
1659513885.049963,10047
1659513885.089263,9958
1659513885.128563,9915
1659513885.170597,9871
1659513885.212631,9853
1659513885.250906,9857
1659513885.289181,9862
1659513885.327456,9848
1659513885.367098,9826
1659513885.40674,9828
1659513885.446382,9837
1659513885.487391,9862
1659513885.5284,9896
1659513885.568383,9914
1659513885.608367,9947
1659513885.648351,9976
1659513885.688334,10020
1659513885.728318,10075
1659513885.767277,10123
1659513885.806235,10082
1659513885.845193,9931
1659513885.88569,9797
1659513885.926186,9730
1659513885.968733,9698
1659513886.01128,9690
1659513886.05058,9696
1659513886.08988,9725
1659513886.12918,9762
1659513886.173606,9788
1659513886.218033,9820
1659513886.262459,9858
1659513886.295266,9905
1659513886.328073,9956
1659513886.373183,10008
1659513886.418293,10056
1659513886.463403,10110
1659513886.496722,10166
1659513886.530042,10234
1659513886.574468,10305
1659513886.618895,10357
1659513886.663321,10334
1659513886.701938,10197
1659513886.740554,10046
1659513886.779171,9971
1659513886.819667,9939
1659513886.860164,9943
1659513886.898439,9952
1659513886.936714,9979
1659513886.974989,9960
1659513887.017535,9956
1659513887.060082,9967
1659513887.098357,10001
1659513887.136632,10050
1659513887.174907,10104
1659513887.213866,10167
1659513887.252824,10221
1659513887.291782,10280
1659513887.333304,10327
1659513887.374825,10375
1659513887.413784,10436
1659513887.452742,10488
1659513887.491701,10511
1659513887.533222,10414
1659513887.574744,10213
1659513887.613702,10069
1659513887.652661,10013
1659513887.691619,9985
1659513887.732628,9983
1659513887.773637,10005
1659513887.812254,10017
1659513887.85087,10033
1659513887.889487,10031
1659513887.931009,10054
1659513887.97253,10093
1659513888.014052,10126
1659513888.055573,10167
1659513888.094532,10201
1659513888.13349,10228
1659513888.172449,10268
1659513888.21397,10315
1659513888.255491,10354
1659513888.29445,10404
1659513888.333408,10460
1659513888.372367,10502
1659513888.414401,10458
1659513888.456435,10289
1659513888.49471,10110
1659513888.532985,10025
1659513888.57126,9984
1659513888.613294,9967
1659513888.655328,9986
1659513888.700096,9978
1659513888.744864,9984
1659513888.789633,9982
1659513888.82244,10008
1659513888.855247,10051
1659513888.899673,10098
1659513888.944099,10145
1659513888.988526,10192
1659513889.027484,10241
1659513889.066442,10292
1659513889.105401,10341
1659513889.146923,10397
1659513889.188444,10450
1659513889.227061,10508
1659513889.265677,10580
1659513889.304294,10633
1659513889.346328,10655
1659513889.388362,10544
1659513889.427321,10347
1659513889.466279,10224
1659513889.505238,10168
1659513889.543854,10137
1659513889.582471,10119
1659513889.621088,10136
1659513889.664147,10156
1659513889.707206,10173
1659513889.745823,10173
1659513889.78444,10202
1659513889.823057,10241
1659513889.863553,10288
1659513889.904049,10333
1659513889.94335,10396
1659513889.98265,10438
1659513890.02195,10497
1659513890.063471,10549
1659513890.104993,10602
1659513890.143268,10652
1659513890.181543,10704
1659513890.219818,10747
1659513890.261339,10705
1659513890.302861,10533
1659513890.341136,10310
1659513890.379411,10181
1659513890.417686,10138
1659513890.46177,10094
1659513890.505855,10104
1659513890.549939,10109
1659513890.584285,10102
1659513890.618629,10077
1659513890.663056,10057
1659513890.707482,10040
1659513890.751908,10045
1659513890.791687,10059
1659513890.831465,10062
1659513890.871244,10094
1659513890.911023,10095
1659513890.950801,10108
1659513890.98976,10134
1659513891.028718,10152
1659513891.067677,10183
1659513891.108173,10215
1659513891.148669,10177
1659513891.187628,9997
1659513891.226586,9796
1659513891.265545,9655
1659513891.304162,9590
1659513891.342778,9538
1659513891.381395,9514
1659513891.422916,9502
1659513891.464438,9511
1659513891.503397,9503
1659513891.542355,9497
1659513891.581313,9508
1659513891.623348,9533
1659513891.665381,9582
1659513891.703998,9619
1659513891.742615,9664
1659513891.781232,9711
1659513891.823778,9757
1659513891.866325,9794
1659513891.905284,9835
1659513891.944242,9886
1659513891.983201,9919
1659513892.025235,9918
1659513892.067269,9752
1659513892.105544,9499
1659513892.143819,9333
1659513892.182094,9250
1659513892.22464,9202
1659513892.267187,9203
1659513892.311272,9218
1659513892.355356,9254
1659513892.399441,9297
1659513892.438058,9354
1659513892.476674,9437
1659513892.515291,9555
1659513892.556813,9678
1659513892.598334,9793
1659513892.636609,9902
1659513892.674884,9983
1659513892.713159,10040
1659513892.752117,10097
1659513892.791076,10147
1659513892.830034,10192
1659513892.872581,10237
1659513892.915128,10294
1659513892.953744,10354
1659513892.992361,10367
1659513893.030978,10254
1659513893.0725,10054
1659513893.114021,9932
1659513893.152638,9880
1659513893.191254,9890
1659513893.229871,9902
1659513893.26883,9949
1659513893.307788,9990
1659513893.346746,10017
1659513893.388268,10060
1659513893.42979,10116
1659513893.468406,10174
1659513893.507023,10234
1659513893.54564,10277
1659513893.587161,10334
1659513893.628683,10395
1659513893.672084,10430
1659513893.715485,10475
1659513893.758886,10521
1659513893.792206,10572
1659513893.825525,10613
1659513893.870293,10656
1659513893.915061,10619
1659513893.95983,10465
1659513893.998788,10296
1659513894.037746,10214
1659513894.076705,10193
1659513894.118226,10193
1659513894.159748,10174
1659513894.199048,10115
1659513894.238348,10040
1659513894.277648,9966
1659513894.316265,9954
1659513894.354882,9949
1659513894.393499,9956
1659513894.434508,9979
1659513894.475516,10003
1659513894.514817,10026
1659513894.554117,10034
1659513894.593417,10063
1659513894.633913,10102
1659513894.67441,10169
1659513894.71371,10239
1659513894.75301,10311
1659513894.79231,10351
1659513894.831269,10249
1659513894.870227,10057
1659513894.909185,9931
1659513894.950707,9890
1659513894.992229,9859
1659513895.033237,9854
1659513895.074246,9857
1659513895.11423,9853
1659513895.154214,9841
1659513895.194197,9835
1659513895.238624,9829
1659513895.28305,9844
1659513895.327476,9863
1659513895.360796,9880
1659513895.394116,9918
1659513895.438542,9952
1659513895.482968,10009
1659513895.527395,10046
1659513895.561227,10095
1659513895.595059,10148
1659513895.638802,10199
1659513895.682545,10190
1659513895.726288,10029
1659513895.765588,9860
1659513895.804888,9763
1659513895.844188,9731
1659513895.885197,9720
1659513895.926206,9716
1659513895.964823,9733
1659513896.00344,9727
1659513896.042056,9727
1659513896.084347,9723
1659513896.126637,9761
1659513896.168928,9797
1659513896.211218,9841
1659513896.249493,9883
1659513896.287768,9925
1659513896.326043,9977
1659513896.365343,10025
1659513896.404643,10073
1659513896.443944,10123
1659513896.485978,10172
1659513896.528012,10142
1659513896.566628,9978
1659513896.605245,9798
1659513896.643862,9717
1659513896.682137,9683
1659513896.720412,9671
1659513896.758687,9685
1659513896.799696,9687
1659513896.840705,9674
1659513896.87898,9650
1659513896.917255,9669
1659513896.95553,9710
1659513896.997564,9766
1659513897.039598,9843
1659513897.078215,9898
1659513897.116831,9973
1659513897.155448,10020
1659513897.197482,10088
1659513897.239516,10160
1659513897.283942,10222
1659513897.328369,10295
1659513897.372795,10351
1659513897.406627,10326
1659513897.44046,10124
1659513897.484886,9896
1659513897.529312,9731
1659513897.573739,9634
1659513897.613039,9570
1659513897.652339,9516
1659513897.691639,9490
1659513897.730256,9466
1659513897.768873,9436
1659513897.807489,9449
1659513897.849011,9488
1659513897.890532,9521
1659513897.928807,9563
1659513897.967083,9580
1659513898.005358,9608
1659513898.047904,9630
1659513898.090451,9663
1659513898.129409,9679
1659513898.168368,9695
1659513898.207326,9707
1659513898.245943,9708
1659513898.28456,9613
1659513898.323176,9406
1659513898.364698,9272
1659513898.406219,9229
1659513898.445861,9227
1659513898.485503,9240
1659513898.525145,9276
1659513898.566154,9287
1659513898.607163,9294
1659513898.648685,9307
1659513898.690206,9326
1659513898.729506,9348
1659513898.768806,9378
1659513898.808107,9417
1659513898.85185,9464
1659513898.895592,9495
1659513898.939335,9527
1659513898.972655,9574
1659513899.005975,9633
1659513899.050743,9672
1659513899.095511,9723
1659513899.140279,9658
1659513899.178554,9484
1659513899.216829,9335
1659513899.255104,9275
1659513899.296625,9238
1659513899.338147,9221
1659513899.377789,9245
1659513899.417431,9247
1659513899.457072,9263
1659513899.498081,9261
1659513899.53909,9276
1659513899.577365,9318
1659513899.61564,9352
1659513899.653915,9393
1659513899.693557,9439
1659513899.733199,9489
1659513899.772841,9531
1659513899.814363,9583
1659513899.855884,9628
1659513899.894501,9670
1659513899.933117,9731
1659513899.971734,9787
1659513900.013256,9758
1659513900.054777,9597
1659513900.09271,9413
1659513900.130644,9327
1659513900.168577,9288
1659513900.210099,9267
1659513900.25162,9270
1659513900.29092,9289
1659513900.33022,9328
1659513900.36952,9341
1659513900.410529,9373
1659513900.451538,9412
1659513900.490497,9447
1659513900.529455,9471
1659513900.568414,9488
1659513900.613523,9498
1659513900.658633,9505
1659513900.703743,9510
1659513900.737063,9522
1659513900.770382,9546
1659513900.814467,9568
1659513900.858552,9608
1659513900.902636,9649
1659513900.945183,9687
1659513900.98773,9637
1659513901.026346,9456
1659513901.064963,9311
1659513901.10358,9233
1659513901.142196,9182
1659513901.180813,9158
1659513901.21943,9173
1659513901.261464,9207
1659513901.303498,9239
1659513901.343072,9283
1659513901.382645,9338
1659513901.422219,9429
1659513901.461792,9516
1659513901.501366,9582
1659513901.543913,9632
1659513901.58646,9650
1659513901.62576,9650
1659513901.66506,9662
1659513901.70436,9665
1659513901.745369,9669
1659513901.786378,9664
1659513901.825336,9653
1659513901.864295,9665
1659513901.903253,9625
1659513901.942554,9466
1659513901.981854,9212
1659513902.021154,9057
1659513902.062675,8985
1659513902.104197,8945
1659513902.142814,8951
1659513902.18143,8992
1659513902.220047,9047
1659513902.261569,9076
1659513902.30309,9132
1659513902.341365,9190
1659513902.37964,9295
1659513902.417915,9374
1659513902.459437,9455
1659513902.500958,9512
1659513902.539233,9569
1659513902.577508,9623
1659513902.615783,9663
1659513902.657305,9702
1659513902.698826,9723
1659513902.737784,9757
1659513902.776743,9783
1659513902.815701,9835
1659513902.860469,9842
1659513902.905237,9740
1659513902.950006,9589
1659513902.99204,9481
1659513903.034074,9426
1659513903.07269,9373
1659513903.111307,9328
1659513903.149924,9317
1659513903.190933,9300
1659513903.231942,9272
1659513903.270558,9218
1659513903.309175,9160
1659513903.347792,9123
1659513903.386409,9131
1659513903.425025,9148
1659513903.463642,9184
1659513903.505676,9222
1659513903.54771,9276
1659513903.586669,9326
1659513903.625627,9403
1659513903.664586,9484
1659513903.702861,9572
1659513903.741136,9676
1659513903.779411,9757
1659513903.820932,9756
1659513903.862453,9605
1659513903.902437,9437
1659513903.942421,9346
1659513903.982404,9301
1659513904.023413,9265
1659513904.064422,9278
1659513904.103039,9281
1659513904.141656,9273
1659513904.180273,9261
1659513904.222819,9271
1659513904.265366,9305
1659513904.304324,9324
1659513904.343283,9369
1659513904.382241,9415
1659513904.422738,9483
1659513904.463234,9554
1659513904.508002,9644
1659513904.55277,9729
1659513904.597538,9793
1659513904.636155,9866
1659513904.674772,9928
1659513904.713388,9935
1659513904.754397,9781
1659513904.795406,9575
1659513904.835048,9449
1659513904.87469,9413
1659513904.914332,9418
1659513904.955853,9474
1659513904.997375,9550
1659513905.03565,9624
1659513905.073925,9664
1659513905.1122,9700
1659513905.151842,9733
1659513905.191483,9751
1659513905.231126,9761
1659513905.272647,9763
1659513905.314168,9770
1659513905.352443,9784
1659513905.390718,9808
1659513905.428993,9848
1659513905.470515,9899
1659513905.512037,9932
1659513905.550653,9965
1659513905.58927,10018
1659513905.627887,10030
1659513905.666162,9883
1659513905.704437,9650
1659513905.742712,9496
1659513905.784746,9401
1659513905.82678,9339
1659513905.870864,9296
1659513905.914949,9300
1659513905.959033,9322
1659513905.991328,9312
1659513906.023623,9307
1659513906.068391,9301
1659513906.113159,9319
1659513906.157927,9337
1659513906.191759,9369
1659513906.225591,9422
1659513906.269676,9485
1659513906.313761,9565
1659513906.357845,9643
1659513906.397145,9726
1659513906.436445,9806
1659513906.475746,9875
1659513906.516755,9842
1659513906.557763,9669
1659513906.597747,9475
1659513906.637731,9381
1659513906.677715,9338
1659513906.717698,9313
1659513906.757682,9316
1659513906.79664,9309
1659513906.835599,9308
1659513906.874557,9322
1659513906.912832,9357
1659513906.951107,9416
1659513906.989382,9480
1659513907.030391,9555
1659513907.0714,9657
1659513907.1107,9749
1659513907.15,9846
1659513907.189301,9931
1659513907.231335,10014
1659513907.273369,10104
1659513907.312327,10180
1659513907.351286,10253
1659513907.390244,10214
1659513907.432278,10077
1659513907.474312,9944
1659513907.513271,9885
1659513907.552229,9876
1659513907.591188,9859
1659513907.633222,9846
1659513907.675256,9846
1659513907.713873,9828
1659513907.752489,9807
1659513907.791106,9810
1659513907.835191,9814
1659513907.879275,9823
1659513907.92336,9848
1659513907.964369,9868
1659513908.005378,9885
1659513908.044336,9906
1659513908.083295,9934
1659513908.122253,9971
1659513908.164287,10014
1659513908.206321,10049
1659513908.244938,10100
1659513908.283555,10043
1659513908.322171,9893
1659513908.36113,9762
1659513908.400088,9720
1659513908.439047,9711
1659513908.480568,9705
1659513908.52209,9711
1659513908.56139,9717
1659513908.60069,9719
1659513908.63999,9729
1659513908.678607,9751
1659513908.717224,9783
1659513908.755841,9842
1659513908.797362,9903
1659513908.838883,9957
1659513908.877158,10016
1659513908.915433,10073
1659513908.953708,10132
1659513908.99523,10183
1659513909.036752,10252
1659513909.076052,10293
1659513909.115352,10308
1659513909.154652,10190
1659513909.195148,10039
1659513909.235645,9957
1659513909.274261,9918
1659513909.312878,9906
1659513909.351495,9894
1659513909.394554,9897
1659513909.437613,9886
1659513909.48204,9876
1659513909.526466,9890
1659513909.570892,9905
1659513909.609509,9941
1659513909.648126,9978
1659513909.686743,10010
1659513909.728777,10042
1659513909.770811,10093
1659513909.809427,10116
1659513909.848044,10140
1659513909.886661,10184
1659513909.928695,10229
1659513909.970729,10227
1659513910.009688,10108
1659513910.048646,9916
1659513910.087605,9791
1659513910.12588,9737
1659513910.164155,9691
1659513910.202429,9678
1659513910.242926,9670
1659513910.283422,9669
1659513910.322722,9640
1659513910.362022,9629
1659513910.401323,9651
1659513910.439939,9698
1659513910.478556,9735
1659513910.517173,9774
1659513910.559207,9830
1659513910.601241,9872
1659513910.640541,9921
1659513910.679841,9970
1659513910.719141,10027
1659513910.761176,10081
1659513910.80321,10139
1659513910.844731,10159
1659513910.886253,10038
1659513910.925553,9886
1659513910.964853,9801
1659513911.004153,9753
1659513911.04858,9714
1659513911.093006,9692
1659513911.137432,9678
1659513911.169727,9674
1659513911.202021,9659
1659513911.246106,9644
1659513911.29019,9661
1659513911.334275,9693
1659513911.368107,9734
1659513911.40194,9766
1659513911.445683,9791
1659513911.489425,9842
1659513911.533168,9878
1659513911.572127,9919
1659513911.611085,9955
1659513911.650043,10011
1659513911.691565,10046
1659513911.733087,10038
1659513911.771362,9880
1659513911.809637,9703
1659513911.847912,9607
1659513911.889946,9567
1659513911.93198,9539
1659513911.974014,9516
1659513912.016048,9498
1659513912.054323,9477
1659513912.092598,9466
1659513912.130873,9462
1659513912.16949,9483
1659513912.208106,9520
1659513912.246723,9563
1659513912.28927,9601
1659513912.331816,9643
1659513912.370433,9692
1659513912.40905,9724
1659513912.447667,9772
1659513912.488163,9817
1659513912.528659,9858
1659513912.56796,9878
1659513912.60726,9753
1659513912.64656,9572
1659513912.686202,9430
1659513912.725844,9364
1659513912.765486,9314
1659513912.806494,9293
1659513912.847503,9294
1659513912.889025,9295
1659513912.930547,9277
1659513912.970188,9271
1659513913.00983,9294
1659513913.049472,9347
1659513913.091506,9399
1659513913.13354,9448
1659513913.171815,9496
1659513913.21009,9540
1659513913.248365,9602
1659513913.292792,9648
1659513913.337218,9727
1659513913.381644,9808
1659513913.414451,9921
1659513913.447258,10053
1659513913.491343,10112
1659513913.535428,10067
1659513913.579512,10031
1659513913.619496,10062
1659513913.65948,10102
1659513913.699463,10104
1659513913.73996,10096
1659513913.780456,10068
1659513913.819414,10030
1659513913.858373,9967
1659513913.897331,9894
1659513913.939365,9820
1659513913.9814,9781
1659513914.0207,9741
1659513914.06,9746
1659513914.0993,9750
1659513914.137575,9766
1659513914.17585,9805
1659513914.214125,9839
1659513914.256672,9885
1659513914.299218,9930
1659513914.337493,9960
1659513914.375768,9860
1659513914.414043,9695
1659513914.455565,9596
1659513914.497087,9574
1659513914.536045,9569
1659513914.575003,9567
1659513914.613962,9574
1659513914.654971,9554
1659513914.69598,9522
1659513914.733913,9502
1659513914.771846,9517
1659513914.809779,9536
1659513914.854889,9563
1659513914.899999,9590
1659513914.945109,9615
1659513914.978428,9647
1659513915.011748,9666
1659513915.055833,9690
1659513915.099917,9712
1659513915.144002,9740
1659513915.186036,9719
1659513915.22807,9553
1659513915.26737,9326
1659513915.30667,9181
1659513915.345971,9114
1659513915.383904,9050
1659513915.421837,9032
1659513915.45977,9030
1659513915.50283,9038
1659513915.545889,9016
1659513915.584506,9015
1659513915.623122,9040
1659513915.661739,9075
1659513915.702235,9123
1659513915.742732,9163
1659513915.781348,9227
1659513915.819965,9274
1659513915.858582,9329
1659513915.89754,9384
1659513915.936499,9453
1659513915.975457,9509
1659513916.016979,9591
1659513916.0585,9572
1659513916.0978,9429
1659513916.137101,9283
1659513916.176401,9197
1659513916.218435,9165
1659513916.260469,9150
1659513916.299428,9154
1659513916.338386,9180
1659513916.377344,9226
1659513916.419379,9214
1659513916.461413,9250
1659513916.506181,9318
1659513916.550949,9371
1659513916.595717,9438
1659513916.628011,9500
1659513916.660306,9560
1659513916.704732,9603
1659513916.749158,9642
1659513916.793585,9680
1659513916.832543,9715
1659513916.871502,9758
1659513916.91046,9784
1659513916.951982,9675
1659513916.993503,9460
1659513917.031778,9303
1659513917.070053,9213
1659513917.108328,9157
1659513917.148312,9106
1659513917.188295,9079
1659513917.228279,9043
1659513917.268263,9024
1659513917.308246,9027
1659513917.350281,9067
1659513917.392315,9107
1659513917.431273,9175
1659513917.470232,9256
1659513917.50919,9331
1659513917.547807,9422
1659513917.586424,9490
1659513917.62504,9563
1659513917.665537,9613
1659513917.706033,9650
1659513917.745333,9681
1659513917.784633,9618
1659513917.823933,9399
1659513917.862892,9210
1659513917.90185,9115
1659513917.940809,9043
1659513917.981305,9000
1659513918.021801,8961
1659513918.06281,8951
1659513918.103819,8945
1659513918.143119,8913
1659513918.18242,8920
1659513918.22172,8955
1659513918.265804,8993
1659513918.309889,9050
1659513918.353973,9106
1659513918.386781,9129
1659513918.419588,9172
1659513918.464356,9218
1659513918.509124,9259
1659513918.553892,9312
1659513918.587724,9382
1659513918.621557,9420
1659513918.665641,9349
1659513918.709726,9171
1659513918.75381,9016
1659513918.79311,8955
1659513918.832411,8895
1659513918.871711,8845
1659513918.91272,8800
1659513918.953729,8775
1659513918.992004,8728
1659513919.030278,8693
1659513919.068553,8679
1659513919.107854,8691
1659513919.147154,8725
1659513919.186454,8772
1659513919.227976,8812
1659513919.269497,8844
1659513919.308114,8884
1659513919.34673,8927
1659513919.385347,8967
1659513919.427894,9013
1659513919.470441,9043
1659513919.509399,8998
1659513919.548358,8826
1659513919.587316,8670
1659513919.628838,8617
1659513919.670359,8615
1659513919.710001,8636
1659513919.749643,8696
1659513919.789285,8760
1659513919.830806,8809
1659513919.872328,8859
1659513919.910261,8906
1659513919.948195,8967
1659513919.986128,9007
1659513920.028674,9037
1659513920.071221,9070
1659513920.115647,9088
1659513920.160074,9109
1659513920.2045,9136
1659513920.242433,9161
1659513920.280366,9188
1659513920.3183,9235
1659513920.359309,9260
1659513920.400317,9233
1659513920.439618,9072
1659513920.478918,8858
1659513920.518218,8721
1659513920.556493,8644
1659513920.594768,8570
1659513920.633043,8545
1659513920.67559,8552
1659513920.718137,8561
1659513920.757095,8605
1659513920.796053,8645
1659513920.835012,8694
1659513920.873629,8770
1659513920.912245,8855
1659513920.950862,8936
1659513920.991871,9007
1659513921.03288,9045
1659513921.07218,9081
1659513921.11148,9121
1659513921.15078,9137
1659513921.191277,9163
1659513921.231773,9196
1659513921.27039,9245
1659513921.309006,9234
1659513921.347623,9087
1659513921.389145,8879
1659513921.430666,8763
1659513921.474751,8711
1659513921.518835,8684
1659513921.56292,8687
1659513921.59624,8717
1659513921.629559,8728
1659513921.674327,8732
1659513921.719095,8745
1659513921.763863,8770
1659513921.80248,8826
1659513921.841097,8861
1659513921.879714,8909
1659513921.921748,8945
1659513921.963782,8989
1659513922.003424,9022
1659513922.043066,9077
1659513922.082708,9132
1659513922.123717,9189
1659513922.164726,9264
1659513922.203342,9271
1659513922.241959,9142
1659513922.280576,8952
1659513922.319534,8831
1659513922.358492,8765
1659513922.397451,8712
1659513922.438972,8677
1659513922.480494,8654
1659513922.522016,8641
1659513922.563537,8615
1659513922.602837,8611
1659513922.642137,8622
1659513922.681437,8650
1659513922.722959,8690
1659513922.764481,8756
1659513922.803439,8803
1659513922.842397,8848
1659513922.881356,8907
1659513922.922878,8952
1659513922.964399,9013
1659513923.003357,9049
1659513923.042316,9106
1659513923.081274,9156
1659513923.119891,9146
1659513923.158508,9006
1659513923.197124,8813
1659513923.239159,8714
1659513923.281193,8645
1659513923.320151,8631
1659513923.35911,8605
1659513923.398068,8603
1659513923.438564,8615
1659513923.479061,8613
1659513923.516994,8618
1659513923.554927,8658
1659513923.59286,8706
1659513923.63592,8751
1659513923.678979,8807
1659513923.722722,8856
1659513923.766465,8908
1659513923.810208,8957
1659513923.843015,9014
1659513923.875822,9060
1659513923.920248,9125
1659513923.964674,9171
1659513924.009101,9223
1659513924.048401,9252
1659513924.087701,9151
1659513924.127001,9001
1659513924.168523,8899
1659513924.210044,8854
1659513924.249003,8843
1659513924.287961,8818
1659513924.32692,8800
1659513924.365536,8760
1659513924.404153,8726
1659513924.44277,8714
1659513924.483266,8723
1659513924.523762,8744
1659513924.562721,8793
1659513924.601679,8861
1659513924.640638,8954
1659513924.683184,9048
1659513924.725731,9132
1659513924.763664,9214
1659513924.801598,9278
1659513924.839531,9334
1659513924.879173,9347
1659513924.918815,9234
1659513924.958457,8979
1659513924.999978,8767
1659513925.0415,8674
1659513925.083021,8635
1659513925.124543,8628
1659513925.163843,8623
1659513925.203143,8652
1659513925.242443,8648
1659513925.284477,8679
1659513925.326512,8742
1659513925.364787,8833
1659513925.403062,8968
1659513925.441336,9080
1659513925.485763,9183
1659513925.530189,9291
1659513925.574615,9383
1659513925.60896,9471
1659513925.643305,9555
1659513925.68739,9616
1659513925.731474,9679
1659513925.775559,9695
1659513925.814176,9550
1659513925.852793,9357
1659513925.891409,9245
1659513925.933443,9210
1659513925.975477,9186
1659513926.014094,9197
1659513926.052711,9207
1659513926.091328,9204
1659513926.133874,9199
1659513926.176421,9208
1659513926.215379,9246
1659513926.254338,9273
1659513926.293296,9312
1659513926.331913,9347
1659513926.37053,9397
1659513926.409147,9429
1659513926.450155,9464
1659513926.491164,9513
1659513926.530806,9549
1659513926.570448,9564
1659513926.61009,9420
1659513926.650586,9210
1659513926.691083,9080
1659513926.729699,9005
1659513926.768316,8969
1659513926.806933,8956
1659513926.847942,8966
1659513926.888951,8965
1659513926.928251,8968
1659513926.967551,8962
1659513927.006851,8988
1659513927.047348,9029
1659513927.087844,9089
1659513927.126802,9137
1659513927.165761,9192
1659513927.204719,9244
1659513927.249146,9284
1659513927.293572,9343
1659513927.337998,9389
1659513927.37952,9455
1659513927.421041,9469
1659513927.460341,9343
1659513927.499641,9165
1659513927.538942,9063
1659513927.580463,9018
1659513927.621985,8998
1659513927.661558,8995
1659513927.701132,9030
1659513927.740705,9066
1659513927.780279,9084
1659513927.819853,9130
1659513927.859153,9189
1659513927.898453,9269
1659513927.937753,9343
1659513927.979275,9434
1659513928.020796,9521
1659513928.059071,9599
1659513928.097346,9698
1659513928.135621,9770
1659513928.177655,9860
1659513928.219689,9955
1659513928.259331,10026
1659513928.298973,10048
1659513928.338615,9949
1659513928.377232,9854
1659513928.415849,9833
1659513928.454465,9835
1659513928.4965,9855
1659513928.538534,9883
1659513928.577834,9896
1659513928.617134,9901
1659513928.656434,9912
1659513928.697956,9929
1659513928.739477,9961
1659513928.778436,10002
1659513928.817394,10037
1659513928.856353,10071
1659513928.897874,10103
1659513928.939396,10137
1659513928.977329,10186
1659513929.015262,10220
1659513929.053195,10267
1659513929.095229,10315
1659513929.137264,10358
1659513929.176222,10310
1659513929.21518,10171
1659513929.254139,10051
1659513929.298223,9993
1659513929.342308,9962
1659513929.386393,9934
1659513929.427914,9936
1659513929.469436,9939
1659513929.508736,9934
1659513929.548036,9930
1659513929.587336,9937
1659513929.628858,9962
1659513929.670379,9988
1659513929.708996,10029
1659513929.747613,10068
1659513929.786229,10106
1659513929.825188,10145
1659513929.864146,10191
1659513929.903105,10239
1659513929.943601,10294
1659513929.984097,10341
1659513930.022714,10392
1659513930.061331,10448
1659513930.099947,10492
1659513930.138564,10456
1659513930.177181,10305
1659513930.215798,10155
1659513930.257319,10080
1659513930.298841,10025
1659513930.337457,9986
1659513930.376074,9993
1659513930.414691,10015
1659513930.456725,10029
1659513930.498759,10032
1659513930.537376,10051
1659513930.575993,10100
1659513930.614609,10163
1659513930.656643,10221
1659513930.698678,10278
1659513930.743787,10348
1659513930.788897,10414
1659513930.834007,10487
1659513930.866301,10560
1659513930.898596,10634
1659513930.942339,10708
1659513930.986082,10790
1659513931.029824,10858
1659513931.069124,10925
1659513931.108425,10966
1659513931.147725,10879
1659513931.189759,10735
1659513931.231793,10640
1659513931.27041,10604
1659513931.309026,10574
1659513931.347643,10565
1659513931.389165,10567
1659513931.430686,10553
1659513931.469645,10532
1659513931.508603,10512
1659513931.547562,10521
1659513931.58652,10537
1659513931.625479,10555
1659513931.664437,10575
1659513931.706471,10598
1659513931.748505,10619
1659513931.787464,10656
1659513931.826422,10677
1659513931.865381,10713
1659513931.904339,10742
1659513931.943298,10780
1659513931.982256,10817
1659513932.02429,10862
1659513932.066324,10843
1659513932.105283,10687
1659513932.144241,10483
1659513932.1832,10345
1659513932.223696,10276
1659513932.264192,10199
1659513932.308619,10143
1659513932.353045,10136
1659513932.397471,10128
1659513932.430791,10096
1659513932.464111,10081
1659513932.508195,10086
1659513932.55228,10090
1659513932.596364,10129
1659513932.635323,10142
1659513932.674281,10182
1659513932.71324,10234
1659513932.754761,10271
1659513932.796283,10324
1659513932.834899,10361
1659513932.873516,10414
1659513932.912133,10458
1659513932.954167,10518
1659513932.996201,10575
1659513933.038235,10621
1659513933.080269,10602
1659513933.118544,10432
1659513933.156819,10248
1659513933.195094,10144
1659513933.233369,10080
1659513933.271644,10034
1659513933.309919,10018
1659513933.351441,10033
1659513933.392962,10034
1659513933.431921,10030
1659513933.470879,10037
1659513933.509838,10073
1659513933.547771,10117
1659513933.585704,10175
1659513933.623637,10220
1659513933.665159,10279
1659513933.70668,10328
1659513933.745981,10388
1659513933.785281,10454
1659513933.824581,10505
1659513933.866102,10569
1659513933.907624,10623
1659513933.946924,10671
1659513933.986224,10718
1659513934.025524,10643
1659513934.067559,10454
1659513934.109593,10298
1659513934.147868,10211
1659513934.186143,10178
1659513934.224418,10133
1659513934.266964,10113
1659513934.309511,10102
1659513934.354279,10061
1659513934.399047,10038
1659513934.443815,10038
1659513934.47611,10077
1659513934.508404,10104
1659513934.552489,10142
1659513934.596573,10170
1659513934.640658,10188
1659513934.679958,10228
1659513934.719258,10259
1659513934.758559,10293
1659513934.80008,10331
1659513934.841602,10380
1659513934.880218,10428
1659513934.918835,10485
1659513934.957452,10425
1659513934.996752,10213
1659513935.036052,10016
1659513935.075352,9902
1659513935.116361,9827
1659513935.15737,9767
1659513935.196328,9748
1659513935.235287,9744
1659513935.274246,9733
1659513935.316792,9713
1659513935.359339,9700
1659513935.397614,9734
1659513935.435889,9765
1659513935.474164,9828
1659513935.51278,9870
1659513935.551397,9931
1659513935.590014,9985
1659513935.631536,10052
1659513935.673057,10121
1659513935.712015,10180
1659513935.750974,10252
1659513935.789932,10318
1659513935.830941,10396
1659513935.87195,10437
1659513935.91706,10369
1659513935.96217,10188
1659513936.007279,10001
1659513936.039574,9923
1659513936.071868,9877
1659513936.115953,9847
1659513936.160038,9842
1659513936.204122,9865
1659513936.237955,9856
1659513936.271787,9850
1659513936.316555,9877
1659513936.361323,9905
1659513936.406091,9950
1659513936.444366,10002
1659513936.482641,10042
1659513936.520916,10086
1659513936.562438,10137
1659513936.603959,10172
1659513936.642917,10220
1659513936.681876,10263
1659513936.720834,10305
1659513936.759109,10353
1659513936.797384,10387
1659513936.835659,10340
1659513936.877181,10141
1659513936.918702,9928
1659513936.957319,9805
1659513936.995936,9750
1659513937.034552,9686
1659513937.076586,9679
1659513937.118621,9682
1659513937.157921,9654
1659513937.197221,9633
1659513937.236521,9629
1659513937.278043,9657
1659513937.319564,9687
1659513937.358523,9729
1659513937.397481,9773
1659513937.43644,9806
1659513937.478474,9854
1659513937.520508,9892
1659513937.559808,9932
1659513937.599108,9976
1659513937.638408,10019
1659513937.679417,10066
1659513937.720426,10115
1659513937.759043,10153
1659513937.79766,10116
1659513937.836277,9897
1659513937.880703,9659
1659513937.925129,9530
1659513937.969555,9442
1659513938.01159,9373
1659513938.053624,9339
1659513938.09224,9363
1659513938.130857,9368
1659513938.169474,9371
1659513938.207663,9381
1659513938.245853,9420
1659513938.284042,9489
1659513938.322232,9550
1659513938.366317,9612
1659513938.410401,9673
1659513938.454486,9750
1659513938.493444,9813
1659513938.532403,9898
1659513938.571361,9965
1659513938.613395,10032
1659513938.655429,10112
1659513938.693704,10192
1659513938.731979,10264
1659513938.770254,10340
1659513938.812288,10308
1659513938.854322,10117
1659513938.893281,9944
1659513938.932239,9870
1659513938.971198,9831
1659513939.009131,9802
1659513939.047064,9796
1659513939.084997,9809
1659513939.125494,9787
1659513939.16599,9762
1659513939.20529,9767
1659513939.24459,9800
1659513939.28389,9825
1659513939.325412,9874
1659513939.366934,9906
1659513939.405892,9939
1659513939.44485,9989
1659513939.483809,10034
1659513939.525843,10082
1659513939.567877,10131
1659513939.606494,10183
1659513939.645111,10237
1659513939.683727,10302
1659513939.725249,10324
1659513939.76677,10200
1659513939.806071,9952
1659513939.845371,9726
1659513939.884671,9615
1659513939.928756,9523
1659513939.97284,9456
1659513940.016925,9437
1659513940.049732,9453
1659513940.082539,9433
1659513940.127307,9423
1659513940.172075,9418
1659513940.216843,9448
1659513940.255118,9492
1659513940.293393,9531
1659513940.331668,9581
1659513940.373189,9634
1659513940.414711,9699
1659513940.454353,9752
1659513940.493995,9816
1659513940.533637,9859
1659513940.575158,9909
1659513940.61668,9980
1659513940.655638,10059
1659513940.694597,10144
1659513940.733555,10212
1659513940.775589,10169
1659513940.817623,9962
1659513940.856582,9774
1659513940.89554,9679
1659513940.934499,9633
1659513940.972774,9593
1659513941.011049,9590
1659513941.049324,9622
1659513941.090845,9628
1659513941.132367,9638
1659513941.171667,9648
1659513941.210967,9710
1659513941.250267,9766
1659513941.291276,9825
1659513941.332285,9892
1659513941.370902,9947
1659513941.409518,10010
1659513941.448135,10056
1659513941.490169,10113
1659513941.532203,10161
1659513941.576288,10202
1659513941.620373,10259
1659513941.664457,10325
1659513941.69829,10351
1659513941.732122,10252
1659513941.77689,10032
1659513941.821658,9828
1659513941.866426,9726
1659513941.905043,9661
1659513941.94366,9625
1659513941.982276,9618
1659513942.022773,9632
1659513942.063269,9626
1659513942.102911,9614
1659513942.142553,9628
1659513942.182194,9660
1659513942.220469,9707
1659513942.258744,9759
1659513942.297019,9812
1659513942.338028,9865
1659513942.379037,9922
1659513942.417654,9978
1659513942.456271,10047
1659513942.494887,10091
1659513942.536922,10144
1659513942.578956,10213
1659513942.617572,10261
1659513942.656189,10317
1659513942.694806,10282
1659513942.734448,10070
1659513942.77409,9838
1659513942.813732,9717
1659513942.855253,9617
1659513942.896775,9547
1659513942.940859,9519
1659513942.984944,9544
1659513943.029028,9557
1659513943.062861,9565
1659513943.096693,9592
1659513943.141119,9623
1659513943.185546,9684
1659513943.229972,9743
1659513943.262266,9803
1659513943.294561,9866
1659513943.338987,9932
1659513943.383414,10005
1659513943.42784,10070
1659513943.467824,10136
1659513943.507807,10218
1659513943.547791,10294
1659513943.587775,10366
1659513943.627758,10440
1659513943.666375,10495
1659513943.704992,10436
1659513943.743608,10241
1659513943.786155,10081
1659513943.828702,10019
1659513943.867319,9971
1659513943.905935,9951
1659513943.944552,9961
1659513943.983852,9976
1659513944.023152,9955
1659513944.062453,9941
1659513944.104999,9955
1659513944.147546,9980
1659513944.185821,10019
1659513944.224096,10060
1659513944.262371,10101
1659513944.30338,10145
1659513944.344389,10184
1659513944.383689,10226
1659513944.422989,10276
1659513944.462289,10317
1659513944.503811,10369
1659513944.545332,10438
1659513944.583949,10489
1659513944.622566,10474
1659513944.661183,10275
1659513944.702704,9960
1659513944.744226,9694
1659513944.782501,9567
1659513944.820776,9504
1659513944.859051,9498
1659513944.903135,9534
1659513944.94722,9556
1659513944.991304,9540
1659513945.025136,9533
1659513945.058969,9569
1659513945.103395,9628
1659513945.147821,9702
1659513945.192248,9769
1659513945.231206,9832
1659513945.270165,9918
1659513945.309123,10018
1659513945.350132,10137
1659513945.391141,10256
1659513945.430099,10323
1659513945.469058,10391
1659513945.508016,10468
1659513945.548513,10528
1659513945.589009,10546
1659513945.627967,10410
1659513945.666926,10163
1659513945.705884,9990
1659513945.744159,9899
1659513945.782434,9838
1659513945.820709,9806
1659513945.862743,9812
1659513945.904778,9823
1659513945.944078,9834
1659513945.983378,9842
1659513946.022678,9836
1659513946.064199,9830
1659513946.105721,9833
1659513946.144338,9873
1659513946.182955,9932
1659513946.221571,9998
1659513946.264118,10050
1659513946.306665,10118
1659513946.345623,10146
1659513946.384582,10166
1659513946.42354,10152
1659513946.464549,10120
1659513946.505558,10113
1659513946.549984,9977
1659513946.59441,9718
1659513946.638837,9507
1659513946.677454,9403
1659513946.71607,9324
1659513946.754687,9265
1659513946.792962,9208
1659513946.831237,9168
1659513946.869512,9134
1659513946.912059,9096
1659513946.954605,9085
1659513946.993222,9094
1659513947.031839,9117
1659513947.070455,9148
1659513947.111977,9197
1659513947.153498,9228
1659513947.192457,9272
1659513947.231415,9311
1659513947.270374,9361
1659513947.309674,9405
1659513947.348974,9463
1659513947.388274,9524
1659513947.429796,9584
1659513947.471317,9656
1659513947.510276,9666
1659513947.549234,9520
1659513947.588193,9313
1659513947.629202,9174
1659513947.670211,9121
1659513947.708827,9059
1659513947.747444,9047
1659513947.786061,9067
1659513947.827582,9082
1659513947.869104,9092
1659513947.91353,9110
1659513947.957956,9141
1659513948.002383,9195
1659513948.03519,9250
1659513948.067997,9313
1659513948.112082,9359
1659513948.156166,9412
1659513948.200251,9475
1659513948.238867,9535
1659513948.277484,9600
1659513948.316101,9656
1659513948.358135,9714
1659513948.400169,9767
1659513948.438786,9828
1659513948.477402,9864
1659513948.516019,9811
1659513948.555319,9617
1659513948.59462,9448
1659513948.63392,9368
1659513948.673493,9304
1659513948.713067,9275
1659513948.75264,9258
1659513948.792214,9260
1659513948.831788,9256
1659513948.873309,9238
1659513948.914831,9252
1659513948.956352,9294
1659513948.997874,9339
1659513949.036149,9387
1659513949.074424,9454
1659513949.112699,9491
1659513949.154733,9544
1659513949.196767,9611
1659513949.236409,9657
1659513949.276051,9718
1659513949.315693,9774
1659513949.356702,9838
1659513949.397711,9895
1659513949.436327,9958
1659513949.474944,9998
1659513949.513561,9910
1659513949.55662,9695
1659513949.599679,9518
1659513949.638638,9426
1659513949.677596,9354
1659513949.716555,9284
1659513949.755171,9259
1659513949.793788,9259
1659513949.832405,9249
1659513949.873926,9248
1659513949.915448,9276
1659513949.954406,9326
1659513949.993365,9389
1659513950.032323,9456
1659513950.073332,9514
1659513950.114341,9560
1659513950.159109,9601
1659513950.203877,9631
1659513950.248645,9645
1659513950.281452,9632
1659513950.314259,9616
1659513950.358344,9606
1659513950.402428,9593
1659513950.446513,9600
1659513950.480858,9588
1659513950.515203,9453
1659513950.559971,9217
1659513950.604739,9042
1659513950.649507,8951
1659513950.687782,8860
1659513950.726057,8805
1659513950.764332,8767
1659513950.806366,8750
1659513950.8484,8717
1659513950.887701,8688
1659513950.927001,8695
1659513950.966301,8751
1659513951.006797,8830
1659513951.047293,8938
1659513951.08591,9055
1659513951.124527,9201
1659513951.163144,9352
1659513951.20176,9482
1659513951.240377,9587
1659513951.278994,9670
1659513951.320515,9742
1659513951.362037,9792
1659513951.400653,9792
1659513951.43927,9638
1659513951.477887,9410
1659513951.519921,9273
1659513951.561955,9202
1659513951.600572,9170
1659513951.639189,9199
1659513951.677805,9271
1659513951.719839,9324
1659513951.761873,9363
1659513951.800832,9372
1659513951.83979,9379
1659513951.878749,9381
1659513951.923175,9354
1659513951.967602,9341
1659513952.012028,9286
1659513952.044835,9251
1659513952.077642,9216
1659513952.12241,9231
1659513952.167178,9231
1659513952.211946,9231
1659513952.245779,9260
1659513952.279611,9290
1659513952.323354,9298
1659513952.367096,9161
1659513952.410839,8969
1659513952.449456,8862
1659513952.488073,8816
1659513952.52669,8794
1659513952.568211,8816
1659513952.609733,8843
1659513952.648691,8861
1659513952.687649,8879
1659513952.726608,8850
1659513952.769155,8867
1659513952.811701,8900
1659513952.851002,8935
1659513952.890302,8987
1659513952.929602,9045
1659513952.96856,9099
1659513953.007519,9169
1659513953.046477,9218
1659513953.087486,9287
1659513953.128495,9365
1659513953.167795,9438
1659513953.207095,9492
1659513953.246396,9460
1659513953.290138,9283
1659513953.333881,9110
1659513953.377624,9038
1659513953.411457,8982
1659513953.445289,8960
1659513953.489715,8971
1659513953.534142,8976
1659513953.578568,8964
1659513953.610862,8967
1659513953.643157,8990
1659513953.687583,9024
1659513953.732009,9075
1659513953.776436,9126
1659513953.816078,9172
1659513953.85572,9234
1659513953.895361,9279
1659513953.934935,9326
1659513953.974509,9368
1659513954.014082,9413
1659513954.053656,9460
1659513954.09323,9509
1659513954.132188,9457
1659513954.171146,9241
1659513954.210105,9008
1659513954.248038,8869
1659513954.285971,8774
1659513954.323905,8677
1659513954.366451,8624
1659513954.408998,8623
1659513954.45052,8623
1659513954.492041,8646
1659513954.529974,8723
1659513954.567908,8826
1659513954.605841,8922
1659513954.650267,9040
1659513954.694693,9142
1659513954.73912,9249
1659513954.772952,9369
1659513954.806784,9479
1659513954.851211,9561
1659513954.895637,9634
1659513954.940063,9687
1659513954.973383,9766
1659513955.006703,9863
1659513955.051812,9872
1659513955.096922,9725
1659513955.142032,9487
1659513955.180307,9321
1659513955.218582,9241
1659513955.256857,9207
1659513955.298378,9241
1659513955.3399,9300
1659513955.3792,9303
1659513955.4185,9298
1659513955.457801,9289
1659513955.49881,9265
1659513955.539818,9220
1659513955.578435,9180
1659513955.617052,9177
1659513955.655668,9150
1659513955.694627,9151
1659513955.733585,9137
1659513955.772544,9139
1659513955.814065,9202
1659513955.855587,9259
1659513955.894545,9304
1659513955.933504,9284
1659513955.972462,9120
1659513956.014496,8908
1659513956.05653,8806
1659513956.095489,8753
1659513956.134447,8727
1659513956.173406,8746
1659513956.21544,8759
1659513956.257474,8768
1659513956.296774,8717
1659513956.336075,8682
1659513956.375375,8661
1659513956.416384,8679
1659513956.457392,8695
1659513956.495667,8730
1659513956.533942,8766
1659513956.572217,8807
1659513956.616644,8864
1659513956.66107,8913
1659513956.705496,8966
1659513956.74753,9037
1659513956.789565,9083
1659513956.82784,8985
1659513956.866115,8746
1659513956.90439,8526
1659513956.943006,8388
1659513956.981623,8324
1659513957.02024,8258
1659513957.061761,8283
1659513957.103283,8338
1659513957.142241,8392
1659513957.1812,8445
1659513957.220158,8518
1659513957.26168,8594
1659513957.303201,8681
1659513957.34216,8761
1659513957.381118,8833
1659513957.420076,8908
1659513957.459035,8975
1659513957.497993,9049
1659513957.536952,9115
1659513957.578986,9197
1659513957.62102,9278
1659513957.659979,9371
1659513957.698937,9436
1659513957.737895,9335
1659513957.778904,9152
1659513957.819913,9037
1659513957.857846,9025
1659513957.89578,9068
1659513957.933713,9125
1659513957.97626,9173
1659513958.018806,9182
1659513958.062891,9163
1659513958.106976,9150
1659513958.15106,9180
1659513958.183867,9225
1659513958.216674,9282
1659513958.261101,9344
1659513958.305527,9404
1659513958.349953,9464
1659513958.389253,9520
1659513958.428554,9571
1659513958.467854,9625
1659513958.509375,9686
1659513958.550897,9638
1659513958.590197,9449
1659513958.629497,9223
1659513958.668797,9116
1659513958.710319,9087
1659513958.75184,9074
1659513958.790457,9087
1659513958.829074,9115
1659513958.867691,9124
1659513958.906649,9124
1659513958.945607,9143
1659513958.984566,9180
1659513959.027113,9238
1659513959.069659,9299
1659513959.107593,9352
1659513959.145526,9405
1659513959.183459,9457
1659513959.223853,9522
1659513959.264247,9557
1659513959.304641,9617
1659513959.345034,9659
1659513959.385428,9654
1659513959.42695,9521
1659513959.468471,9245
1659513959.510249,9059
1659513959.552027,8988
1659513959.593804,8975
1659513959.635582,8986
1659513959.677616,9038
1659513959.719651,9102
1659513959.757584,9126
1659513959.795517,9149
1659513959.83345,9161
1659513959.874459,9187
1659513959.915468,9210
1659513959.954085,9247
1659513959.992702,9295
1659513960.031318,9359
1659513960.069935,9428
1659513960.108552,9469
1659513960.147168,9519
1659513960.18869,9559
1659513960.230211,9601
1659513960.268828,9633
1659513960.307445,9619
1659513960.346061,9454
1659513960.384678,9271
1659513960.423295,9168
1659513960.461912,9120
1659513960.503946,9090
1659513960.54598,9060
1659513960.584938,9065
1659513960.623897,9030
1659513960.662855,9005
1659513960.703864,9024
1659513960.744873,9081
1659513960.783831,9133
1659513960.82279,9193
1659513960.861748,9273
1659513960.904295,9359
1659513960.946842,9456
1659513960.990585,9536
1659513961.034328,9604
1659513961.07807,9678
1659513961.110365,9756
1659513961.142659,9832
1659513961.187427,9902
1659513961.232195,9955
1659513961.276963,9899
1659513961.315238,9758
1659513961.353513,9694
1659513961.391788,9709
1659513961.434335,9736
1659513961.476882,9753
1659513961.516182,9788
1659513961.555482,9822
1659513961.594782,9833
1659513961.635791,9844
1659513961.6768,9874
1659513961.715759,9899
1659513961.754717,9942
1659513961.793676,9974
1659513961.832976,10001
1659513961.872276,10034
1659513961.911576,10073
1659513961.95361,10121
1659513961.995644,10168
1659513962.034261,10212
1659513962.072878,10264
1659513962.111495,10323
1659513962.153016,10381
1659513962.194538,10407
1659513962.233154,10258
1659513962.271771,10025
1659513962.310388,9896
1659513962.351909,9848
1659513962.393431,9830
1659513962.432047,9830
1659513962.470664,9859
1659513962.509281,9867
1659513962.550802,9873
1659513962.592324,9872
1659513962.631282,9902
1659513962.670241,9949
1659513962.709199,9994
1659513962.753626,10049
1659513962.798052,10099
1659513962.842478,10167
1659513962.876823,10234
1659513962.911168,10311
1659513962.955253,10386
1659513962.999337,10467
1659513963.043422,10542
1659513963.084431,10584
1659513963.12544,10517
1659513963.164056,10281
1659513963.202673,10057
1659513963.24129,9941
1659513963.279907,9886
1659513963.318523,9841
1659513963.35714,9821
1659513963.399174,9811
1659513963.441208,9768
1659513963.479825,9743
1659513963.518442,9715
1659513963.557058,9725
1659513963.595333,9768
1659513963.633608,9818
1659513963.671883,9871
1659513963.712892,9954
1659513963.753901,10028
1659513963.793885,10113
1659513963.833868,10208
1659513963.873852,10299
1659513963.914861,10388
1659513963.95587,10471
1659513963.994145,10522
1659513964.03242,10512
1659513964.070695,10323
1659513964.113241,10051
1659513964.155788,9941
1659513964.194747,9882
1659513964.233705,9839
1659513964.272664,9789
1659513964.31316,9778
1659513964.353656,9742
1659513964.392956,9678
1659513964.432256,9656
1659513964.471557,9659
1659513964.514616,9690
1659513964.557675,9725
1659513964.600735,9780
1659513964.643794,9830
1659513964.686853,9871
1659513964.720686,9910
1659513964.754518,9956
1659513964.799628,10019
1659513964.844738,10085
1659513964.889848,10181
1659513964.928123,10258
1659513964.966398,10269
1659513965.004673,10154
1659513965.046706,10020
1659513965.088741,9990
1659513965.128383,10026
1659513965.168025,10064
1659513965.207666,10088
1659513965.249188,10103
1659513965.290709,10098
1659513965.329326,10074
1659513965.367943,10068
1659513965.40656,10093
1659513965.445518,10137
1659513965.484477,10198
1659513965.523435,10260
1659513965.564956,10309
1659513965.606478,10354
1659513965.645095,10397
1659513965.683712,10457
1659513965.722328,10505
1659513965.76385,10564
1659513965.805371,10609
1659513965.843646,10624
1659513965.881921,10466
1659513965.920196,10201
1659513965.96223,10019
1659513966.004264,9948
1659513966.043565,9958
1659513966.082865,9966
1659513966.122165,10011
1659513966.163174,10084
1659513966.204183,10132
1659513966.243141,10158
1659513966.2821,10226
1659513966.321058,10299
1659513966.365143,10355
1659513966.409227,10407
1659513966.453312,10438
1659513966.491587,10472
1659513966.529862,10463
1659513966.568137,10447
1659513966.610171,10425
1659513966.652205,10424
1659513966.691164,10442
1659513966.730122,10463
1659513966.76908,10380
1659513966.807355,10174
1659513966.84563,10005
1659513966.883905,9951
1659513966.924402,9985
1659513966.964898,9990
1659513967.004198,9998
1659513967.043498,9999
1659513967.082798,9992
1659513967.124833,10001
1659513967.166867,10029
1659513967.205825,10078
1659513967.244784,10107
1659513967.283742,10125
1659513967.325776,10099
1659513967.36781,10063
1659513967.40711,10037
1659513967.446411,10019
1659513967.485711,9998
1659513967.527232,9991
1659513967.568754,9974
1659513967.607029,9898
1659513967.645304,9685
1659513967.683579,9422
1659513967.728005,9278
1659513967.772431,9244
1659513967.816858,9250
1659513967.849665,9261
1659513967.882472,9272
1659513967.926898,9225
1659513967.971325,9198
1659513968.015751,9191
1659513968.057785,9190
1659513968.099819,9208
1659513968.138777,9210
1659513968.177736,9211
1659513968.216695,9191
1659513968.255653,9190
1659513968.294611,9203
1659513968.33357,9229
1659513968.375604,9292
1659513968.417638,9281
1659513968.456938,9164
1659513968.496238,9039
1659513968.535539,9002
1659513968.57706,9045
1659513968.618582,9119
1659513968.65754,9167
1659513968.696499,9172
1659513968.735457,9149
1659513968.773732,9108
1659513968.812007,9075
1659513968.850282,9077
1659513968.891804,9092
1659513968.933325,9129
1659513968.972625,9168
1659513969.011925,9203
1659513969.051226,9252
1659513969.091722,9301
1659513969.132218,9354
1659513969.170835,9393
1659513969.209452,9371
1659513969.248068,9162
1659513969.290615,8927
1659513969.333162,8790
1659513969.371778,8746
1659513969.410395,8737
1659513969.449012,8736
1659513969.493097,8739
1659513969.537181,8715
1659513969.581266,8685
1659513969.6233,8687
1659513969.665334,8693
1659513969.703951,8728
1659513969.742567,8780
1659513969.781184,8825
1659513969.818348,8874
1659513969.855513,8948
1659513969.892677,8985
1659513969.929841,9044
1659513969.974267,9125
1659513970.018694,9193
1659513970.06312,9197
1659513970.101053,9053
1659513970.138987,8897
1659513970.17692,8818
1659513970.219467,8794
1659513970.262013,8757
1659513970.30063,8732
1659513970.339247,8730
1659513970.377863,8711
1659513970.41648,8705
1659513970.455097,8717
1659513970.493714,8756
1659513970.535748,8817
1659513970.577782,8903
1659513970.617082,8977
1659513970.656382,9068
1659513970.695683,9157
1659513970.737204,9235
1659513970.778725,9335
1659513970.818026,9417
1659513970.857326,9509
1659513970.896626,9526
1659513970.938148,9378
1659513970.979669,9166
1659513971.018286,9052
1659513971.056903,9005
1659513971.095519,8976
1659513971.137041,8971
1659513971.178562,8949
1659513971.217521,8903
1659513971.256479,8874
1659513971.295438,8851
1659513971.339522,8865
1659513971.383607,8905
1659513971.427691,8933
1659513971.461011,8979
1659513971.494331,9010
1659513971.539099,9033
1659513971.583867,9059
1659513971.628635,9084
1659513971.670156,9108
1659513971.711678,9112
1659513971.750295,8962
1659513971.788911,8730
1659513971.827528,8587
1659513971.866828,8517
1659513971.906128,8513
1659513971.945429,8535
1659513971.985925,8556
1659513972.026421,8568
1659513972.065038,8557
1659513972.103655,8557
1659513972.142272,8579
1659513972.184305,8616
1659513972.22634,8646
1659513972.264956,8685
1659513972.303573,8714
1659513972.34219,8748
1659513972.380465,8776
1659513972.41874,8809
1659513972.457015,8848
1659513972.498536,8893
1659513972.540058,8911
1659513972.5797,8863
1659513972.619342,8662
1659513972.658983,8440
1659513972.699992,8326
1659513972.741001,8275
1659513972.779276,8261
1659513972.817551,8244
1659513972.855826,8274
1659513972.898373,8275
1659513972.94092,8254
1659513972.985004,8266
1659513973.029089,8291
1659513973.073174,8330
1659513973.106493,8377
1659513973.139813,8426
1659513973.184239,8480
1659513973.228666,8553
1659513973.273092,8608
1659513973.311708,8668
1659513973.350325,8724
1659513973.388942,8782
1659513973.429438,8839
1659513973.469934,8894
1659513973.509918,8887
1659513973.549902,8733
1659513973.589885,8534
1659513973.62816,8437
1659513973.666435,8420
1659513973.70471,8419
1659513973.746232,8452
1659513973.787754,8465
1659513973.827395,8479
1659513973.867037,8477
1659513973.906679,8473
1659513973.948714,8491
1659513973.990747,8524
1659513974.029022,8569
1659513974.067297,8609
1659513974.105572,8652
1659513974.145214,8669
1659513974.184856,8699
1659513974.224498,8718
1659513974.265507,8756
1659513974.306516,8809
1659513974.345133,8846
1659513974.383749,8904
1659513974.422366,8833
1659513974.4644,8646
1659513974.506434,8483
1659513974.547956,8421
1659513974.589478,8410
1659513974.627411,8406
1659513974.665344,8426
1659513974.703277,8445
1659513974.748387,8435
1659513974.793497,8438
1659513974.838607,8476
1659513974.871926,8510
1659513974.905246,8571
1659513974.949331,8637
1659513974.993415,8688
1659513975.0375,8727
1659513975.0768,8771
1659513975.1161,8804
1659513975.1554,8838
1659513975.194359,8864
1659513975.233317,8896
1659513975.272276,8939
1659513975.312772,8980
1659513975.353268,8963
1659513975.392227,8800
1659513975.431185,8583
1659513975.470144,8451
1659513975.509102,8420
1659513975.54806,8379
1659513975.587019,8374
1659513975.628028,8407
1659513975.669037,8423
1659513975.707312,8420
1659513975.745587,8435
1659513975.783862,8476
1659513975.825383,8518
1659513975.866905,8577
1659513975.910989,8629
1659513975.955074,8685
1659513975.999158,8719
1659513976.032991,8757
1659513976.066823,8805
1659513976.111591,8866
1659513976.156359,8922
1659513976.201127,9003
1659513976.239744,9066
1659513976.278361,9130
1659513976.316978,9132
1659513976.359011,8988
1659513976.401046,8804
1659513976.440688,8703
1659513976.48033,8699
1659513976.519971,8699
1659513976.558246,8726
1659513976.596521,8754
1659513976.634796,8759
1659513976.676318,8760
1659513976.717839,8770
1659513976.756456,8789
1659513976.795073,8822
1659513976.833689,8852
1659513976.872306,8891
1659513976.910923,8927
1659513976.94954,8969
1659513976.991574,9004
1659513977.033608,9040
1659513977.072908,9067
1659513977.112208,9108
1659513977.151509,9149
1659513977.19303,9185
1659513977.234551,9150
1659513977.276586,8962
1659513977.31862,8775
1659513977.357578,8685
1659513977.396537,8652
1659513977.435495,8630
1659513977.479921,8638
1659513977.524348,8629
1659513977.568774,8630
1659513977.601581,8620
1659513977.634388,8629
1659513977.678815,8645
1659513977.723241,8694
1659513977.767667,8730
1659513977.802012,8783
1659513977.836357,8814
1659513977.8801,8855
1659513977.923843,8901
1659513977.967586,8943
1659513978.006202,8977
1659513978.044819,9020
1659513978.083436,9081
1659513978.12547,9130
1659513978.167504,9140
1659513978.206121,8977
1659513978.244737,8779
1659513978.283354,8660
1659513978.325388,8629
1659513978.367422,8607
1659513978.406723,8615
1659513978.446023,8641
1659513978.485323,8651
1659513978.523598,8671
1659513978.561873,8685
1659513978.600148,8709
1659513978.640644,8761
1659513978.68114,8816
1659513978.720441,8872
1659513978.759741,8933
1659513978.799041,8991
1659513978.840563,9049
1659513978.882084,9112
1659513978.920701,9167
1659513978.959317,9241
1659513978.997934,9300
1659513979.039456,9346
1659513979.080977,9326
1659513979.119252,9148
1659513979.157527,8975
1659513979.195802,8907
1659513979.240228,8870
1659513979.284655,8875
1659513979.329081,8901
1659513979.37214,8907
1659513979.4152,8900
1659513979.453816,8904
1659513979.492433,8930
1659513979.53105,8977
1659513979.572572,9038
1659513979.614093,9099
1659513979.653393,9162
1659513979.692693,9218
1659513979.731993,9280
1659513979.770952,9347
1659513979.809911,9382
1659513979.848869,9426
1659513979.889365,9470
1659513979.929862,9515
1659513979.969162,9525
1659513980.008462,9398
1659513980.047762,9160
1659513980.088771,8982
1659513980.12978,8909
1659513980.16908,8853
1659513980.20838,8816
1659513980.24768,8824
1659513980.289202,8823
1659513980.330724,8801
1659513980.372245,8780
1659513980.413766,8788
1659513980.455801,8800
1659513980.497835,8845
1659513980.536793,8852
1659513980.575752,8869
1659513980.61471,8899
1659513980.65401,8913
1659513980.69331,8947
1659513980.732611,8977
1659513980.77362,9012
1659513980.814628,9064
1659513980.853245,9117
1659513980.891862,9169
1659513980.930479,9177
1659513980.973025,9034
1659513981.015572,8814
1659513981.053847,8670
1659513981.092122,8610
1659513981.130397,8567
1659513981.169014,8555
1659513981.20763,8586
1659513981.246247,8597
1659513981.287769,8601
1659513981.32929,8619
1659513981.368249,8642
1659513981.407207,8684
1659513981.446166,8731
1659513981.487175,8766
1659513981.528183,8811
1659513981.57261,8850
1659513981.617036,8887
1659513981.661462,8939
1659513981.694269,8977
1659513981.727077,9021
1659513981.771503,9081
1659513981.815929,9121
1659513981.860355,9179
1659513981.894188,9199
1659513981.92802,9074
1659513981.972446,8856
1659513982.016873,8707
1659513982.061299,8642
1659513982.099574,8606
1659513982.137849,8584
1659513982.176124,8584
1659513982.217645,8580
1659513982.259167,8549
1659513982.298467,8547
1659513982.337767,8557
1659513982.377068,8609
1659513982.415684,8639
1659513982.454301,8695
1659513982.492918,8717
1659513982.534439,8764
1659513982.575961,8808
1659513982.615261,8843
1659513982.654561,8884
1659513982.693861,8917
1659513982.735895,8978
1659513982.77793,9025
1659513982.816546,9091
1659513982.855163,9081
1659513982.89378,8917
1659513982.935814,8709
1659513982.977848,8600
1659513983.016465,8550
1659513983.055081,8513
1659513983.093698,8515
1659513983.135732,8534
1659513983.177766,8552
1659513983.216725,8545
1659513983.255683,8542
1659513983.294642,8552
1659513983.338384,8569
1659513983.382127,8595
1659513983.42587,8619
1659513983.458165,8642
1659513983.490459,8678
1659513983.535227,8732
1659513983.579995,8782
1659513983.624763,8851
1659513983.658596,8936
1659513983.692428,9022
1659513983.736854,9127
1659513983.781281,9199
1659513983.825707,9237
1659513983.865007,9120
1659513983.904307,8878
1659513983.943608,8710
1659513983.985129,8602
1659513984.02665,8517
1659513984.064925,8453
1659513984.1032,8449
1659513984.141475,8426
1659513984.184022,8416
1659513984.226569,8427
1659513984.265186,8462
1659513984.303802,8511
1659513984.342419,8574
1659513984.380352,8623
1659513984.418286,8670
1659513984.456219,8710
1659513984.49774,8741
1659513984.539262,8751
1659513984.577878,8769
1659513984.616495,8789
1659513984.655112,8807
1659513984.696633,8851
1659513984.738155,8891
1659513984.777113,8877
1659513984.816072,8728
1659513984.85503,8539
1659513984.896552,8441
1659513984.938073,8404
1659513984.976348,8379
1659513985.014623,8379
1659513985.052898,8382
1659513985.097666,8372
1659513985.142434,8352
1659513985.187202,8361
1659513985.229749,8379
1659513985.272296,8435
1659513985.310229,8478
1659513985.348162,8522
1659513985.386096,8571
1659513985.427104,8614
1659513985.468113,8663
1659513985.50579,8703
1659513985.543467,8746
1659513985.581144,8781
1659513985.618821,8829
1659513985.657096,8877
1659513985.695371,8931
1659513985.733646,8852
1659513985.776193,8647
1659513985.818739,8472
1659513985.860774,8366
1659513985.902808,8321
1659513985.941424,8275
1659513985.980041,8269
1659513986.018658,8288
1659513986.063426,8291
1659513986.108194,8281
1659513986.152962,8302
1659513986.186794,8344
1659513986.220627,8399
1659513986.265053,8451
1659513986.309479,8509
1659513986.353906,8569
1659513986.387225,8623
1659513986.420545,8687
1659513986.465313,8727
1659513986.510081,8782
1659513986.554849,8845
1659513986.593124,8892
1659513986.631399,8959
1659513986.669674,9003
1659513986.711708,8927
1659513986.753742,8732
1659513986.792701,8593
1659513986.831659,8537
1659513986.870618,8528
1659513986.908893,8520
1659513986.947168,8533
1659513986.985443,8552
1659513987.026964,8539
1659513987.068486,8526
1659513987.107444,8542
1659513987.146403,8569
1659513987.185361,8596
1659513987.227395,8639
1659513987.269429,8673
1659513987.308046,8715
1659513987.346663,8754
1659513987.385279,8791
1659513987.426801,8829
1659513987.468323,8875
1659513987.507281,8918
1659513987.546239,8945
1659513987.585198,8901
1659513987.626719,8703
1659513987.668241,8516
1659513987.706516,8410
1659513987.744791,8363
1659513987.783066,8331
1659513987.827492,8333
1659513987.871918,8338
1659513987.916345,8324
1659513987.948639,8321
1659513987.980934,8323
1659513988.02536,8360
1659513988.069786,8398
1659513988.114213,8437
1659513988.156247,8492
1659513988.198281,8524
1659513988.237239,8565
1659513988.276198,8610
1659513988.315156,8640
1659513988.354115,8681
1659513988.393073,8732
1659513988.432032,8768
1659513988.474066,8816
1659513988.5161,8820
1659513988.555058,8649
1659513988.594017,8428
1659513988.632975,8291
1659513988.673984,8240
1659513988.714993,8189
1659513988.754293,8181
1659513988.793593,8195
1659513988.832894,8206
1659513988.870827,8219
1659513988.90876,8227
1659513988.946693,8254
1659513988.988727,8300
1659513989.030761,8347
1659513989.06972,8399
1659513989.108678,8454
1659513989.147637,8495
1659513989.189158,8536
1659513989.23068,8592
1659513989.269638,8636
1659513989.308597,8702
1659513989.347555,8753
1659513989.390102,8810
1659513989.432649,8846
1659513989.477075,8752
1659513989.521501,8553
1659513989.565928,8401
1659513989.598735,8346
1659513989.631542,8322
1659513989.67631,8306
1659513989.721078,8310
1659513989.765846,8305
1659513989.804463,8291
1659513989.84308,8280
1659513989.881696,8292
1659513989.923218,8325
1659513989.964739,8357
1659513990.004039,8390
1659513990.043339,8440
1659513990.08264,8462
1659513990.123649,8502
1659513990.164658,8532
1659513990.202591,8566
1659513990.240524,8603
1659513990.278457,8645
1659513990.317757,8685
1659513990.357058,8643
1659513990.396358,8458
1659513990.438392,8250
1659513990.480426,8143
1659513990.519043,8083
1659513990.55766,8044
1659513990.596276,8039
1659513990.635235,8053
1659513990.674193,8056
1659513990.713152,8066
1659513990.75416,8069
1659513990.795169,8097
1659513990.836691,8149
1659513990.878212,8191
1659513990.916829,8242
1659513990.955446,8285
1659513990.994063,8343
1659513991.038489,8379
1659513991.082915,8430
1659513991.127342,8474
1659513991.159636,8515
1659513991.191931,8569
1659513991.236357,8630
1659513991.280783,8681
1659513991.325209,8633
1659513991.358529,8422
1659513991.391849,8229
1659513991.436275,8139
1659513991.480701,8093
1659513991.525128,8064
1659513991.564428,8080
1659513991.603728,8106
1659513991.643028,8135
1659513991.685063,8138
1659513991.727097,8156
1659513991.765713,8204
1659513991.80433,8249
1659513991.842947,8305
1659513991.884981,8362
1659513991.927015,8421
1659513991.965974,8473
1659513992.004932,8545
1659513992.04389,8606
1659513992.082507,8695
1659513992.121124,8786
1659513992.15974,8866
1659513992.200749,8951
1659513992.241758,9004
1659513992.2814,8931
1659513992.321042,8680
1659513992.360684,8438
1659513992.402206,8298
1659513992.443727,8211
1659513992.482344,8160
1659513992.520961,8137
1659513992.559577,8120
1659513992.604345,8091
1659513992.649113,8076
1659513992.693882,8076
1659513992.728226,8107
1659513992.762571,8136
1659513992.806656,8167
1659513992.85074,8208
1659513992.894825,8241
1659513992.928145,8282
1659513992.961465,8323
1659513993.005891,8372
1659513993.050317,8425
1659513993.094743,8477
1659513993.133018,8528
1659513993.171293,8578
1659513993.209569,8496
1659513993.251602,8283
1659513993.293637,8114
1659513993.332595,8015
1659513993.371553,7982
1659513993.410512,7956
1659513993.448445,7962
1659513993.486378,7977
1659513993.524312,7980
1659513993.56532,7984
1659513993.606329,8006
1659513993.64563,8038
1659513993.68493,8080
1659513993.72423,8141
1659513993.765752,8194
1659513993.807273,8254
1659513993.846231,8317
1659513993.88519,8373
1659513993.924149,8423
1659513993.966182,8491
1659513994.008217,8530
1659513994.046492,8568
1659513994.084767,8608
1659513994.123042,8538
1659513994.165076,8304
1659513994.20711,8078
1659513994.246068,7952
1659513994.285027,7886
1659513994.323985,7880
1659513994.36807,7875
1659513994.412154,7911
1659513994.456239,7957
1659513994.497248,8009
1659513994.538257,8097
1659513994.577557,8207
1659513994.616857,8330
1659513994.656157,8417
1659513994.694432,8492
1659513994.732707,8547
1659513994.770982,8609
1659513994.813016,8679
1659513994.855051,8760
1659513994.894351,8844
1659513994.933651,8903
1659513994.972951,8949
1659513995.014472,8930
1659513995.055994,8774
1659513995.096388,8605
1659513995.136782,8550
1659513995.177175,8556
1659513995.217569,8552
1659513995.257963,8549
1659513995.298972,8520
1659513995.339981,8459
1659513995.378597,8366
1659513995.417214,8312
1659513995.455831,8271
1659513995.494789,8254
1659513995.533748,8233
1659513995.572706,8248
1659513995.615253,8289
1659513995.6578,8305
1659513995.696075,8332
1659513995.73435,8369
1659513995.772624,8410
1659513995.814659,8470
1659513995.856693,8536
1659513995.895651,8501
1659513995.93461,8333
1659513995.973568,8162
1659513996.015602,8089
1659513996.057636,8076
1659513996.096253,8055
1659513996.13487,8077
1659513996.173487,8089
1659513996.215521,8115
1659513996.257555,8116
1659513996.296172,8141
1659513996.334788,8170
1659513996.373405,8216
1659513996.41749,8280
1659513996.461574,8327
1659513996.505659,8374
1659513996.538978,8395
1659513996.572298,8445
1659513996.616041,8468
1659513996.659784,8518
1659513996.703527,8562
1659513996.744535,8528
1659513996.785544,8372
1659513996.824503,8188
1659513996.863461,8105
1659513996.90242,8082
1659513996.941378,8081
1659513996.980337,8118
1659513997.019295,8190
1659513997.060817,8263
1659513997.102338,8365
1659513997.140955,8457
1659513997.179572,8559
1659513997.218188,8681
1659513997.257488,8765
1659513997.296789,8858
1659513997.336089,8960
1659513997.37761,9053
1659513997.419132,9131
1659513997.45809,9202
1659513997.497049,9268
1659513997.536007,9317
1659513997.577529,9352
1659513997.61905,9307
1659513997.656984,9107
1659513997.694917,8869
1659513997.73285,8724
1659513997.774884,8648
1659513997.816918,8583
1659513997.856218,8563
1659513997.895519,8566
1659513997.934819,8555
1659513997.975315,8526
1659513998.015811,8534
1659513998.06058,8543
1659513998.105348,8578
1659513998.150115,8609
1659513998.189416,8643
1659513998.228716,8664
1659513998.268016,8687
1659513998.309538,8701
1659513998.351059,8711
1659513998.390018,8745
1659513998.428976,8770
1659513998.467935,8796
1659513998.510481,8823
1659513998.553028,8793
1659513998.591303,8612
1659513998.629578,8427
1659513998.667853,8301
1659513998.70647,8227
1659513998.745086,8183
1659513998.783703,8163
1659513998.826762,8155
1659513998.869822,8142
1659513998.907755,8130
1659513998.945688,8134
1659513998.983621,8163
1659513999.024118,8208
1659513999.064614,8249
1659513999.104256,8283
1659513999.143898,8306
1659513999.18354,8341
1659513999.221815,8365
1659513999.26009,8389
1659513999.298365,8418
1659513999.340911,8456
1659513999.383458,8495
1659513999.422075,8529
1659513999.460692,8526
1659513999.499308,8389
1659513999.54083,8217
1659513999.582351,8111
1659513999.626094,8072
1659513999.669837,8062
1659513999.71358,8075
1659513999.747925,8078
1659513999.78227,8073
1659513999.826354,8060
1659513999.870439,8065
1659513999.914523,8103
1659513999.946818,8127
1659513999.979112,8173
1659514000.023539,8213
1659514000.067965,8251
1659514000.112391,8298
1659514000.150666,8348
1659514000.188941,8381
1659514000.227216,8409
1659514000.268738,8451
1659514000.310259,8498
1659514000.34956,8553
1659514000.38886,8562
1659514000.42816,8443
1659514000.466777,8247
1659514000.505393,8133
1659514000.54401,8083
1659514000.585531,8061
1659514000.627053,8049
1659514000.666353,8084
1659514000.705653,8144
1659514000.744954,8180
1659514000.786475,8210
1659514000.827997,8237
1659514000.866272,8284
1659514000.904547,8319
1659514000.942822,8354
1659514000.984343,8394
1659514001.025865,8412
1659514001.065165,8430
1659514001.104465,8427
1659514001.143765,8422
1659514001.185287,8448
1659514001.226808,8485
1659514001.268586,8527
1659514001.310364,8601
1659514001.352142,8630
1659514001.393919,8526
1659514001.432878,8387
1659514001.471836,8327
1659514001.510795,8318
1659514001.552316,8296
1659514001.593838,8286
1659514001.633138,8275
1659514001.672438,8231
1659514001.711739,8197
1659514001.750697,8191
1659514001.789655,8222
1659514001.828614,8287
1659514001.870135,8399
1659514001.911657,8489
1659514001.950274,8598
1659514001.98889,8690
1659514002.027507,8782
1659514002.068516,8880
1659514002.109525,8983
1659514002.148142,9088
1659514002.186758,9186
1659514002.225375,9167
1659514002.267409,9018
1659514002.309443,8917
1659514002.353528,8884
1659514002.397612,8891
1659514002.441697,8893
1659514002.475017,8912
1659514002.508336,8878
1659514002.552421,8825
1659514002.596505,8762
1659514002.64059,8708
1659514002.679549,8682
1659514002.718507,8656
1659514002.757465,8647
1659514002.7995,8638
1659514002.841534,8658
1659514002.880492,8684
1659514002.919451,8747
1659514002.958409,8788
1659514002.997026,8853
1659514003.035642,8946
1659514003.074259,9012
1659514003.115268,8945
1659514003.156277,8756
1659514003.194894,8601
1659514003.23351,8542
1659514003.272127,8541
1659514003.313649,8560
1659514003.35517,8591
1659514003.393787,8611
1659514003.432404,8584
1659514003.47102,8552
1659514003.508954,8511
1659514003.546887,8496
1659514003.58482,8496
1659514003.627879,8494
1659514003.670939,8505
1659514003.709897,8532
1659514003.748856,8564
1659514003.787814,8590
1659514003.828823,8644
1659514003.869832,8679
1659514003.914942,8717
1659514003.960052,8737
1659514004.005161,8615
1659514004.038994,8428
1659514004.072826,8322
1659514004.117252,8309
1659514004.161679,8320
1659514004.206105,8366
1659514004.238912,8403
1659514004.271719,8422
1659514004.316487,8427
1659514004.361255,8444
1659514004.406023,8465
1659514004.443956,8481
1659514004.48189,8502
1659514004.519823,8530
1659514004.56237,8569
1659514004.604916,8585
1659514004.643875,8625
1659514004.682833,8659
1659514004.721792,8696
1659514004.763313,8723
1659514004.804835,8694
1659514004.843793,8501
1659514004.882752,8287
1659514004.92171,8175
1659514004.96101,8118
1659514005.00031,8114
1659514005.039611,8135
1659514005.081132,8175
1659514005.122654,8222
1659514005.161612,8269
1659514005.200571,8336
1659514005.239529,8447
1659514005.281051,8566
1659514005.322572,8666
1659514005.360847,8734
1659514005.399122,8758
1659514005.437397,8757
1659514005.479431,8766
1659514005.521465,8787
1659514005.560424,8801
1659514005.599382,8822
1659514005.638341,8811
1659514005.678837,8685
1659514005.719333,8391
1659514005.758292,8120
1659514005.79725,7993
1659514005.836209,7897
1659514005.880635,7834
1659514005.925061,7837
1659514005.969487,7828
1659514006.011522,7827
1659514006.053556,7837
1659514006.092172,7870
1659514006.130789,7928
1659514006.169406,8003
1659514006.21144,8052
1659514006.253474,8105
1659514006.291749,8153
1659514006.330024,8191
1659514006.368299,8237
1659514006.406574,8281
1659514006.444849,8329
1659514006.483124,8375
1659514006.525671,8449
1659514006.568218,8425
1659514006.609483,8250
1659514006.650748,8063
1659514006.692013,7973
1659514006.733278,7940
1659514006.772237,7924
1659514006.811195,7939
1659514006.850154,7931
1659514006.891675,7917
1659514006.933197,7918
1659514006.972155,7925
1659514007.011114,7979
1659514007.050072,8044
1659514007.088689,8135
1659514007.127306,8215
1659514007.165922,8272
1659514007.208469,8316
1659514007.251016,8356
1659514007.290316,8401
1659514007.329616,8436
1659514007.368916,8489
1659514007.409925,8519
1659514007.450934,8454
1659514007.489892,8225
1659514007.528851,8034
1659514007.567809,7931
1659514007.606768,7868
1659514007.645726,7835
1659514007.684685,7855
1659514007.726206,7877
1659514007.767728,7878
1659514007.806686,7876
1659514007.845645,7883
1659514007.884603,7942
1659514007.926125,8036
1659514007.967646,8125
1659514008.005921,8192
1659514008.044196,8259
1659514008.082471,8300
1659514008.124505,8333
1659514008.166539,8359
1659514008.211307,8381
1659514008.256075,8437
1659514008.300843,8489
1659514008.33946,8539
1659514008.378077,8472
1659514008.416694,8316
1659514008.458215,8206
1659514008.499737,8185
1659514008.538695,8174
1659514008.577653,8184
1659514008.616612,8219
1659514008.655229,8229
1659514008.693846,8242
1659514008.732462,8253
1659514008.773471,8284
1659514008.81448,8335
1659514008.853438,8401
1659514008.892397,8468
1659514008.931355,8513
1659514008.971852,8566
1659514009.012348,8592
1659514009.051648,8624
1659514009.090948,8648
1659514009.130249,8683
1659514009.169207,8735
1659514009.208165,8797
1659514009.247124,8856
1659514009.288133,8793
1659514009.329142,8595
1659514009.3681,8414
1659514009.407058,8322
1659514009.446017,8290
1659514009.488564,8290
1659514009.531111,8327
1659514009.575537,8365
1659514009.619963,8384
1659514009.664389,8438
1659514009.696684,8523
1659514009.728978,8592
1659514009.773746,8647
1659514009.818515,8683
1659514009.863282,8719
1659514009.89609,8747
1659514009.928897,8765
1659514009.97264,8786
1659514010.016382,8798
1659514010.060125,8830
1659514010.099426,8858
1659514010.138726,8916
1659514010.178026,8939
1659514010.219035,8909
1659514010.260044,8704
1659514010.299002,8457
1659514010.33796,8330
1659514010.376919,8291
1659514010.419466,8275
1659514010.462013,8288
1659514010.500971,8317
1659514010.539929,8327
1659514010.578888,8334
1659514010.617505,8349
1659514010.656121,8377
1659514010.694738,8443
1659514010.736772,8493
1659514010.778806,8538
1659514010.817423,8588
1659514010.85604,8634
1659514010.894656,8665
1659514010.933273,8704
1659514010.97189,8740
1659514011.010506,8772
1659514011.052541,8806
1659514011.094575,8711
1659514011.136096,8499
1659514011.177618,8330
1659514011.215893,8270
1659514011.254168,8262
1659514011.292443,8278
1659514011.337211,8306
1659514011.381979,8316
1659514011.426747,8320
1659514011.460067,8304
1659514011.493386,8337
1659514011.537813,8381
1659514011.582239,8439
1659514011.626665,8483
1659514011.665624,8544
1659514011.704582,8589
1659514011.743541,8645
1659514011.785062,8684
1659514011.826584,8728
1659514011.864859,8783
1659514011.903134,8831
1659514011.941408,8857
1659514011.980709,8723
1659514012.020009,8507
1659514012.059309,8368
1659514012.100318,8334
1659514012.141327,8294
1659514012.179944,8276
1659514012.21856,8293
1659514012.257177,8291
1659514012.29511,8277
1659514012.333044,8272
1659514012.370977,8284
1659514012.413523,8307
1659514012.45607,8364
1659514012.497592,8405
1659514012.539113,8447
1659514012.577388,8492
1659514012.615663,8537
1659514012.653938,8581
1659514012.698706,8625
1659514012.743474,8677
1659514012.788242,8728
1659514012.822587,8782
1659514012.856932,8745
1659514012.901017,8565
1659514012.945101,8413
1659514012.989186,8345
1659514013.022506,8333
1659514013.055825,8318
1659514013.100252,8328
1659514013.144678,8356
1659514013.189104,8356
1659514013.227379,8352
1659514013.265654,8372
1659514013.303929,8412
1659514013.346476,8452
1659514013.389023,8507
1659514013.427981,8546
1659514013.46694,8598
1659514013.505898,8642
1659514013.543831,8684
1659514013.581764,8719
1659514013.619698,8768
1659514013.662245,8816
1659514013.704791,8859
1659514013.74375,8851
1659514013.782708,8700
1659514013.821666,8534
1659514013.863188,8451
1659514013.90471,8437
1659514013.94401,8435
1659514013.98331,8455
1659514014.02261,8471
1659514014.064132,8473
1659514014.105653,8462
1659514014.143586,8473
1659514014.18152,8509
1659514014.219453,8537
1659514014.262,8580
1659514014.304546,8612
1659514014.343505,8662
1659514014.382463,8699
1659514014.421422,8754
1659514014.465165,8779
1659514014.508907,8814
1659514014.55265,8868
1659514014.593659,8905
1659514014.634668,8945
1659514014.67431,8887
1659514014.713952,8704
1659514014.753594,8534
1659514014.795115,8467
1659514014.836637,8427
1659514014.875595,8406
1659514014.914554,8416
1659514014.953512,8422
1659514014.992471,8428
1659514015.031429,8406
1659514015.070388,8417
1659514015.111397,8436
1659514015.152405,8488
1659514015.19068,8521
1659514015.228955,8571
1659514015.26723,8611
1659514015.309777,8648
1659514015.352324,8694
1659514015.390599,8728
1659514015.428874,8775
1659514015.467149,8820
1659514015.505765,8867
1659514015.544382,8924
1659514015.582999,8980
1659514015.62452,8996
1659514015.666042,8866
1659514015.705,8669
1659514015.743959,8544
1659514015.782917,8494
1659514015.823926,8476
1659514015.864935,8464
1659514015.904235,8471
1659514015.943535,8487
1659514015.982836,8479
1659514016.024357,8479
1659514016.065879,8506
1659514016.110647,8537
1659514016.155415,8589
1659514016.200183,8646
1659514016.234015,8694
1659514016.267848,8733
1659514016.312274,8784
1659514016.3567,8827
1659514016.401126,8887
1659514016.439401,8917
1659514016.477676,8962
1659514016.515951,9011
1659514016.557473,9058
1659514016.598994,9105
1659514016.638294,9117
1659514016.677595,8979
1659514016.716895,8761
1659514016.757904,8649
1659514016.798913,8610
1659514016.837529,8587
1659514016.876146,8593
1659514016.914763,8595
1659514016.954405,8586
1659514016.994047,8569
1659514017.033689,8560
1659514017.07521,8578
1659514017.116732,8610
1659514017.15569,8648
1659514017.194649,8689
1659514017.233607,8734
1659514017.275641,8772
1659514017.317675,8821
1659514017.356634,8844
1659514017.395592,8879
1659514017.434551,8920
1659514017.476585,8967
1659514017.518619,9004
1659514017.557577,9050
1659514017.596536,9101
1659514017.635494,9048
1659514017.676503,8846
1659514017.717512,8631
1659514017.755445,8534
1659514017.793379,8501
1659514017.831312,8464
1659514017.875738,8462
1659514017.920164,8476
1659514017.964591,8461
1659514017.998423,8448
1659514018.032255,8463
1659514018.07634,8474
1659514018.120425,8516
1659514018.164509,8571
1659514018.203467,8610
1659514018.242426,8648
1659514018.281384,8700
1659514018.322906,8745
1659514018.364427,8801
1659514018.402702,8852
1659514018.440977,8908
1659514018.479252,8960
1659514018.518553,9013
1659514018.557853,9074
1659514018.597153,9106
1659514018.639187,8983
1659514018.681221,8771
1659514018.719154,8630
1659514018.757088,8587
1659514018.795021,8574
1659514018.837055,8572
1659514018.879089,8583
1659514018.917706,8595
1659514018.956322,8582
1659514018.994939,8581
1659514019.036461,8604
1659514019.077982,8633
1659514019.117624,8680
1659514019.157266,8721
1659514019.196908,8779
1659514019.23843,8815
1659514019.279951,8865
1659514019.318568,8892
1659514019.357185,8925
1659514019.395801,8969
1659514019.440911,9017
1659514019.486021,9067
1659514019.531131,9095
1659514019.564963,9011
1659514019.598795,8811
1659514019.642538,8666
1659514019.686281,8612
1659514019.730024,8592
1659514019.768982,8598
1659514019.807941,8617
1659514019.846899,8621
1659514019.887908,8610
1659514019.928917,8615
1659514019.967875,8617
1659514020.006834,8664
1659514020.045792,8692
1659514020.087314,8712
1659514020.128835,8756
1659514020.167794,8814
1659514020.206752,8892
1659514020.245711,8958
1659514020.284328,8986
1659514020.322944,9009
1659514020.361561,9034
1659514020.403595,9062
1659514020.445629,9054
1659514020.484929,8902
1659514020.52423,8689
1659514020.56353,8568
1659514020.604539,8542
1659514020.645547,8530
1659514020.684506,8529
1659514020.723464,8541
1659514020.762423,8532
1659514020.80497,8529
1659514020.847516,8514
1659514020.885791,8536
1659514020.924066,8573
1659514020.962341,8614
1659514021.002837,8665
1659514021.043334,8723
1659514021.08776,8772
1659514021.132186,8828
1659514021.176613,8884
1659514021.214888,8929
1659514021.253163,8984
1659514021.291438,9017
1659514021.333472,9053
1659514021.375506,9042
1659514021.414806,8884
1659514021.454106,8671
1659514021.493407,8536
1659514021.534415,8476
1659514021.575424,8444
1659514021.614041,8453
1659514021.652658,8478
1659514021.691274,8480
1659514021.730233,8475
1659514021.769191,8475
1659514021.80815,8489
1659514021.850184,8521
1659514021.892218,8558
1659514021.930835,8591
1659514021.969451,8639
1659514022.008068,8675
1659514022.046685,8719
1659514022.085302,8770
1659514022.123918,8808
1659514022.16544,8849
1659514022.206961,8890
1659514022.245236,8944
1659514022.283511,8955
1659514022.321786,8856
1659514022.36382,8642
1659514022.405854,8501
1659514022.450623,8439
1659514022.495391,8404
1659514022.540159,8389
1659514022.573478,8401
1659514022.606798,8420
1659514022.651224,8410
1659514022.695651,8423
1659514022.740077,8446
1659514022.774422,8481
1659514022.808767,8531
1659514022.853193,8570
1659514022.897619,8622
1659514022.942046,8664
1659514022.980663,8709
1659514023.019279,8756
1659514023.057896,8812
1659514023.099417,8852
1659514023.140939,8914
1659514023.179556,8963
1659514023.218172,9016
1659514023.256789,9070
1659514023.298823,9048
1659514023.340858,8872
1659514023.379816,8691
1659514023.418774,8609
1659514023.457733,8572
1659514023.496008,8560
1659514023.534283,8561
1659514023.572558,8574
1659514023.613567,8558
1659514023.654576,8543
1659514023.694559,8544
1659514023.734543,8577
1659514023.774527,8601
1659514023.815535,8634
1659514023.856544,8672
1659514023.894819,8705
1659514023.933094,8749
1659514023.971369,8770
1659514024.013403,8806
1659514024.055438,8864
1659514024.094396,8892
1659514024.133354,8942
1659514024.172313,8987
1659514024.212809,9010
1659514024.253305,8877
1659514024.291922,8675
1659514024.330539,8531
1659514024.369156,8464
1659514024.413582,8435
1659514024.458008,8413
1659514024.502434,8431
1659514024.535242,8419
1659514024.568049,8422
1659514024.612475,8412
1659514024.656901,8437
1659514024.701328,8475
1659514024.740286,8517
1659514024.779245,8565
1659514024.818203,8609
1659514024.859212,8653
1659514024.900221,8707
1659514024.939521,8745
1659514024.978821,8792
1659514025.018121,8849
1659514025.060155,8906
1659514025.10219,8957
1659514025.140806,9027
1659514025.179423,9084
1659514025.21804,9120
1659514025.256998,9010
1659514025.295957,8803
1659514025.334915,8646
1659514025.376437,8571
1659514025.417958,8515
1659514025.456233,8476
1659514025.494508,8491
1659514025.532783,8500
1659514025.574817,8510
1659514025.616851,8514
1659514025.655468,8540
1659514025.694085,8595
1659514025.732702,8650
1659514025.774223,8704
1659514025.815744,8757
1659514025.854703,8794
1659514025.893661,8838
1659514025.93262,8883
1659514025.975167,8904
1659514026.017713,8943
1659514026.06214,8977
1659514026.106566,9023
1659514026.150992,9063
1659514026.189951,9110
1659514026.228909,9013
1659514026.267868,8832
1659514026.306826,8700
1659514026.345784,8645
1659514026.384743,8632
1659514026.425239,8637
1659514026.465735,8652
1659514026.504352,8663
1659514026.542969,8655
1659514026.581586,8654
1659514026.624132,8672
1659514026.666679,8715
1659514026.705296,8759
1659514026.743912,8811
1659514026.782529,8850
1659514026.820804,8899
1659514026.859079,8944
1659514026.897354,8977
1659514026.938876,9019
1659514026.980397,9061
1659514027.020039,9108
1659514027.059681,9150
1659514027.099323,9219
1659514027.140332,9242
1659514027.181341,9150
1659514027.219958,8934
1659514027.258574,8765
1659514027.297191,8691
1659514027.339225,8648
1659514027.381259,8615
1659514027.419876,8613
1659514027.458493,8629
1659514027.497109,8614
1659514027.541194,8610
1659514027.585279,8613
1659514027.629363,8645
1659514027.666271,8698
1659514027.703179,8734
1659514027.740087,8788
1659514027.776995,8832
1659514027.818517,8883
1659514027.860038,8922
1659514027.90156,8985
1659514027.943081,9031
1659514027.985628,9070
1659514028.028175,9137
1659514028.066791,9195
1659514028.105408,9231
1659514028.144025,9125
1659514028.183325,8925
1659514028.222625,8787
1659514028.261925,8734
1659514028.303959,8717
1659514028.345994,8710
1659514028.384269,8728
1659514028.422544,8729
1659514028.460819,8717
1659514028.502853,8701
1659514028.544887,8712
1659514028.584187,8742
1659514028.623487,8774
1659514028.662787,8816
1659514028.703796,8848
1659514028.744805,8890
1659514028.783422,8920
1659514028.822039,8957
1659514028.860655,8990
1659514028.903202,9030
1659514028.945749,9092
1659514028.989833,9121
1659514029.033918,9062
1659514029.078002,8864
1659514029.116619,8691
1659514029.155236,8606
1659514029.193853,8580
1659514029.236399,8562
1659514029.278946,8569
1659514029.317904,8578
1659514029.356863,8566
1659514029.395821,8547
1659514029.437343,8566
1659514029.478864,8598
1659514029.518506,8630
1659514029.558148,8687
1659514029.59779,8723
1659514029.636065,8760
1659514029.67434,8812
1659514029.712615,8852
1659514029.753111,8896
1659514029.793608,8943
1659514029.832566,8993
1659514029.871525,9036
1659514029.910483,9079
1659514029.949442,8990
1659514029.9884,8769
1659514030.027359,8584
1659514030.068367,8503
1659514030.109376,8455
1659514030.147993,8409
1659514030.18661,8417
1659514030.225226,8425
1659514030.266748,8416
1659514030.30827,8417
1659514030.347228,8433
1659514030.386186,8465
1659514030.425145,8511
1659514030.466666,8573
1659514030.508188,8610
1659514030.552956,8654
1659514030.597724,8703
1659514030.642492,8741
1659514030.675299,8776
1659514030.708106,8830
1659514030.752532,8878
1659514030.796959,8936
1659514030.841385,9035
1659514030.880685,9132
1659514030.919986,9142
1659514030.959286,8962
1659514030.999782,8802
1659514031.040278,8738
1659514031.079237,8720
1659514031.118195,8704
1659514031.157154,8700
1659514031.198675,8698
1659514031.240197,8639
1659514031.279155,8551
1659514031.318114,8511
1659514031.357072,8480
1659514031.39603,8460
1659514031.434989,8447
1659514031.473948,8452
1659514031.515469,8466
1659514031.55699,8492
1659514031.596291,8524
1659514031.635591,8564
1659514031.674891,8606
1659514031.716413,8659
1659514031.757934,8688
1659514031.797234,8694
1659514031.836535,8575
1659514031.875835,8345
1659514031.917356,8193
1659514031.958878,8124
1659514031.997494,8102
1659514032.036111,8104
1659514032.074728,8138
1659514032.116762,8160
1659514032.158796,8158
1659514032.198096,8168
1659514032.237396,8191
1659514032.276697,8243
1659514032.320439,8289
1659514032.364182,8347
1659514032.407925,8395
1659514032.441245,8456
1659514032.474565,8502
1659514032.519333,8549
1659514032.564101,8607
1659514032.608869,8658
1659514032.647485,8720
1659514032.686102,8779
1659514032.724719,8823
1659514032.766753,8713
1659514032.808787,8519
1659514032.848087,8375
1659514032.887388,8319
1659514032.926688,8312
1659514032.964621,8298
1659514033.002554,8327
1659514033.040487,8349
1659514033.079446,8366
1659514033.118404,8372
1659514033.157363,8423
1659514033.197859,8471
1659514033.238355,8527
1659514033.279877,8601
1659514033.321398,8660
1659514033.360015,8724
1659514033.398632,8786
1659514033.437248,8855
1659514033.481675,8913
1659514033.526101,8981
1659514033.570527,9054
1659514033.602822,9126
1659514033.635116,9190
1659514033.679884,9187
1659514033.724653,9032
1659514033.769421,8842
1659514033.803253,8760
1659514033.837085,8745
1659514033.881511,8741
1659514033.925938,8763
1659514033.970364,8777
1659514034.009323,8772
1659514034.048281,8763
1659514034.08724,8775
1659514034.128761,8801
1659514034.170283,8838
1659514034.208899,8888
1659514034.247516,8926
1659514034.286133,8969
1659514034.326629,9019
1659514034.367125,9054
1659514034.406425,9093
1659514034.445726,9146
1659514034.485026,9191
1659514034.523301,9240
1659514034.561576,9284
1659514034.599851,9213
1659514034.642397,8992
1659514034.684944,8798
1659514034.724244,8704
1659514034.763545,8652
1659514034.802845,8633
1659514034.843854,8641
1659514034.884863,8653
1659514034.923821,8647
1659514034.96278,8644
1659514035.001738,8655
1659514035.044285,8694
1659514035.086832,8746
1659514035.12579,8797
1659514035.164748,8854
1659514035.203707,8901
1659514035.244716,8957
1659514035.285725,9008
1659514035.324683,9065
1659514035.363642,9106
1659514035.4026,9164
1659514035.446685,9225
1659514035.490769,9287
1659514035.534854,9325
1659514035.576375,9229
1659514035.617897,9000
1659514035.656855,8825
1659514035.695814,8744
1659514035.734772,8704
1659514035.776294,8677
1659514035.817815,8691
1659514035.856432,8723
1659514035.895049,8729
1659514035.933665,8732
1659514035.972624,8762
1659514036.011582,8796
1659514036.050541,8861
1659514036.092575,8911
1659514036.134609,8972
1659514036.173226,9040
1659514036.211842,9103
1659514036.250459,9163
1659514036.289418,9231
1659514036.328376,9309
1659514036.367334,9377
1659514036.408343,9455
1659514036.449352,9521
1659514036.487969,9589
1659514036.526586,9555
1659514036.565202,9375
1659514036.607236,9200
1659514036.649271,9128
1659514036.687887,9102
1659514036.726504,9089
1659514036.765121,9118
1659514036.80613,9119
1659514036.847138,9114
1659514036.891223,9106
1659514036.935308,9108
1659514036.979392,9138
1659514037.013225,9179
1659514037.047057,9220
1659514037.091483,9255
1659514037.13591,9303
1659514037.180336,9344
1659514037.218952,9387
1659514037.257569,9427
1659514037.296186,9460
1659514037.337708,9511
1659514037.379229,9544
1659514037.418187,9578
1659514037.457146,9534
1659514037.496104,9336
1659514037.537626,9107
1659514037.579147,8994
1659514037.618106,8953
1659514037.657064,8914
1659514037.696023,8916
1659514037.734981,8920
1659514037.77394,8906
1659514037.812898,8896
1659514037.853907,8901
1659514037.894916,8936
1659514037.934558,8963
1659514037.9742,9010
1659514038.013842,9056
1659514038.055876,9115
1659514038.09791,9156
1659514038.136868,9198
1659514038.175827,9241
1659514038.214785,9291
1659514038.253744,9339
1659514038.292702,9389
1659514038.331661,9454
1659514038.376087,9502
1659514038.420513,9479
1659514038.46494,9278
1659514038.506461,9068
1659514038.547983,8965
1659514038.586941,8914
1659514038.6259,8882
1659514038.664858,8879
1659514038.705867,8897
1659514038.746876,8899
1659514038.784809,8897
1659514038.822742,8904
1659514038.860676,8944
1659514038.899634,9001
1659514038.938592,9062
1659514038.977551,9134
1659514039.019585,9177
1659514039.061619,9241
1659514039.099894,9299
1659514039.138169,9363
1659514039.176444,9416
1659514039.215744,9475
1659514039.255044,9549
1659514039.294345,9611
1659514039.335866,9673
1659514039.377388,9618
1659514039.416004,9416
1659514039.454621,9229
1659514039.493238,9138
1659514039.535272,9096
1659514039.577306,9074
1659514039.615923,9085
1659514039.654539,9086
1659514039.693156,9068
1659514039.733652,9052
1659514039.774149,9061
1659514039.818575,9083
1659514039.863001,9121
1659514039.907428,9161
1659514039.94126,9216
1659514039.975092,9249
1659514040.018835,9292
1659514040.062578,9347
1659514040.106321,9388
1659514040.144938,9437
1659514040.183554,9482
1659514040.222171,9528
1659514040.264205,9575
1659514040.306239,9517
1659514040.344856,9308
1659514040.383473,9099
1659514040.422089,8980
1659514040.464636,8930
1659514040.507183,8903
1659514040.546483,8894
1659514040.585783,8903
1659514040.625083,8901
1659514040.6637,8885
1659514040.702317,8888
1659514040.740933,8933
1659514040.781942,8984
1659514040.822951,9037
1659514040.862593,9099
1659514040.902235,9147
1659514040.941877,9198
1659514040.980494,9253
1659514041.01911,9298
1659514041.057727,9347
1659514041.098736,9391
1659514041.139745,9435
1659514041.178704,9477
1659514041.217662,9523
1659514041.25662,9429
1659514041.299167,9234
1659514041.341714,9070
1659514041.382723,8986
1659514041.423732,8906
1659514041.46269,8829
1659514041.501649,8784
1659514041.540607,8734
1659514041.585375,8705
1659514041.630143,8671
1659514041.674911,8696
1659514041.708744,8719
1659514041.742576,8744
1659514041.787002,8759
1659514041.831429,8758
1659514041.875855,8752
1659514041.909174,8752
1659514041.942494,8749
1659514041.986237,8738
1659514042.02998,8732
1659514042.073723,8729
1659514042.112339,8733
1659514042.150956,8700
1659514042.189573,8483
1659514042.231607,8259
1659514042.273641,8136
1659514042.312258,8071
1659514042.350875,8042
1659514042.389491,8050
1659514042.428108,8047
1659514042.466725,8010
1659514042.505342,7993
1659514042.547375,7979
1659514042.58941,8013
1659514042.628026,8044
1659514042.666643,8095
1659514042.70526,8149
1659514042.746781,8209
1659514042.788303,8262
1659514042.827945,8303
1659514042.867587,8361
1659514042.907229,8422
1659514042.947725,8492
1659514042.988221,8537
1659514043.026155,8492
1659514043.064088,8321
1659514043.102021,8155
1659514043.14508,8084
1659514043.18814,8069
1659514043.226415,8066
1659514043.264689,8094
1659514043.302964,8128
1659514043.347049,8132
1659514043.391134,8153
1659514043.435218,8178
1659514043.472895,8210
1659514043.510572,8257
1659514043.548249,8285
1659514043.585926,8339
1659514043.627447,8376
1659514043.668969,8429
1659514043.708269,8472
1659514043.747569,8512
1659514043.78687,8558
1659514043.829416,8596
1659514043.871963,8657
1659514043.91058,8697
1659514043.949196,8660
1659514043.987813,8468
1659514044.029847,8276
1659514044.071881,8173
1659514044.11084,8111
1659514044.149798,8070
1659514044.188757,8046
1659514044.232841,8051
1659514044.276926,8032
1659514044.32101,7996
1659514044.362532,7982
1659514044.404053,7983
1659514044.443354,7991
1659514044.482654,7988
1659514044.521954,7991
1659514044.560229,7995
1659514044.598504,8031
1659514044.636779,8052
1659514044.678813,8080
1659514044.720847,8130
1659514044.759806,8154
1659514044.798764,8206
1659514044.837723,8249
1659514044.879244,8256
1659514044.920766,8105
1659514044.959382,7926
1659514044.997999,7815
1659514045.036616,7780
1659514045.075916,7751
1659514045.115216,7736
1659514045.154516,7695
