LocalTimestamp,PG
1659443479.863331,9559
1659443479.902246,9842
1659443479.941161,9994
1659443479.982636,10176
1659443480.024111,10344
1659443480.068487,10508
1659443480.112864,10635
1659443480.157241,10889
1659443480.195814,11214
1659443480.234388,11485
1659443480.272961,11679
1659443480.31546,11793
1659443480.357959,11886
1659443480.396191,11970
1659443480.434423,12035
1659443480.472656,12048
1659443480.513618,12061
1659443480.554581,12115
1659443480.593155,12194
1659443480.631728,12271
1659443480.670302,12344
1659443480.709217,12441
1659443480.748131,12529
1659443480.787046,12599
1659443480.828521,12654
1659443480.869996,12734
1659443480.90857,12808
1659443480.947143,12867
1659443480.985717,12912
1659443481.027704,12937
1659443481.069691,12952
1659443481.111678,12968
1659443481.153665,12989
1659443481.194628,12990
1659443481.235591,12994
1659443481.275188,13049
1659443481.314786,13107
1659443481.354383,13152
1659443481.395346,13216
1659443481.436309,13281
1659443481.475224,13317
1659443481.514139,13358
1659443481.553054,13405
1659443481.59231,13455
1659443481.631566,13514
1659443481.670822,13572
1659443481.711785,13633
1659443481.752748,13686
1659443481.790639,13743
1659443481.82853,13774
1659443481.86642,13775
1659443481.909431,13751
1659443481.952443,13758
1659443481.991357,13798
1659443482.030272,13856
1659443482.069187,13900
1659443482.108102,13939
1659443482.147017,13980
1659443482.185931,13998
1659443482.227919,14031
1659443482.269906,14052
1659443482.312405,14096
1659443482.354904,14136
1659443482.393477,14169
1659443482.432051,14207
1659443482.470624,14241
1659443482.512099,14259
1659443482.553574,14254
1659443482.592148,14206
1659443482.630721,14161
1659443482.669294,14164
1659443482.712988,14209
1659443482.756682,14260
1659443482.800376,14310
1659443482.83417,14364
1659443482.867965,14415
1659443482.912683,14449
1659443482.957401,14476
1659443483.002119,14494
1659443483.040351,14486
1659443483.078583,14490
1659443483.116815,14472
1659443483.158802,14477
1659443483.200789,14492
1659443483.239704,14439
1659443483.278619,14302
1659443483.317533,14121
1659443483.359008,13999
1659443483.400483,13932
1659443483.439398,13836
1659443483.478313,13718
1659443483.517228,13681
1659443483.556484,13605
1659443483.59574,13425
1659443483.634996,13262
1659443483.675447,13111
1659443483.715898,12973
1659443483.754472,12841
1659443483.793045,12702
1659443483.831619,12582
1659443483.874118,12465
1659443483.916617,12369
1659443483.95519,12115
1659443483.993764,11587
1659443484.032337,11033
1659443484.072788,10644
1659443484.113239,10384
1659443484.152154,10148
1659443484.191069,9972
1659443484.229983,9830
1659443484.271458,9691
1659443484.312933,9542
1659443484.351848,9424
1659443484.390763,9352
1659443484.429678,9335
1659443484.474396,9348
1659443484.519114,9373
1659443484.563832,9420
1659443484.605307,9454
1659443484.646782,9324
1659443484.685014,9025
1659443484.723246,8798
1659443484.761478,8700
1659443484.803977,8669
1659443484.846476,8702
1659443484.88505,8736
1659443484.923623,8758
1659443484.962196,8762
1659443485.00077,8759
1659443485.039343,8764
1659443485.077917,8779
1659443485.119392,8794
1659443485.160867,8792
1659443485.200806,8773
1659443485.240745,8770
1659443485.280684,8692
1659443485.321646,8401
1659443485.362609,8130
1659443485.401524,7990
1659443485.440439,7945
1659443485.479354,7944
1659443485.518951,7989
1659443485.558549,8032
1659443485.598146,8065
1659443485.639621,8070
1659443485.681097,8073
1659443485.71967,8091
1659443485.758243,8132
1659443485.796817,8179
1659443485.838804,8234
1659443485.880791,8293
1659443485.924485,8288
1659443485.968179,8094
1659443486.011873,7878
1659443486.045155,7768
1659443486.078437,7766
1659443486.122814,7800
1659443486.16719,7857
1659443486.211567,7921
1659443486.25014,7963
1659443486.288714,7977
1659443486.327287,8000
1659443486.365861,8055
1659443486.404434,8114
1659443486.443008,8175
1659443486.482605,8226
1659443486.522203,8283
1659443486.5618,8332
1659443486.602763,8254
1659443486.643726,8069
1659443486.682641,7949
1659443486.721556,7946
1659443486.760471,7978
1659443486.80297,8045
1659443486.845469,8109
1659443486.884042,8177
1659443486.922616,8215
1659443486.961189,8242
1659443487.00164,8278
1659443487.042091,8331
1659443487.081006,8396
1659443487.119921,8493
1659443487.158835,8589
1659443487.200823,8686
1659443487.24281,8749
1659443487.286503,8647
1659443487.330197,8424
1659443487.373891,8289
1659443487.413147,8262
1659443487.452403,8274
1659443487.49166,8310
1659443487.533134,8367
1659443487.57461,8411
1659443487.612842,8443
1659443487.651074,8483
1659443487.689306,8512
1659443487.732317,8544
1659443487.775328,8587
1659443487.814243,8623
1659443487.853158,8674
1659443487.892072,8720
1659443487.930987,8733
1659443487.969902,8873
1659443488.008817,9142
1659443488.050292,9392
1659443488.091767,9586
1659443488.131365,9683
1659443488.170962,9683
1659443488.21056,9619
1659443488.25101,9563
1659443488.291461,9627
1659443488.330376,9858
1659443488.369291,10133
1659443488.408206,10346
1659443488.446438,10523
1659443488.48467,10638
1659443488.522902,10761
1659443488.564889,10850
1659443488.606876,10787
1659443488.645791,10603
1659443488.684706,10464
1659443488.723621,10442
1659443488.765608,10473
1659443488.807595,10566
1659443488.85163,10665
1659443488.895665,10732
1659443488.9397,10763
1659443488.973495,10731
1659443489.007289,10699
1659443489.052349,10691
1659443489.097408,10724
1659443489.142467,10741
1659443489.174725,10776
1659443489.206984,10824
1659443489.251019,10898
1659443489.295054,10932
1659443489.339089,10747
1659443489.378004,10476
1659443489.416919,10326
1659443489.455834,10269
1659443489.497309,10276
1659443489.538784,10325
1659443489.577357,10414
1659443489.615931,10502
1659443489.654504,10543
1659443489.696491,10552
1659443489.738478,10563
1659443489.777393,10583
1659443489.816308,10669
1659443489.855223,10786
1659443489.893796,10873
1659443489.932369,10935
1659443489.970943,10982
1659443490.01293,10959
1659443490.054917,10734
1659443490.093832,10486
1659443490.132747,10336
1659443490.171662,10264
1659443490.212625,10227
1659443490.253587,10202
1659443490.292161,10153
1659443490.330734,10088
1659443490.369308,10032
1659443490.411807,9974
1659443490.454306,9960
1659443490.492538,9942
1659443490.53077,9921
1659443490.569002,9921
1659443490.613379,9952
1659443490.657755,10053
1659443490.702132,10149
1659443490.735414,10167
1659443490.768697,10027
1659443490.812732,9847
1659443490.856767,9705
1659443490.900802,9600
1659443490.934597,9620
1659443490.968391,9702
1659443491.013792,9826
1659443491.059192,9905
1659443491.104593,9987
1659443491.143167,10041
1659443491.18174,10061
1659443491.220314,10080
1659443491.261788,10089
1659443491.303263,10116
1659443491.34252,10144
1659443491.381776,10204
1659443491.421032,10149
1659443491.462507,10023
1659443491.503982,9943
1659443491.545457,9975
1659443491.586932,10094
1659443491.620727,10239
1659443491.654521,10369
1659443491.698897,10419
1659443491.743274,10462
1659443491.787651,10497
1659443491.828101,10552
1659443491.868552,10638
1659443491.907467,10731
1659443491.946382,10814
1659443491.985297,10917
1659443492.024553,10999
1659443492.063809,10999
1659443492.103065,10897
1659443492.14454,10810
1659443492.186015,10825
1659443492.225271,10903
1659443492.264528,11002
1659443492.303784,11110
1659443492.345771,11177
1659443492.387758,11233
1659443492.425649,11295
1659443492.463539,11344
1659443492.50143,11404
1659443492.540345,11444
1659443492.57926,11484
1659443492.618175,11525
1659443492.660162,11561
1659443492.702149,11436
1659443492.740381,11267
1659443492.778613,11181
1659443492.816845,11193
1659443492.857808,11300
1659443492.898771,11491
1659443492.938027,11668
1659443492.977283,11788
1659443493.01654,11881
1659443493.058015,11918
1659443493.099489,11958
1659443493.143866,11997
1659443493.188243,12035
1659443493.232619,12074
1659443493.266414,12123
1659443493.300208,12137
1659443493.344585,11992
1659443493.388961,11873
1659443493.433338,11818
1659443493.472253,11831
1659443493.511167,11874
1659443493.550082,11923
1659443493.592581,11987
1659443493.63508,12002
1659443493.673312,12001
1659443493.711545,12008
1659443493.749777,12049
1659443493.79074,12082
1659443493.831702,12133
1659443493.870617,12172
1659443493.909532,12188
1659443493.948447,12127
1659443493.987703,11882
1659443494.026959,11558
1659443494.066216,11351
1659443494.107178,11237
1659443494.148141,11211
1659443494.187056,11240
1659443494.225971,11283
1659443494.264886,11291
1659443494.306361,11233
1659443494.347836,11112
1659443494.387434,11058
1659443494.427031,11047
1659443494.466629,11057
1659443494.505543,11097
1659443494.544458,11124
1659443494.583373,11014
1659443494.625872,10658
1659443494.668371,10281
1659443494.708822,10046
1659443494.749273,9928
1659443494.788529,9867
1659443494.827785,9880
1659443494.867042,9934
1659443494.911418,9982
1659443494.955795,9990
1659443495.000171,9997
1659443495.032942,10016
1659443495.065712,10067
1659443495.109747,10163
1659443495.153782,10241
1659443495.197817,10284
1659443495.232124,10276
1659443495.26643,9999
1659443495.310466,9620
1659443495.354501,9384
1659443495.398536,9270
1659443495.437451,9229
1659443495.476366,9271
1659443495.51528,9363
1659443495.556755,9449
1659443495.59823,9499
1659443495.637487,9531
1659443495.676743,9577
1659443495.715999,9635
1659443495.75389,9709
1659443495.79178,9783
1659443495.829671,9872
1659443495.872682,9968
1659443495.915693,10048
1659443495.953584,9964
1659443495.991475,9668
1659443496.029366,9442
1659443496.069817,9355
1659443496.110267,9340
1659443496.149182,9369
1659443496.188097,9467
1659443496.227012,9558
1659443496.268999,9628
1659443496.310986,9675
1659443496.349218,9728
1659443496.38745,9829
1659443496.425682,9946
1659443496.467669,10065
1659443496.509656,10177
1659443496.548571,10270
1659443496.587486,10352
1659443496.626401,10433
1659443496.670436,10389
1659443496.714471,10114
1659443496.758506,9815
1659443496.801005,9654
1659443496.843505,9600
1659443496.883102,9593
1659443496.9227,9682
1659443496.962297,9782
1659443497.002748,9868
1659443497.043199,9913
1659443497.082114,9955
1659443497.121029,10023
1659443497.159943,10110
1659443497.198517,10205
1659443497.23709,10292
1659443497.275664,10385
1659443497.317651,10472
1659443497.359638,10564
1659443497.398553,10635
1659443497.437468,10591
1659443497.476382,10328
1659443497.518369,10024
1659443497.560356,9879
1659443497.598588,9821
1659443497.636821,9847
1659443497.675053,9938
1659443497.71465,10048
1659443497.754248,10142
1659443497.793845,10192
1659443497.835832,10241
1659443497.87782,10307
1659443497.916393,10401
1659443497.954966,10489
1659443497.99354,10570
1659443498.034503,10660
1659443498.075466,10731
1659443498.115063,10803
1659443498.154661,10866
1659443498.194258,10809
1659443498.234709,10513
1659443498.27516,10166
1659443498.319537,9991
1659443498.363913,9958
1659443498.40829,9975
1659443498.44106,10058
1659443498.47383,10152
1659443498.518548,10220
1659443498.563266,10256
1659443498.607984,10292
1659443498.646899,10357
1659443498.685814,10433
1659443498.724729,10509
1659443498.766716,10574
1659443498.808703,10651
1659443498.847276,10737
1659443498.88585,10838
1659443498.924423,10940
1659443498.965898,10944
1659443499.007373,10747
1659443499.046629,10430
1659443499.085886,10241
1659443499.125142,10158
1659443499.163715,10164
1659443499.202289,10222
1659443499.240862,10275
1659443499.281313,10316
1659443499.321764,10333
1659443499.360337,10383
1659443499.398911,10453
1659443499.437484,10530
1659443499.479471,10604
1659443499.521458,10666
1659443499.560032,10750
1659443499.598605,10797
1659443499.637179,10864
1659443499.678654,10916
1659443499.720129,10944
1659443499.759726,10789
1659443499.799324,10443
1659443499.838921,10170
1659443499.880908,10072
1659443499.922895,10083
1659443499.961469,10142
1659443500.000042,10253
1659443500.038616,10348
1659443500.082992,10410
1659443500.127369,10461
1659443500.171746,10506
1659443500.20554,10571
1659443500.239334,10651
1659443500.28337,10749
1659443500.327405,10827
1659443500.37144,10907
1659443500.405746,10990
1659443500.440053,11070
1659443500.484088,11019
1659443500.528123,10746
1659443500.572159,10457
1659443500.610732,10326
1659443500.649305,10318
1659443500.687879,10363
1659443500.729354,10456
1659443500.770829,10565
1659443500.810085,10639
1659443500.849341,10712
1659443500.888597,10757
1659443500.927171,10816
1659443500.965744,10901
1659443501.004318,10979
1659443501.047329,11053
1659443501.09034,11130
1659443501.129255,11200
1659443501.168169,11269
1659443501.207084,11305
1659443501.248047,11141
1659443501.28901,10820
1659443501.328267,10599
1659443501.367523,10526
1659443501.406779,10538
1659443501.449278,10594
1659443501.491777,10687
1659443501.529668,10770
1659443501.567559,10827
1659443501.605449,10870
1659443501.646924,10925
1659443501.688399,10991
1659443501.726631,11071
1659443501.764863,11170
1659443501.803096,11245
1659443501.847131,11317
1659443501.891166,11390
1659443501.935201,11434
1659443501.977188,11340
1659443502.019175,11055
1659443502.058431,10745
1659443502.097687,10598
1659443502.136944,10545
1659443502.177907,10543
1659443502.21887,10596
1659443502.257785,10673
1659443502.296699,10734
1659443502.335614,10776
1659443502.37487,10808
1659443502.414126,10803
1659443502.453383,10750
1659443502.493834,10620
1659443502.534285,10405
1659443502.573199,10190
1659443502.612114,10046
1659443502.651029,9911
1659443502.689944,9615
1659443502.728859,9076
1659443502.767773,8544
1659443502.809248,8187
1659443502.850724,7928
1659443502.889638,7738
1659443502.928553,7636
1659443502.967468,7547
1659443503.009455,7466
1659443503.051442,7384
1659443503.090357,7333
1659443503.129272,7307
1659443503.168186,7307
1659443503.209661,7312
1659443503.251136,7318
1659443503.296196,7345
1659443503.341255,7363
1659443503.386314,7277
1659443503.418572,7053
1659443503.450831,6881
1659443503.495207,6807
1659443503.539584,6803
1659443503.583961,6821
1659443503.622875,6867
1659443503.66179,6913
1659443503.700705,6928
1659443503.742692,6927
1659443503.784679,6931
1659443503.823252,6942
1659443503.861826,6970
1659443503.900399,6999
1659443503.941875,7025
1659443503.983349,7052
1659443504.021923,7089
1659443504.060496,6991
1659443504.09907,6806
1659443504.137985,6675
1659443504.176899,6645
1659443504.215814,6666
1659443504.258313,6696
1659443504.300812,6743
1659443504.340069,6792
1659443504.379325,6826
1659443504.418581,6829
1659443504.459544,6859
1659443504.500507,6884
1659443504.539422,6917
1659443504.578336,6964
1659443504.617251,7001
1659443504.656166,7047
1659443504.695081,7013
1659443504.733996,6854
1659443504.775471,6726
1659443504.816946,6705
1659443504.857909,6724
1659443504.898872,6765
1659443504.937445,6834
1659443504.976019,6890
1659443505.014592,6934
1659443505.058286,6955
1659443505.10198,6978
1659443505.145674,7010
1659443505.178956,7056
1659443505.212238,7099
1659443505.256956,7152
1659443505.301674,7199
1659443505.346392,7191
1659443505.379674,7068
1659443505.412957,6915
1659443505.457333,6867
1659443505.50171,6897
1659443505.546087,6933
1659443505.585684,7026
1659443505.625282,7087
1659443505.664879,7135
1659443505.706866,7132
1659443505.748853,7141
1659443505.786744,7164
1659443505.824635,7222
1659443505.862525,7276
1659443505.903488,7292
1659443505.944451,7309
1659443505.983366,7333
1659443506.022281,7282
1659443506.061196,7125
1659443506.099769,7042
1659443506.138343,7025
1659443506.176916,7044
1659443506.218903,7068
1659443506.26089,7101
1659443506.299805,7133
1659443506.33872,7144
1659443506.377635,7150
1659443506.418598,7156
1659443506.459561,7180
1659443506.4995,7212
1659443506.539438,7243
1659443506.579377,7291
1659443506.620852,7328
1659443506.662327,7357
1659443506.701242,7337
1659443506.740157,7257
1659443506.779072,7215
1659443506.821059,7267
1659443506.863046,7329
1659443506.902643,7403
1659443506.942241,7494
1659443506.981838,7543
1659443507.025532,7579
1659443507.069226,7599
1659443507.11292,7642
1659443507.154395,7696
1659443507.19587,7755
1659443507.234443,7815
1659443507.273017,7872
1659443507.31159,7928
1659443507.350164,7959
1659443507.388737,7889
1659443507.427311,7643
1659443507.466567,7461
1659443507.505823,7414
1659443507.545079,7408
1659443507.583311,7437
1659443507.621543,7509
1659443507.659775,7592
1659443507.701763,7642
1659443507.74375,7664
1659443507.788468,7700
1659443507.833185,7750
1659443507.877903,7801
1659443507.910674,7858
1659443507.943444,7914
1659443507.987138,7972
1659443508.030832,8034
1659443508.074526,8083
1659443508.11344,7996
1659443508.152355,7769
1659443508.19127,7581
1659443508.233257,7515
1659443508.275244,7499
1659443508.313476,7524
1659443508.351708,7577
1659443508.389941,7640
1659443508.428514,7691
1659443508.467087,7707
1659443508.505661,7725
1659443508.547648,7762
1659443508.589635,7812
1659443508.62855,7860
1659443508.667464,7918
1659443508.706379,7956
1659443508.747854,8012
1659443508.789329,8070
1659443508.828244,8045
1659443508.867159,7844
1659443508.906074,7629
1659443508.94533,7534
1659443508.984586,7524
1659443509.023842,7551
1659443509.065317,7604
1659443509.106792,7673
1659443509.148267,7735
1659443509.189742,7759
1659443509.228316,7782
1659443509.266889,7806
1659443509.305463,7860
1659443509.349498,7894
1659443509.393533,7960
1659443509.437568,8014
1659443509.471363,8066
1659443509.505157,8118
1659443509.549534,8146
1659443509.59391,8042
1659443509.638287,7782
1659443509.671569,7595
1659443509.704852,7548
1659443509.749569,7554
1659443509.794287,7582
1659443509.839005,7643
1659443509.87792,7690
1659443509.916835,7702
1659443509.95575,7714
1659443509.997737,7736
1659443510.039724,7775
1659443510.07898,7844
1659443510.118236,7896
1659443510.157492,7931
1659443510.198967,7957
1659443510.240442,7989
1659443510.278674,7995
1659443510.316906,7873
1659443510.355139,7654
1659443510.394053,7553
1659443510.432968,7544
1659443510.471883,7565
1659443510.514382,7617
1659443510.556881,7676
1659443510.594772,7720
1659443510.632663,7730
1659443510.670553,7745
1659443510.711516,7780
1659443510.752479,7834
1659443510.792828,7884
1659443510.833176,7940
1659443510.873525,7993
1659443510.913873,8045
1659443510.954222,8095
1659443510.993137,8145
1659443511.032052,8075
1659443511.070966,7843
1659443511.112953,7656
1659443511.154941,7595
1659443511.193173,7596
1659443511.231405,7617
1659443511.269637,7676
1659443511.311624,7741
1659443511.353611,7795
1659443511.398329,7813
1659443511.443047,7830
1659443511.487765,7866
1659443511.525997,7911
1659443511.564229,7957
1659443511.602461,8007
1659443511.642912,8052
1659443511.683363,8105
1659443511.722278,8161
1659443511.761193,8147
1659443511.800107,7946
1659443511.838681,7739
1659443511.877254,7647
1659443511.915828,7628
1659443511.957303,7647
1659443511.998778,7695
1659443512.038375,7768
1659443512.077973,7817
1659443512.11757,7841
1659443512.159045,7858
1659443512.20052,7889
1659443512.239435,7928
1659443512.27835,7977
1659443512.317265,8031
1659443512.359764,8081
1659443512.402263,8149
1659443512.440836,8207
1659443512.47941,8232
1659443512.517983,8078
1659443512.557717,7836
1659443512.597451,7688
1659443512.637186,7679
1659443512.676919,7699
1659443512.716654,7753
1659443512.759153,7825
1659443512.801652,7875
1659443512.839884,7905
1659443512.878116,7917
1659443512.916348,7963
1659443512.958335,8015
1659443513.000322,8084
1659443513.039578,8132
1659443513.078835,8174
1659443513.118091,8225
1659443513.160078,8245
1659443513.202065,8137
1659443513.24098,7896
1659443513.279894,7720
1659443513.318809,7658
1659443513.360284,7640
1659443513.401759,7660
1659443513.440674,7727
1659443513.479589,7799
1659443513.518504,7826
1659443513.562539,7818
1659443513.606574,7819
1659443513.650609,7846
1659443513.693108,7895
1659443513.735607,7953
1659443513.773839,8010
1659443513.812072,8055
1659443513.850304,8103
1659443513.888877,8082
1659443513.927451,7867
1659443513.966024,7650
1659443514.007499,7557
1659443514.048974,7541
1659443514.087889,7547
1659443514.126804,7574
1659443514.165719,7635
1659443514.207194,7681
1659443514.248668,7718
1659443514.287583,7740
1659443514.326498,7771
1659443514.365413,7829
1659443514.404669,7887
1659443514.443925,7936
1659443514.483181,7987
1659443514.524657,8048
1659443514.566132,8086
1659443514.605046,8018
1659443514.643961,7801
1659443514.682876,7623
1659443514.724351,7589
1659443514.765826,7612
1659443514.804058,7660
1659443514.84229,7750
1659443514.880522,7847
1659443514.922509,7886
1659443514.964496,7912
1659443515.008532,7932
1659443515.052567,7952
1659443515.096602,7987
1659443515.129372,8023
1659443515.162143,8062
1659443515.206519,8099
1659443515.250896,8137
1659443515.295272,8175
1659443515.334528,8115
1659443515.373785,7886
1659443515.413041,7655
1659443515.455028,7559
1659443515.497015,7531
1659443515.535588,7546
1659443515.574162,7599
1659443515.612735,7665
1659443515.654722,7702
1659443515.696709,7715
1659443515.735283,7729
1659443515.773856,7754
1659443515.81243,7811
1659443515.851003,7854
1659443515.889577,7889
1659443515.92815,7936
1659443515.971161,7971
1659443516.014172,7992
1659443516.052746,7870
1659443516.091319,7646
1659443516.129893,7519
1659443516.168466,7518
1659443516.20704,7548
1659443516.245613,7600
1659443516.2876,7657
1659443516.329587,7690
1659443516.368161,7682
1659443516.406734,7672
1659443516.445307,7678
1659443516.487295,7710
1659443516.529282,7762
1659443516.574341,7779
1659443516.6194,7782
1659443516.664459,7809
1659443516.69723,7798
1659443516.73,7679
1659443516.773694,7501
1659443516.817388,7408
1659443516.861082,7392
1659443516.900338,7416
1659443516.939594,7465
1659443516.97885,7534
1659443517.020325,7584
1659443517.0618,7579
1659443517.100032,7572
1659443517.138264,7608
1659443517.176497,7637
1659443517.215411,7667
1659443517.254326,7700
1659443517.293241,7750
1659443517.334204,7807
1659443517.375167,7777
1659443517.414082,7600
1659443517.452996,7442
1659443517.491911,7378
1659443517.533386,7392
1659443517.574861,7427
1659443517.613776,7478
1659443517.652691,7531
1659443517.691606,7554
1659443517.730179,7560
1659443517.768753,7569
1659443517.807326,7603
1659443517.849313,7637
1659443517.8913,7680
1659443517.933287,7714
1659443517.975274,7764
1659443518.013506,7811
1659443518.051739,7756
1659443518.089971,7554
1659443518.130934,7393
1659443518.171896,7362
1659443518.211153,7372
1659443518.250409,7415
1659443518.289665,7474
1659443518.33114,7547
1659443518.372615,7589
1659443518.410847,7606
1659443518.449079,7622
1659443518.487311,7652
1659443518.529298,7699
1659443518.571285,7759
1659443518.615662,7839
1659443518.660038,7925
1659443518.704415,8005
1659443518.744013,8008
1659443518.78361,7819
1659443518.823208,7565
1659443518.865195,7437
1659443518.907182,7408
1659443518.946097,7417
1659443518.985011,7463
1659443519.023926,7534
1659443519.064889,7613
1659443519.105852,7647
1659443519.145108,7668
1659443519.184365,7703
1659443519.223621,7758
1659443519.262194,7805
1659443519.300768,7829
1659443519.339341,7849
1659443519.380304,7862
1659443519.421267,7920
1659443519.459841,7927
1659443519.498414,7790
1659443519.536987,7560
1659443519.576244,7408
1659443519.6155,7356
1659443519.654756,7361
1659443519.696231,7408
1659443519.737706,7465
1659443519.776621,7549
1659443519.815536,7576
1659443519.85445,7584
1659443519.896949,7598
1659443519.939449,7631
1659443519.977681,7691
1659443520.015913,7785
1659443520.054145,7919
1659443520.096132,8085
1659443520.138119,8250
1659443520.182837,8405
1659443520.227555,8511
1659443520.272273,8463
1659443520.305043,8470
1659443520.337813,8803
1659443520.381849,9244
1659443520.425884,9628
1659443520.469919,9946
1659443520.508834,10226
1659443520.547749,10415
1659443520.586663,10549
1659443520.62865,10693
1659443520.670637,10820
1659443520.708528,10952
1659443520.746419,11049
1659443520.78431,11115
1659443520.826809,11132
1659443520.869308,11113
1659443520.90754,11117
1659443520.945772,11181
1659443520.984004,11218
1659443521.022578,11099
1659443521.061151,10936
1659443521.099725,10870
1659443521.142735,10943
1659443521.185747,11132
1659443521.22432,11345
1659443521.262894,11478
1659443521.301467,11504
1659443521.34004,11556
1659443521.378614,11634
1659443521.417187,11733
1659443521.458663,11809
1659443521.500138,11862
1659443521.542125,11877
1659443521.584111,11861
1659443521.622685,11863
1659443521.661258,11904
1659443521.699832,11935
1659443521.741307,11869
1659443521.782782,11578
1659443521.822038,11247
1659443521.861294,11055
1659443521.90055,10995
1659443521.944586,10994
1659443521.988621,11065
1659443522.032656,11141
1659443522.066962,11195
1659443522.101269,11239
1659443522.145987,11248
1659443522.190705,11255
1659443522.235423,11241
1659443522.276898,11187
1659443522.318373,11140
1659443522.357287,11135
1659443522.396202,11164
1659443522.435117,11182
1659443522.474373,11052
1659443522.513629,10650
1659443522.552886,10257
1659443522.593337,10031
1659443522.633788,9917
1659443522.672702,9883
1659443522.711617,9902
1659443522.750532,9941
1659443522.792007,9975
1659443522.833482,9992
1659443522.872397,10000
1659443522.911312,10031
1659443522.950227,10067
1659443522.989141,10127
1659443523.028056,10201
1659443523.066971,10254
1659443523.10691,10335
1659443523.146849,10407
1659443523.186788,10368
1659443523.226727,10059
1659443523.266665,9657
1659443523.308652,9404
1659443523.350639,9285
1659443523.389554,9244
1659443523.428469,9245
1659443523.467384,9301
1659443523.509371,9343
1659443523.551358,9348
1659443523.58959,9334
1659443523.627822,9367
1659443523.666054,9398
1659443523.710431,9482
1659443523.754807,9547
1659443523.799184,9634
1659443523.840659,9743
1659443523.882134,9849
1659443523.920707,9899
1659443523.959281,9733
1659443523.997854,9364
1659443524.039329,9059
1659443524.080804,8932
1659443524.119719,8870
1659443524.158634,8871
1659443524.197549,8942
1659443524.236122,9003
1659443524.274696,9050
1659443524.313269,9075
1659443524.355768,9115
1659443524.398267,9156
1659443524.437523,9232
1659443524.47678,9308
1659443524.516036,9397
1659443524.556999,9481
1659443524.597962,9563
1659443524.636535,9648
1659443524.675109,9616
1659443524.713682,9329
1659443524.752938,9016
1659443524.792194,8868
1659443524.831451,8824
1659443524.872926,8848
1659443524.914401,8899
1659443524.953315,8975
1659443524.99223,9028
1659443525.031145,9054
1659443525.072108,9074
1659443525.113071,9111
1659443525.157448,9169
1659443525.201824,9238
1659443525.246201,9310
1659443525.279483,9379
1659443525.312765,9453
1659443525.358166,9520
1659443525.403567,9479
1659443525.448967,9208
1659443525.481738,8927
1659443525.514508,8798
1659443525.558885,8776
1659443525.603261,8838
1659443525.647638,8914
1659443525.686894,9009
1659443525.72615,9050
1659443525.765406,9083
1659443525.806881,9141
1659443525.848356,9197
1659443525.886588,9265
1659443525.92482,9325
1659443525.963053,9398
1659443526.00504,9448
1659443526.047027,9512
1659443526.085259,9539
1659443526.123491,9438
1659443526.161723,9107
1659443526.200979,8783
1659443526.240235,8653
1659443526.279491,8611
1659443526.321478,8640
1659443526.363466,8701
1659443526.402039,8797
1659443526.440613,8840
1659443526.479186,8872
1659443526.520149,8908
1659443526.561112,8965
1659443526.600709,9037
1659443526.640307,9119
1659443526.679904,9203
1659443526.72394,9276
1659443526.767975,9367
1659443526.81201,9445
1659443526.844268,9420
1659443526.876527,9124
1659443526.920903,8775
1659443526.96528,8587
1659443527.009656,8523
1659443527.047889,8510
1659443527.086121,8570
1659443527.124353,8651
1659443527.165828,8719
1659443527.207303,8782
1659443527.246217,8819
1659443527.285132,8880
1659443527.324047,8952
1659443527.362279,9042
1659443527.400511,9126
1659443527.438743,9221
1659443527.480218,9310
1659443527.521693,9406
1659443527.56095,9473
1659443527.600206,9312
1659443527.639462,9006
1659443527.681961,8790
1659443527.72446,8716
1659443527.763033,8713
1659443527.801607,8772
1659443527.84018,8858
1659443527.882168,8931
1659443527.924155,8987
1659443527.962728,9012
1659443528.001302,9072
1659443528.039875,9122
1659443528.082374,9187
1659443528.124873,9270
1659443528.163446,9332
1659443528.20202,9406
1659443528.240593,9470
1659443528.282068,9440
1659443528.323543,9156
1659443528.365018,8785
1659443528.406493,8528
1659443528.447968,8397
1659443528.489444,8349
1659443528.530918,8362
1659443528.572393,8443
1659443528.611308,8539
1659443528.650223,8618
1659443528.689138,8683
1659443528.731125,8752
1659443528.773112,8831
1659443528.812027,8913
1659443528.850942,8981
1659443528.889856,9047
1659443528.931844,9112
1659443528.97383,9181
1659443529.012063,9196
1659443529.050295,8989
1659443529.088527,8650
1659443529.127783,8437
1659443529.167039,8388
1659443529.206295,8375
1659443529.24777,8410
1659443529.289245,8492
1659443529.32816,8605
1659443529.367075,8662
1659443529.40599,8708
1659443529.446441,8801
1659443529.486892,8935
1659443529.526489,9063
1659443529.566087,9183
1659443529.605684,9292
1659443529.647159,9385
1659443529.688634,9457
1659443529.726866,9459
1659443529.765098,9260
1659443529.80333,8895
1659443529.844805,8652
1659443529.886281,8552
1659443529.925878,8534
1659443529.965476,8601
1659443530.005073,8677
1659443530.049108,8740
1659443530.093143,8788
1659443530.137179,8847
1659443530.178142,8923
1659443530.219105,9008
1659443530.258019,9059
1659443530.296934,9105
1659443530.335849,9219
1659443530.3763,9336
1659443530.416751,9432
1659443530.456007,9351
1659443530.495263,9033
1659443530.534519,8786
1659443530.573776,8715
1659443530.613032,8741
1659443530.652288,8774
1659443530.692739,8831
1659443530.73319,8849
1659443530.772446,8871
1659443530.811702,8837
1659443530.850958,8800
1659443530.892946,8761
1659443530.934932,8726
1659443530.973506,8683
1659443531.012079,8678
1659443531.050653,8710
1659443531.089909,8758
1659443531.129165,8707
1659443531.168421,8439
1659443531.210408,8188
1659443531.252395,8097
1659443531.290627,8101
1659443531.32886,8117
1659443531.367092,8187
1659443531.409591,8233
1659443531.45209,8245
1659443531.496808,8237
1659443531.541526,8209
1659443531.586244,8217
1659443531.618502,8249
1659443531.65076,8287
1659443531.694795,8321
1659443531.738831,8374
1659443531.782866,8416
1659443531.817172,8428
1659443531.851479,8265
1659443531.896197,8016
1659443531.940915,7896
1659443531.985632,7849
1659443532.024547,7869
1659443532.063462,7942
1659443532.102377,8031
1659443532.144364,8082
1659443532.186351,8096
1659443532.225266,8105
1659443532.264181,8122
1659443532.303096,8162
1659443532.34457,8192
1659443532.386045,8233
1659443532.42496,8251
1659443532.463875,8251
1659443532.50279,8156
1659443532.540681,7907
1659443532.578572,7653
1659443532.616462,7522
1659443532.657425,7503
1659443532.698388,7500
1659443532.736962,7538
1659443532.775535,7570
1659443532.814109,7591
1659443532.856096,7585
1659443532.898082,7599
1659443532.936656,7623
1659443532.97523,7667
1659443533.013803,7738
1659443533.055278,7842
1659443533.096753,7972
1659443533.135668,8071
1659443533.174582,8099
1659443533.213497,7948
1659443533.257874,7777
1659443533.30225,7691
1659443533.346627,7665
1659443533.380421,7664
1659443533.414216,7699
1659443533.459275,7764
1659443533.504334,7787
1659443533.549394,7794
1659443533.582164,7797
1659443533.614934,7827
1659443533.658355,7849
1659443533.701776,7883
1659443533.745197,7908
1659443533.788617,7940
1659443533.832038,7998
1659443533.870612,8028
1659443533.909185,7934
1659443533.947759,7740
1659443533.985991,7631
1659443534.024223,7603
1659443534.062455,7590
1659443534.104442,7617
1659443534.146429,7664
1659443534.185685,7726
1659443534.224941,7741
1659443534.264197,7753
1659443534.302771,7747
1659443534.341344,7776
1659443534.379918,7831
1659443534.421905,7875
1659443534.463892,7923
1659443534.503148,7978
1659443534.542404,8026
1659443534.581661,8053
1659443534.623647,7960
1659443534.665635,7764
1659443534.704549,7665
1659443534.743464,7658
1659443534.782379,7657
1659443534.823854,7689
1659443534.865329,7747
1659443534.90322,7789
1659443534.94111,7818
1659443534.979001,7855
1659443535.0215,7862
1659443535.063999,7888
1659443535.108717,7918
1659443535.153435,7951
1659443535.198153,7988
1659443535.236727,8033
1659443535.2753,8087
1659443535.313874,8145
1659443535.355348,8165
1659443535.396823,8054
1659443535.43608,7913
1659443535.475336,7843
1659443535.514592,7826
1659443535.552824,7862
1659443535.591056,7919
1659443535.629288,8005
1659443535.671275,8085
1659443535.713262,8148
1659443535.752177,8179
1659443535.791092,8221
1659443535.830007,8178
1659443535.870458,8116
1659443535.910909,8063
1659443535.949482,8053
1659443535.988056,8078
1659443536.026629,8111
1659443536.065202,8101
1659443536.103776,8003
1659443536.142349,7970
1659443536.183825,8060
1659443536.225299,8229
1659443536.264214,8411
1659443536.303129,8561
1659443536.342044,8671
1659443536.384031,8725
1659443536.426018,8703
1659443536.464592,8644
1659443536.503165,8641
1659443536.541738,8673
1659443536.583725,8785
1659443536.625712,8878
1659443536.67043,8964
1659443536.715148,9076
1659443536.759866,9139
1659443536.792636,9092
1659443536.825407,8882
1659443536.869101,8700
1659443536.912795,8586
1659443536.956488,8570
1659443536.995744,8564
1659443537.035001,8573
1659443537.074257,8562
1659443537.116244,8544
1659443537.158231,8554
1659443537.196805,8579
1659443537.235378,8585
1659443537.273951,8572
1659443537.312866,8566
1659443537.351781,8564
1659443537.390696,8563
1659443537.432171,8491
1659443537.473646,8321
1659443537.512902,8193
1659443537.552158,8188
1659443537.591414,8252
1659443537.633401,8332
1659443537.675388,8399
1659443537.714303,8451
1659443537.753218,8541
1659443537.792133,8641
1659443537.833608,8732
1659443537.875083,8835
1659443537.91468,8912
1659443537.954278,9080
1659443537.993876,9352
1659443538.035351,9573
1659443538.076825,9661
1659443538.115057,9635
1659443538.15329,9599
1659443538.191522,9589
1659443538.232485,9592
1659443538.273448,9604
1659443538.312362,9615
1659443538.351277,9617
1659443538.390192,9592
1659443538.434227,9577
1659443538.478262,9588
1659443538.522298,9638
1659443538.55558,9683
1659443538.588862,9692
1659443538.63358,9692
1659443538.678298,9663
1659443538.723016,9535
1659443538.76159,9345
1659443538.800163,9195
1659443538.838737,9092
1659443538.880724,9030
1659443538.922711,9012
1659443538.960089,8996
1659443538.997468,8977
1659443539.034847,8970
1659443539.072226,8953
1659443539.115919,8958
1659443539.159613,8969
1659443539.203307,8981
1659443539.242563,8984
1659443539.281819,9005
1659443539.321075,8928
1659443539.362039,8811
1659443539.403002,8729
1659443539.441575,8683
1659443539.480148,8675
1659443539.518722,8688
1659443539.557637,8725
1659443539.596551,8761
1659443539.635466,8827
1659443539.677965,8873
1659443539.720464,8921
1659443539.759038,8955
1659443539.797611,8995
1659443539.836185,9015
1659443539.87766,9031
1659443539.919135,9017
1659443539.958391,8957
1659443539.997647,8895
1659443540.036903,8840
1659443540.074794,8818
1659443540.112685,8851
1659443540.150576,8893
1659443540.193075,8948
1659443540.235574,8986
1659443540.277561,9003
1659443540.319548,9025
1659443540.35778,9054
1659443540.396012,9096
1659443540.434244,9140
1659443540.478621,9179
1659443540.522997,9158
1659443540.567374,9083
1659443540.60168,9013
1659443540.635987,8985
1659443540.680022,8979
1659443540.724057,9006
1659443540.768092,9060
1659443540.801375,9121
1659443540.834657,9159
1659443540.879716,9197
1659443540.924776,9243
1659443540.969835,9289
1659443541.008408,9334
1659443541.046982,9375
1659443541.085555,9401
1659443541.12703,9351
1659443541.168505,9249
1659443541.208103,9156
1659443541.2477,9106
1659443541.287298,9083
1659443541.328261,9084
1659443541.369224,9122
1659443541.407456,9144
1659443541.445688,9168
1659443541.48392,9191
1659443541.522835,9207
1659443541.56175,9243
1659443541.600665,9290
1659443541.642652,9327
1659443541.684639,9352
1659443541.722871,9303
1659443541.761103,9190
1659443541.799335,9062
1659443541.841322,8988
1659443541.883309,8933
1659443541.921882,8914
1659443541.960456,8903
1659443541.999029,8893
1659443542.041016,8882
1659443542.083004,8890
1659443542.121918,8899
1659443542.160833,8912
1659443542.199748,8946
1659443542.241735,8975
1659443542.283722,9024
1659443542.327416,9004
1659443542.37111,8884
1659443542.414804,8705
1659443542.453377,8591
1659443542.491951,8530
1659443542.530524,8521
1659443542.572511,8533
1659443542.614498,8566
1659443542.65273,8601
1659443542.690962,8613
1659443542.729194,8625
1659443542.768109,8637
1659443542.807024,8669
1659443542.845939,8701
1659443542.887926,8755
1659443542.929913,8785
1659443542.968827,8752
1659443543.007742,8606
1659443543.046657,8433
1659443543.088644,8351
1659443543.130631,8324
1659443543.169546,8347
1659443543.208461,8377
1659443543.247376,8414
1659443543.286632,8435
1659443543.325888,8442
1659443543.365144,8466
1659443543.406619,8503
1659443543.448094,8551
1659443543.48735,8579
1659443543.526607,8629
1659443543.565863,8660
1659443543.607338,8630
1659443543.648813,8468
1659443543.687045,8312
1659443543.725277,8241
1659443543.763509,8227
1659443543.806008,8273
1659443543.848507,8338
1659443543.892884,8420
1659443543.93726,8486
1659443543.981637,8500
1659443544.014407,8512
1659443544.047178,8533
1659443544.091554,8572
1659443544.135931,8594
1659443544.180307,8652
1659443544.217942,8682
1659443544.255577,8671
1659443544.293211,8505
1659443544.330846,8305
1659443544.36942,8215
1659443544.407993,8218
1659443544.446567,8254
1659443544.491626,8309
1659443544.536685,8387
1659443544.581744,8436
1659443544.622195,8459
1659443544.662646,8469
1659443544.701902,8485
1659443544.741158,8511
1659443544.780415,8555
1659443544.81933,8594
1659443544.858244,8635
1659443544.897159,8697
1659443544.93761,8676
1659443544.978061,8508
1659443545.016293,8294
1659443545.054525,8210
1659443545.092757,8208
1659443545.135768,8229
1659443545.17878,8288
1659443545.217353,8357
1659443545.255927,8398
1659443545.2945,8414
1659443545.333415,8438
1659443545.37233,8460
1659443545.411244,8503
1659443545.453231,8552
1659443545.495219,8597
1659443545.533792,8647
1659443545.572366,8708
1659443545.610939,8711
1659443545.652414,8554
1659443545.693889,8336
1659443545.732804,8235
1659443545.771719,8215
1659443545.810633,8205
1659443545.851084,8203
1659443545.891535,8284
1659443545.935229,8357
1659443545.978923,8392
1659443546.022617,8416
1659443546.061532,8462
1659443546.100446,8526
1659443546.139361,8586
1659443546.178276,8629
1659443546.217191,8663
1659443546.256106,8689
1659443546.295362,8643
1659443546.334618,8419
1659443546.373874,8158
1659443546.415861,8045
1659443546.457848,8030
1659443546.496422,8066
1659443546.534995,8125
1659443546.573569,8195
1659443546.615556,8257
1659443546.657543,8275
1659443546.69714,8292
1659443546.736738,8327
1659443546.776335,8365
1659443546.818322,8408
1659443546.860309,8454
1659443546.898541,8486
1659443546.936774,8540
1659443546.975006,8478
1659443547.016481,8232
1659443547.057956,8034
1659443547.097212,7949
1659443547.136468,7944
1659443547.175724,7979
1659443547.219759,8046
1659443547.263794,8118
1659443547.30783,8149
1659443547.3406,8173
1659443547.37337,8205
1659443547.418088,8242
1659443547.462806,8286
1659443547.507524,8342
1659443547.548487,8397
1659443547.58945,8451
1659443547.629048,8480
1659443547.668645,8353
1659443547.708243,8126
1659443547.746816,7987
1659443547.78539,7967
1659443547.823963,7958
1659443547.865438,7986
1659443547.906913,8047
1659443547.945487,8074
1659443547.98406,8074
1659443548.022634,8055
1659443548.061207,8045
1659443548.09978,8064
1659443548.138354,8110
1659443548.180341,8159
1659443548.222328,8206
1659443548.260901,8264
1659443548.299475,8277
1659443548.338048,8122
1659443548.379011,7931
1659443548.419974,7847
1659443548.461705,7839
1659443548.503436,7858
1659443548.545167,7904
1659443548.586898,7958
1659443548.628373,7984
1659443548.669848,7985
1659443548.708763,7992
1659443548.747678,8023
1659443548.786593,8068
1659443548.825849,8133
1659443548.865105,8193
1659443548.904361,8244
1659443548.945836,8245
1659443548.987311,8091
1659443549.026226,7885
1659443549.065141,7800
1659443549.104056,7780
1659443549.142288,7809
1659443549.18052,7877
1659443549.218752,7942
1659443549.260739,7994
1659443549.302726,8014
1659443549.341982,8024
1659443549.381238,8051
1659443549.420495,8103
1659443549.461457,8126
1659443549.502421,8166
1659443549.543384,8205
1659443549.584347,8233
1659443549.624285,8130
1659443549.664224,7938
1659443549.704163,7801
1659443549.74615,7768
1659443549.788137,7770
1659443549.826369,7811
1659443549.864601,7881
1659443549.902833,7954
1659443549.945333,8016
1659443549.987832,8050
1659443550.026747,8090
1659443550.065661,8134
1659443550.104576,8201
1659443550.145539,8240
1659443550.186502,8284
1659443550.230879,8336
1659443550.275255,8335
1659443550.319632,8185
1659443550.358546,7991
1659443550.397461,7925
1659443550.436376,7925
1659443550.476827,7957
1659443550.517278,8023
1659443550.556534,8089
1659443550.59579,8152
1659443550.635046,8171
1659443550.673961,8198
1659443550.712876,8213
1659443550.751791,8250
1659443550.792754,8285
1659443550.833717,8336
1659443550.87427,8383
1659443550.914824,8415
1659443550.955377,8352
1659443550.99593,8157
1659443551.036484,8010
1659443551.077447,7959
1659443551.11841,7978
1659443551.157324,8026
1659443551.196239,8087
1659443551.235154,8142
1659443551.273727,8161
1659443551.312301,8165
1659443551.350874,8174
1659443551.392861,8224
1659443551.434849,8268
1659443551.473081,8315
1659443551.511313,8377
1659443551.549545,8444
1659443551.59102,8428
1659443551.632495,8265
1659443551.670386,8085
1659443551.708276,8008
1659443551.746167,8007
1659443551.788154,8036
1659443551.830141,8103
1659443551.869397,8171
1659443551.908653,8221
1659443551.94791,8229
1659443551.989385,8254
1659443552.03086,8299
1659443552.069433,8337
1659443552.108006,8376
1659443552.14658,8424
1659443552.191639,8491
1659443552.236699,8524
1659443552.281758,8390
1659443552.31504,8158
1659443552.348323,8027
1659443552.392699,7984
1659443552.437076,8007
1659443552.481452,8046
1659443552.522927,8113
1659443552.564402,8175
1659443552.603317,8193
1659443552.642232,8201
1659443552.681147,8217
1659443552.719379,8245
1659443552.757611,8294
1659443552.795843,8345
1659443552.838342,8404
1659443552.880841,8451
1659443552.919756,8408
1659443552.958671,8203
1659443552.997586,8032
1659443553.036842,7980
1659443553.076098,7987
1659443553.115354,8030
1659443553.160072,8112
1659443553.20479,8190
1659443553.249508,8225
1659443553.283302,8243
1659443553.317097,8254
1659443553.36079,8287
1659443553.404484,8325
1659443553.448178,8376
1659443553.487776,8439
1659443553.527373,8505
1659443553.566971,8488
1659443553.607934,8305
1659443553.648897,8121
1659443553.68747,8060
1659443553.726044,8081
1659443553.764617,8123
1659443553.80319,8197
1659443553.841764,8284
1659443553.880337,8315
1659443553.922324,8324
1659443553.964312,8339
1659443554.002885,8379
1659443554.041459,8417
1659443554.080032,8462
1659443554.121507,8515
1659443554.162982,8559
1659443554.202238,8520
1659443554.241494,8298
1659443554.280751,8117
1659443554.319324,8054
1659443554.357897,8040
1659443554.396471,8069
1659443554.437946,8138
1659443554.479421,8205
1659443554.519018,8235
1659443554.558616,8263
1659443554.598213,8278
1659443554.638664,8323
1659443554.679115,8350
1659443554.719259,8377
1659443554.759403,8444
1659443554.799546,8489
1659443554.83969,8469
1659443554.879834,8271
1659443554.920797,8085
1659443554.96176,8014
1659443554.99965,8026
1659443555.037541,8032
1659443555.075432,8110
1659443555.118443,8190
1659443555.161454,8240
1659443555.200369,8263
1659443555.239284,8270
1659443555.278199,8311
1659443555.319162,8358
1659443555.360125,8406
1659443555.402368,8461
1659443555.444611,8510
1659443555.486854,8469
1659443555.529097,8253
1659443555.568012,8042
1659443555.606926,7966
1659443555.645841,7961
1659443555.684415,7998
1659443555.722988,8071
1659443555.761562,8159
1659443555.802525,8212
1659443555.843488,8233
1659443555.882744,8228
1659443555.922,8241
1659443555.961256,8238
1659443556.002219,8249
1659443556.043182,8301
1659443556.0879,8345
1659443556.132618,8275
1659443556.177336,8113
1659443556.216251,8066
1659443556.255165,8137
1659443556.29408,8262
1659443556.335043,8382
1659443556.376006,8497
1659443556.415945,8561
1659443556.455884,8567
1659443556.495823,8552
1659443556.534396,8554
1659443556.57297,8566
1659443556.611543,8585
1659443556.653018,8619
1659443556.694493,8633
1659443556.733749,8619
1659443556.773005,8423
1659443556.812262,8160
1659443556.854249,8011
1659443556.896236,7980
1659443556.934468,7975
1659443556.9727,8010
1659443557.010932,8070
1659443557.049847,8096
1659443557.088762,8112
1659443557.127676,8107
1659443557.168639,8122
1659443557.209603,8155
1659443557.247835,8183
1659443557.286067,8237
1659443557.324299,8289
1659443557.366286,8264
1659443557.408273,8078
1659443557.446846,7915
1659443557.48542,7875
1659443557.523993,7898
1659443557.565468,7959
1659443557.606943,8028
1659443557.646882,8090
1659443557.686821,8110
1659443557.72676,8107
1659443557.766699,8108
1659443557.806638,8144
1659443557.848625,8176
1659443557.890612,8224
1659443557.928844,8287
1659443557.967076,8319
1659443558.005308,8213
1659443558.047295,8017
1659443558.089282,7921
1659443558.128197,7934
1659443558.167112,7996
1659443558.206027,8139
1659443558.249721,8340
1659443558.293414,8536
1659443558.337108,8742
1659443558.376023,8978
1659443558.414938,9206
1659443558.453853,9462
1659443558.495327,9705
1659443558.536803,9890
1659443558.575717,10032
1659443558.614632,10146
1659443558.653547,10108
1659443558.696046,9961
1659443558.738545,10004
1659443558.777801,10252
1659443558.817058,10385
1659443558.856314,10368
1659443558.895229,10526
1659443558.934143,10782
1659443558.973058,11004
1659443559.014021,11209
1659443559.054984,11408
1659443559.093899,11641
1659443559.132814,11850
1659443559.171729,12008
1659443559.213203,12127
1659443559.254678,12181
1659443559.293252,12162
1659443559.331825,11925
1659443559.370399,11484
1659443559.412386,11051
1659443559.454373,10756
1659443559.492605,10578
1659443559.530837,10494
1659443559.569069,10520
1659443559.611056,10711
1659443559.653043,10959
1659443559.697761,11106
1659443559.742479,11262
1659443559.787197,11446
1659443559.826112,11629
1659443559.865027,11754
1659443559.903942,11875
1659443559.944085,11990
1659443559.984229,12124
1659443560.024373,12155
1659443560.064516,12031
1659443560.10466,11805
1659443560.144189,11642
1659443560.183719,11636
1659443560.223248,11763
1659443560.262777,11997
1659443560.302306,12224
1659443560.344293,12445
1659443560.386281,12640
1659443560.424513,12669
1659443560.462745,12671
1659443560.500977,12847
1659443560.539891,12999
1659443560.578806,13082
1659443560.617721,13191
1659443560.659196,13290
1659443560.700671,13281
1659443560.739245,13212
1659443560.777818,13205
1659443560.816392,13268
1659443560.854965,13292
1659443560.893538,13357
1659443560.932112,13431
1659443560.974611,13498
1659443561.01711,13508
1659443561.055684,13485
1659443561.094257,13464
1659443561.132831,13422
1659443561.174305,13441
1659443561.21578,13445
1659443561.257256,13491
1659443561.298731,13548
1659443561.338328,13541
1659443561.377926,13475
1659443561.417523,13227
1659443561.461217,12789
1659443561.504911,12354
1659443561.548605,12082
1659443561.581887,11953
1659443561.61517,11961
1659443561.659205,12030
1659443561.70324,12110
1659443561.747275,12183
1659443561.78619,12195
1659443561.825105,12190
1659443561.864019,12188
1659443561.906518,12215
1659443561.949018,12231
1659443561.988274,12250
1659443562.02753,12307
1659443562.066786,12386
1659443562.107749,12403
1659443562.148712,12134
1659443562.187968,11675
1659443562.227224,11488
1659443562.266481,11517
1659443562.306036,11631
1659443562.34559,11787
1659443562.385145,11930
1659443562.4247,12018
1659443562.464255,12087
1659443562.50381,12132
1659443562.543365,12192
1659443562.58292,12230
1659443562.622653,12259
1659443562.662388,12300
1659443562.702122,12392
1659443562.741856,12537
1659443562.78159,12626
1659443562.823577,12581
1659443562.865564,12371
1659443562.907551,12224
1659443562.949538,12146
1659443562.988794,12083
1659443563.02805,12010
1659443563.067307,11900
1659443563.10588,11755
1659443563.144454,11560
1659443563.183027,11392
1659443563.227403,11189
1659443563.27178,11009
1659443563.316157,10857
1659443563.357632,10709
1659443563.399107,10595
1659443563.438021,10484
1659443563.476936,10253
1659443563.515851,9734
1659443563.554083,9198
1659443563.592315,8817
1659443563.630547,8598
1659443563.672022,8476
1659443563.713497,8430
1659443563.751729,8418
1659443563.789962,8386
1659443563.828194,8332
1659443563.86745,8307
1659443563.906706,8293
1659443563.945962,8305
1659443563.987437,8348
1659443564.028912,8393
1659443564.067144,8439
1659443564.105376,8480
1659443564.143609,8364
1659443564.185596,8069
1659443564.227582,7835
1659443564.267521,7735
1659443564.30746,7717
1659443564.347399,7749
1659443564.388362,7813
1659443564.429325,7896
1659443564.468581,7946
1659443564.507838,7976
1659443564.547094,8014
1659443564.588569,8075
1659443564.630044,8136
1659443564.668958,8190
1659443564.707873,8261
1659443564.746788,8328
1659443564.790823,8390
1659443564.834858,8261
1659443564.878894,7991
1659443564.920881,7812
1659443564.962868,7765
1659443565.000758,7808
1659443565.038649,7865
1659443565.07654,7956
1659443565.115455,8023
1659443565.15437,8085
1659443565.193285,8094
1659443565.235528,8102
1659443565.277771,8152
1659443565.320014,8203
1659443565.362257,8256
1659443565.40083,8332
1659443565.439404,8413
1659443565.477977,8449
1659443565.520476,8321
1659443565.562975,8104
1659443565.602232,8009
1659443565.641488,8013
1659443565.680744,8037
1659443565.721195,8109
1659443565.761646,8201
1659443565.800902,8281
1659443565.840158,8320
1659443565.879414,8364
1659443565.917988,8410
1659443565.956561,8455
1659443565.995135,8507
1659443566.036609,8566
1659443566.078084,8651
1659443566.116999,8696
1659443566.155914,8581
1659443566.194829,8335
1659443566.236304,8149
1659443566.277779,8111
1659443566.316352,8116
1659443566.354926,8172
1659443566.393499,8251
1659443566.435486,8340
1659443566.477473,8371
1659443566.516388,8396
1659443566.555303,8433
1659443566.594218,8473
1659443566.635181,8522
1659443566.676144,8550
1659443566.715059,8583
1659443566.753973,8633
1659443566.792888,8653
1659443566.837265,8449
1659443566.881641,8174
1659443566.926018,8017
1659443566.967493,7973
1659443567.008968,7981
1659443567.047541,8044
1659443567.086115,8134
1659443567.124688,8195
1659443567.166163,8218
1659443567.207638,8205
1659443567.24587,8223
1659443567.284102,8258
1659443567.322335,8315
1659443567.361249,8392
1659443567.400164,8480
1659443567.439079,8577
1659443567.481066,8631
1659443567.523053,8495
1659443567.561968,8227
1659443567.600883,8089
1659443567.639797,8065
1659443567.680761,8091
1659443567.721724,8169
1659443567.76098,8275
1659443567.800236,8364
1659443567.839492,8394
1659443567.878407,8401
1659443567.917322,8436
1659443567.956236,8520
1659443567.997711,8612
1659443568.039186,8707
1659443568.078101,8811
1659443568.117016,8891
1659443568.155931,8985
1659443568.197406,8975
1659443568.238881,8755
1659443568.277454,8536
1659443568.316028,8476
1659443568.354601,8523
1659443568.396588,8624
1659443568.438575,8761
1659443568.483293,8902
1659443568.528011,9020
1659443568.572729,9114
1659443568.606011,9256
1659443568.639294,9530
1659443568.684012,9823
1659443568.72873,10041
1659443568.773448,10193
1659443568.812704,10312
1659443568.85196,10415
1659443568.891216,10507
1659443568.932691,10443
1659443568.974166,10210
1659443569.01274,10046
1659443569.051313,10017
1659443569.089886,10048
1659443569.13085,10139
1659443569.171813,10249
1659443569.210386,10347
1659443569.248959,10428
1659443569.287533,10484
1659443569.326448,10555
1659443569.365362,10637
1659443569.404277,10716
1659443569.446264,10786
1659443569.488251,10868
1659443569.526825,10943
1659443569.565398,11016
1659443569.603972,10971
1659443569.642887,10738
1659443569.681801,10567
1659443569.720716,10543
1659443569.763215,10537
1659443569.805714,10563
1659443569.846677,10610
1659443569.88764,10654
1659443569.926214,10688
1659443569.964787,10737
1659443570.003361,10778
1659443570.045348,10835
1659443570.087335,10918
1659443570.126591,10990
1659443570.165847,11071
1659443570.205103,11148
1659443570.248797,11132
1659443570.292491,10935
1659443570.336185,10734
1659443570.369467,10654
1659443570.40275,10643
1659443570.442484,10701
1659443570.482218,10807
1659443570.521952,10915
1659443570.561686,10976
1659443570.60142,11029
1659443570.646138,11090
1659443570.690856,11155
1659443570.735574,11228
1659443570.774147,11308
1659443570.812721,11393
1659443570.851294,11467
1659443570.892257,11486
1659443570.93322,11326
1659443570.972817,11120
1659443571.012415,11018
1659443571.052013,10988
1659443571.090927,11016
1659443571.129842,11074
1659443571.168757,11144
1659443571.210744,11192
1659443571.252731,11226
1659443571.291646,11262
1659443571.330561,11311
1659443571.369476,11377
1659443571.410951,11443
1659443571.452425,11509
1659443571.490658,11574
1659443571.52889,11608
1659443571.567122,11523
1659443571.609621,11348
1659443571.65212,11261
1659443571.691035,11245
1659443571.72995,11274
1659443571.768864,11354
1659443571.810339,11491
1659443571.851815,11624
1659443571.890729,11699
1659443571.929644,11734
1659443571.968559,11774
1659443572.013618,11794
1659443572.058677,11819
1659443572.103737,11858
1659443572.145212,11891
1659443572.186687,11902
1659443572.225601,11778
1659443572.264516,11674
1659443572.303431,11637
1659443572.344906,11659
1659443572.386381,11706
1659443572.424613,11772
1659443572.462845,11846
1659443572.501077,11903
1659443572.539651,11946
1659443572.578224,11966
1659443572.616798,12007
1659443572.659297,12053
1659443572.701796,12103
1659443572.740028,12163
1659443572.77826,12200
1659443572.816492,12229
1659443572.855407,12170
1659443572.894322,12071
1659443572.933237,12016
1659443572.974712,12005
1659443573.016187,12021
1659443573.055784,12060
1659443573.095382,12130
1659443573.134979,12181
1659443573.175942,12219
1659443573.216905,12228
1659443573.255479,12263
1659443573.294052,12310
1659443573.332626,12360
1659443573.374101,12396
1659443573.415576,12440
1659443573.45927,12482
1659443573.502963,12485
1659443573.546657,12398
1659443573.580451,12323
1659443573.614246,12315
1659443573.658623,12340
1659443573.702999,12405
1659443573.747376,12492
1659443573.785949,12562
1659443573.824522,12616
1659443573.863096,12609
1659443573.904059,12610
1659443573.945022,12607
1659443573.98462,12604
1659443574.024217,12608
1659443574.063815,12631
1659443574.10529,12672
1659443574.146765,12707
1659443574.185338,12708
1659443574.223912,12623
1659443574.262485,12533
1659443574.302083,12481
1659443574.34168,12461
1659443574.381278,12465
1659443574.422753,12508
1659443574.464228,12560
1659443574.503142,12593
1659443574.542057,12604
1659443574.580972,12626
1659443574.622959,12662
1659443574.664946,12691
1659443574.70352,12722
1659443574.742093,12758
1659443574.780667,12790
1659443574.81924,12835
1659443574.857813,12875
1659443574.896387,12808
1659443574.938374,12695
1659443574.980361,12632
1659443575.021324,12600
1659443575.062287,12590
1659443575.10086,12617
1659443575.139434,12652
1659443575.178007,12661
1659443575.223067,12658
1659443575.268126,12667
1659443575.313185,12699
1659443575.346467,12748
1659443575.37975,12799
1659443575.423785,12839
1659443575.46782,12865
1659443575.511855,12881
1659443575.54565,12892
1659443575.579444,12850
1659443575.619529,12678
1659443575.659615,12514
1659443575.6997,12408
1659443575.739785,12371
1659443575.77987,12359
1659443575.819955,12412
1659443575.860041,12464
1659443575.904758,12491
1659443575.949476,12511
1659443575.994194,12537
1659443576.026965,12568
1659443576.059735,12623
1659443576.104112,12665
1659443576.148488,12713
1659443576.192865,12741
1659443576.226147,12773
1659443576.259429,12807
1659443576.303806,12830
1659443576.348183,12777
1659443576.392559,12607
1659443576.431133,12473
1659443576.469706,12411
1659443576.50828,12413
1659443576.550779,12449
1659443576.593278,12525
1659443576.63151,12611
1659443576.669742,12630
1659443576.707974,12640
1659443576.746547,12651
1659443576.785121,12666
1659443576.823694,12676
1659443576.865169,12723
1659443576.906644,12746
1659443576.945218,12787
1659443576.983791,12848
1659443577.022365,12879
1659443577.06384,12841
1659443577.105315,12711
1659443577.14423,12628
1659443577.183144,12632
1659443577.222059,12659
1659443577.263022,12720
1659443577.303985,12792
1659443577.3429,12828
1659443577.381815,12844
1659443577.42073,12859
1659443577.463229,12867
1659443577.505728,12893
1659443577.545325,12941
1659443577.584923,12997
1659443577.62452,13035
1659443577.665483,13077
1659443577.706446,13123
1659443577.745361,13135
1659443577.784276,13076
1659443577.823191,12898
1659443577.867567,12766
1659443577.911944,12744
1659443577.95632,12771
1659443577.998307,12829
1659443578.040294,12919
1659443578.078868,12976
1659443578.117441,13018
1659443578.156015,13041
1659443578.19493,13062
1659443578.233845,13091
1659443578.272759,13116
1659443578.31321,13145
1659443578.353661,13155
1659443578.392576,13192
1659443578.431491,13217
1659443578.470406,13245
1659443578.512905,13170
1659443578.555404,12963
1659443578.594319,12822
1659443578.633233,12777
1659443578.672148,12794
1659443578.710722,12853
1659443578.749295,12945
1659443578.787868,13008
1659443578.830368,13046
1659443578.872867,13057
1659443578.911782,13072
1659443578.950696,13108
1659443578.989611,13141
1659443579.030062,13184
1659443579.070513,13202
1659443579.109769,13250
1659443579.149025,13280
1659443579.188282,13285
1659443579.229244,13112
1659443579.270207,12987
1659443579.313901,12967
1659443579.357595,13004
1659443579.401289,13070
1659443579.435083,13137
1659443579.468878,13191
1659443579.513596,13214
1659443579.558314,13236
1659443579.603032,13264
1659443579.641264,13295
1659443579.679496,13328
1659443579.717728,13368
1659443579.759715,13400
1659443579.801702,13430
1659443579.8413,13445
1659443579.880897,13374
1659443579.920495,13194
1659443579.961457,13113
1659443580.00242,13106
1659443580.041677,13141
1659443580.080933,13210
1659443580.120189,13279
1659443580.158762,13319
1659443580.197336,13343
1659443580.235909,13365
1659443580.277385,13382
1659443580.318859,13412
1659443580.358116,13425
1659443580.397372,13446
1659443580.436628,13471
1659443580.478103,13502
1659443580.519578,13443
1659443580.55781,13272
1659443580.596042,13137
1659443580.634274,13127
1659443580.67353,13155
1659443580.712787,13227
1659443580.752043,13304
1659443580.79403,13366
1659443580.836017,13398
1659443580.877833,13405
1659443580.91965,13433
1659443580.961466,13458
1659443581.003282,13489
1659443581.045099,13524
1659443581.086915,13555
1659443581.12455,13581
1659443581.162184,13598
1659443581.199819,13436
1659443581.237454,13206
1659443581.278417,13070
1659443581.31938,13028
1659443581.358295,13035
1659443581.397209,13108
1659443581.436124,13209
1659443581.478111,13268
1659443581.520098,13294
1659443581.564134,13311
1659443581.608169,13331
1659443581.652204,13371
1659443581.684974,13412
1659443581.717745,13439
1659443581.762463,13463
1659443581.80718,13463
1659443581.851898,13366
1659443581.885181,13134
1659443581.918463,12920
1659443581.963181,12837
1659443582.007899,12820
1659443582.052617,12829
1659443582.091532,12912
1659443582.130446,12982
1659443582.169361,13027
1659443582.210324,13047
1659443582.251287,13068
1659443582.289861,13113
1659443582.328434,13151
1659443582.367008,13174
1659443582.408995,13195
1659443582.450982,13238
1659443582.489214,13258
1659443582.527446,13174
1659443582.565678,12973
1659443582.604252,12791
1659443582.642825,12710
1659443582.681398,12697
1659443582.722361,12724
1659443582.763324,12809
1659443582.802581,12897
1659443582.841837,12913
1659443582.881093,12927
1659443582.922568,12958
1659443582.964043,12994
1659443583.004391,13036
1659443583.04474,13084
1659443583.085088,13112
1659443583.125437,13139
1659443583.165786,13193
1659443583.204018,13200
1659443583.24225,13073
1659443583.280482,12898
1659443583.322981,12813
1659443583.36548,12812
1659443583.404736,12828
1659443583.443992,12901
1659443583.483248,12975
1659443583.5237,13019
1659443583.56415,13031
1659443583.603065,13034
1659443583.64198,13081
1659443583.680895,13112
1659443583.723394,13168
1659443583.765893,13203
1659443583.809928,13237
1659443583.853963,13279
1659443583.897999,13287
1659443583.930257,13180
1659443583.962515,13003
1659443584.007916,12908
1659443584.053316,12904
1659443584.098717,12966
1659443584.131487,13049
1659443584.164258,13122
1659443584.208634,13181
1659443584.253011,13199
1659443584.297387,13225
1659443584.336985,13255
1659443584.376582,13297
1659443584.41618,13332
1659443584.457143,13360
1659443584.498106,13385
1659443584.536338,13396
1659443584.57457,13426
1659443584.612802,13327
1659443584.655813,13109
1659443584.698824,12938
1659443584.737056,12858
1659443584.775289,12856
1659443584.813521,12895
1659443584.852094,12962
1659443584.890668,13034
1659443584.929241,13071
1659443584.970716,13071
1659443585.012191,13094
1659443585.050765,13123
1659443585.089338,13156
1659443585.127912,13192
1659443585.169387,13233
1659443585.210861,13270
1659443585.250118,13312
1659443585.289374,13324
1659443585.32863,13197
1659443585.370105,12998
1659443585.41158,12851
1659443585.450154,12813
1659443585.488727,12816
1659443585.5273,12883
1659443585.571677,12966
1659443585.616054,13037
1659443585.66043,13053
1659443585.693712,13073
1659443585.726995,13110
1659443585.770689,13141
1659443585.814383,13197
1659443585.858076,13232
1659443585.899551,13248
1659443585.941026,13269
1659443585.9796,13313
1659443586.018173,13308
1659443586.056747,13156
1659443586.095662,12966
1659443586.134576,12874
1659443586.173491,12877
1659443586.215478,12929
1659443586.257465,13036
1659443586.299452,13122
1659443586.341439,13157
1659443586.380013,13169
1659443586.418586,13195
1659443586.45716,13201
1659443586.499659,13216
1659443586.542158,13251
1659443586.581073,13277
1659443586.619987,13308
1659443586.658902,13330
1659443586.699865,13386
1659443586.740828,13393
1659443586.779402,13300
1659443586.817975,13094
1659443586.856549,12975
1659443586.896146,12961
1659443586.935744,12986
1659443586.975341,13059
1659443587.016304,13151
1659443587.057267,13220
1659443587.095841,13253
1659443587.134414,13283
1659443587.172988,13309
1659443587.211902,13343
1659443587.250817,13382
1659443587.289732,13405
1659443587.331719,13450
1659443587.373706,13472
1659443587.415181,13516
1659443587.456656,13542
1659443587.495571,13500
1659443587.534486,13309
1659443587.5734,13187
1659443587.614876,13159
1659443587.656351,13188
1659443587.695607,13263
1659443587.734863,13323
1659443587.774119,13382
1659443587.818837,13412
1659443587.863555,13433
1659443587.908273,13465
1659443587.941043,13492
1659443587.973814,13545
1659443588.017507,13580
1659443588.061201,13611
1659443588.104895,13639
1659443588.143469,13667
1659443588.182042,13599
1659443588.220615,13423
1659443588.26209,13322
1659443588.303566,13337
1659443588.342139,13380
1659443588.380712,13468
1659443588.419286,13548
1659443588.460761,13586
1659443588.502236,13607
1659443588.541151,13600
1659443588.580065,13606
1659443588.61898,13624
1659443588.657554,13632
1659443588.696127,13639
1659443588.734701,13668
1659443588.776176,13712
1659443588.817651,13732
1659443588.857248,13624
1659443588.896846,13426
1659443588.936443,13306
1659443588.976894,13303
1659443589.017345,13328
1659443589.055577,13376
1659443589.093809,13456
1659443589.132041,13510
1659443589.177101,13521
1659443589.22216,13540
1659443589.267219,13553
1659443589.300502,13596
1659443589.333784,13647
1659443589.377819,13684
1659443589.421854,13731
1659443589.465889,13770
1659443589.507877,13770
1659443589.549864,13633
1659443589.58912,13457
1659443589.628376,13386
1659443589.667632,13397
1659443589.706206,13444
1659443589.744779,13541
1659443589.783353,13618
1659443589.826364,13660
1659443589.869375,13680
1659443589.907948,13705
1659443589.946522,13729
1659443589.985095,13748
1659443590.025546,13783
1659443590.065997,13798
1659443590.105253,13821
1659443590.144509,13862
1659443590.183766,13863
1659443590.223022,13726
1659443590.262278,13563
1659443590.301534,13496
1659443590.342497,13492
1659443590.38346,13526
1659443590.422375,13589
1659443590.46129,13652
1659443590.500204,13680
1659443590.541679,13650
1659443590.583154,13624
1659443590.622069,13587
1659443590.660984,13591
1659443590.699899,13655
1659443590.741886,13725
1659443590.783873,13773
1659443590.823129,13791
1659443590.862385,13683
1659443590.901642,13457
1659443590.942605,13304
1659443590.983567,13254
1659443591.028285,13289
1659443591.073003,13377
1659443591.117721,13444
1659443591.151515,13482
1659443591.18531,13480
1659443591.229004,13502
1659443591.272698,13532
1659443591.316391,13598
1659443591.354965,13638
1659443591.393538,13689
1659443591.432112,13729
1659443591.469491,13766
1659443591.506869,13764
1659443591.544248,13600
1659443591.581627,13400
1659443591.625321,13311
1659443591.669014,13288
1659443591.712708,13311
1659443591.751964,13383
1659443591.791221,13440
1659443591.830477,13459
1659443591.87144,13446
1659443591.912403,13456
1659443591.951659,13496
1659443591.990915,13544
1659443592.030171,13571
1659443592.069427,13584
1659443592.108684,13620
1659443592.14794,13669
1659443592.189415,13572
1659443592.23089,13382
1659443592.269463,13225
1659443592.308037,13202
1659443592.34661,13228
1659443592.388597,13281
1659443592.430584,13360
1659443592.469499,13425
1659443592.508414,13456
1659443592.547329,13480
1659443592.588292,13535
1659443592.629255,13581
1659443592.667487,13640
1659443592.705719,13690
1659443592.743951,13736
1659443592.786962,13753
1659443592.829973,13796
1659443592.868546,13721
1659443592.90712,13522
1659443592.945693,13363
1659443592.990411,13311
1659443593.035129,13338
1659443593.079847,13385
1659443593.121322,13491
1659443593.162797,13565
1659443593.202053,13607
1659443593.24131,13639
1659443593.280566,13679
1659443593.322553,13711
1659443593.36454,13739
1659443593.403796,13782
1659443593.443052,13813
1659443593.482308,13833
1659443593.520882,13856
1659443593.559455,13828
1659443593.598029,13637
1659443593.638992,13461
1659443593.679955,13376
1659443593.719211,13348
1659443593.758467,13414
1659443593.797723,13497
1659443593.83971,13578
1659443593.881697,13610
1659443593.919588,13624
1659443593.957479,13650
1659443593.995369,13707
1659443594.034626,13769
1659443594.073882,13815
1659443594.113138,13870
1659443594.154101,13915
1659443594.195064,13937
1659443594.233637,13754
1659443594.272211,13583
1659443594.310784,13505
1659443594.353283,13516
1659443594.395782,13552
1659443594.434356,13641
1659443594.472929,13737
1659443594.511503,13783
1659443594.551954,13830
1659443594.592405,13833
1659443594.636781,13848
1659443594.681158,13885
1659443594.725534,13899
1659443594.759329,13924
1659443594.793123,13961
1659443594.836817,13989
1659443594.880511,13953
1659443594.924205,13796
1659443594.96312,13658
1659443595.002034,13631
1659443595.040949,13660
1659443595.082936,13722
1659443595.124923,13801
1659443595.163155,13862
1659443595.201387,13893
1659443595.239619,13910
1659443595.282119,13946
1659443595.324618,13985
1659443595.363533,14038
1659443595.402447,14085
1659443595.441362,14110
1659443595.479936,14142
1659443595.518509,14170
1659443595.557082,14146
1659443595.598557,13964
1659443595.640033,13831
1659443595.679289,13807
1659443595.718545,13837
1659443595.757801,13911
1659443595.796033,13963
1659443595.834265,13989
1659443595.872497,13984
1659443595.913972,14008
1659443595.955447,14046
1659443595.996922,14077
1659443596.038397,14133
1659443596.077654,14187
1659443596.11691,14220
1659443596.156166,14245
1659443596.197641,14270
1659443596.239116,14228
1659443596.278372,14032
1659443596.317628,13935
1659443596.356884,13916
1659443596.401261,13954
1659443596.445637,14029
1659443596.490014,14124
1659443596.523808,14172
1659443596.557603,14221
1659443596.602662,14225
1659443596.647722,14238
1659443596.692781,14263
1659443596.732105,14279
1659443596.77143,14304
1659443596.810754,14317
1659443596.850079,14346
1659443596.889403,14373
1659443596.928318,14369
1659443596.967233,14240
1659443597.006147,14132
1659443597.044379,14142
1659443597.082612,14180
1659443597.120844,14233
1659443597.162831,14292
1659443597.204818,14327
1659443597.243391,14355
1659443597.281965,14355
1659443597.320538,14367
1659443597.362525,14361
1659443597.404512,14369
1659443597.443086,14384
1659443597.481659,14405
1659443597.520233,14432
1659443597.56222,14453
1659443597.604207,14420
1659443597.643463,14238
1659443597.682719,14101
1659443597.721975,14106
1659443597.762938,14175
1659443597.803901,14239
1659443597.842133,14316
1659443597.880365,14356
1659443597.918597,14379
1659443597.962974,14384
1659443598.00735,14408
1659443598.051727,14435
1659443598.085521,14462
1659443598.119316,14475
1659443598.16301,14496
1659443598.206704,14525
1659443598.250397,14553
1659443598.289312,14566
1659443598.328227,14500
1659443598.367142,14355
1659443598.408617,14328
1659443598.450092,14357
1659443598.488665,14398
1659443598.527239,14453
1659443598.565812,14503
1659443598.605751,14532
1659443598.64569,14544
1659443598.685629,14553
1659443598.726592,14551
1659443598.767555,14560
1659443598.80647,14564
1659443598.845385,14563
1659443598.884299,14587
1659443598.926286,14607
1659443598.968273,14618
1659443599.007188,14512
1659443599.046103,14326
1659443599.085018,14278
1659443599.125981,14299
1659443599.166944,14351
1659443599.2062,14410
1659443599.245456,14464
1659443599.284712,14503
1659443599.325675,14524
1659443599.366638,14542
1659443599.405895,14554
1659443599.445151,14595
1659443599.484407,14610
1659443599.529466,14625
1659443599.574525,14647
1659443599.619585,14653
1659443599.661572,14625
1659443599.703559,14482
1659443599.741791,14430
1659443599.780023,14468
1659443599.818255,14553
1659443599.857511,14602
1659443599.896767,14635
1659443599.936023,14664
1659443599.978011,14684
1659443600.019998,14691
1659443600.05823,14696
1659443600.096462,14723
1659443600.134694,14723
1659443600.173609,14750
1659443600.212523,14765
1659443600.251438,14782
1659443600.292401,14760
1659443600.333364,14614
1659443600.371596,14569
1659443600.409828,14590
1659443600.448061,14637
1659443600.49056,14673
1659443600.533059,14721
1659443600.571291,14748
1659443600.609523,14759
1659443600.647755,14792
1659443600.68923,14798
1659443600.730705,14819
1659443600.76962,14828
1659443600.808535,14841
1659443600.84745,14862
1659443600.889949,14860
1659443600.932448,14804
1659443600.971021,14686
1659443601.009594,14665
1659443601.048168,14684
1659443601.092886,14726
1659443601.137604,14772
1659443601.182322,14797
1659443601.223285,14833
1659443601.264248,14843
1659443601.30248,14841
1659443601.340712,14854
1659443601.378944,14864
1659443601.421443,14872
1659443601.463942,14889
1659443601.502516,14898
1659443601.541089,14904
1659443601.579663,14851
1659443601.617895,14655
1659443601.656127,14573
1659443601.694359,14598
1659443601.736346,14595
1659443601.778333,14601
1659443601.817248,14677
1659443601.856163,14727
1659443601.895077,14760
1659443601.937576,14786
1659443601.980076,14822
1659443602.020014,14855
1659443602.059953,14883
1659443602.099892,14900
1659443602.139831,14917
1659443602.17977,14922
1659443602.221757,14922
1659443602.263744,14845
1659443602.302317,14642
1659443602.340891,14570
1659443602.379464,14588
1659443602.418379,14625
1659443602.457294,14699
1659443602.496209,14790
1659443602.538196,14837
1659443602.580183,14856
1659443602.618415,14868
1659443602.656647,14876
1659443602.694879,14880
1659443602.736866,14898
1659443602.778853,14914
1659443602.818451,14935
1659443602.858048,14961
1659443602.897646,14986
1659443602.938609,14988
1659443602.979572,14898
1659443603.018145,14748
1659443603.056719,14746
1659443603.095292,14765
1659443603.138303,14805
1659443603.181314,14887
1659443603.22535,14916
1659443603.269385,14939
1659443603.31342,14937
1659443603.352335,14952
1659443603.39125,14955
1659443603.430164,14982
1659443603.471128,14979
1659443603.51209,14995
1659443603.550664,15008
1659443603.589237,15032
1659443603.627811,15026
1659443603.666726,14931
1659443603.70564,14783
1659443603.744555,14758
1659443603.786542,14811
1659443603.828529,14840
1659443603.866761,14887
1659443603.904994,14928
1659443603.943226,14934
1659443603.984189,14932
1659443604.025151,14941
1659443604.064749,14957
1659443604.104347,14965
1659443604.143944,14982
1659443604.182518,14996
1659443604.221091,15020
1659443604.259665,15040
1659443604.300627,15055
1659443604.34159,15063
1659443604.380847,14945
1659443604.420103,14782
1659443604.459359,14756
1659443604.501346,14793
1659443604.543333,14850
1659443604.581565,14903
1659443604.619797,14955
1659443604.658029,14983
1659443604.699504,15007
1659443604.740979,15012
1659443604.785356,15021
1659443604.829732,15034
1659443604.874109,15052
1659443604.906879,15060
1659443604.93965,15091
1659443604.984368,15093
1659443605.029086,15112
1659443605.073803,15099
1659443605.112718,14950
1659443605.151633,14791
1659443605.190548,14759
1659443605.231511,14796
1659443605.272474,14865
1659443605.312071,14939
1659443605.351669,14970
1659443605.391266,14991
1659443605.433765,14984
1659443605.476264,14990
1659443605.514838,15016
1659443605.553411,15034
1659443605.591985,15040
1659443605.6309,15035
1659443605.669815,15051
1659443605.70873,15047
1659443605.749692,15056
1659443605.790655,15028
1659443605.828887,14806
1659443605.86712,14583
1659443605.905352,14462
1659443605.943925,14435
1659443605.982499,14462
1659443606.021072,14562
1659443606.063571,14648
1659443606.10607,14700
1659443606.147033,14719
1659443606.187996,14713
1659443606.226911,14743
1659443606.265826,14778
1659443606.30474,14821
1659443606.34724,14847
1659443606.389739,14876
1659443606.428653,14893
1659443606.467568,14931
1659443606.506483,14939
1659443606.55086,14874
1659443606.595236,14720
1659443606.639613,14673
1659443606.672383,14727
1659443606.705153,14782
1659443606.749189,14840
1659443606.793224,14889
1659443606.837259,14920
1659443606.879246,14920
1659443606.921233,14925
1659443606.960148,14928
1659443606.999063,14922
1659443607.037978,14924
1659443607.076551,14877
1659443607.115124,14839
1659443607.153698,14852
1659443607.194149,14885
1659443607.2346,14812
1659443607.274539,14625
1659443607.314478,14550
1659443607.354417,14593
1659443607.394356,14642
1659443607.434294,14680
1659443607.473209,14743
1659443607.512124,14798
1659443607.551039,14824
1659443607.592514,14848
1659443607.633989,14871
1659443607.673245,14887
1659443607.712501,14903
1659443607.751757,14927
1659443607.790672,14946
1659443607.829587,14963
1659443607.868502,14978
1659443607.909465,14982
1659443607.950428,14863
1659443607.989684,14751
1659443608.02894,14739
1659443608.068196,14794
1659443608.108647,14844
1659443608.149098,14891
1659443608.193475,14932
1659443608.237851,14953
1659443608.282228,14970
1659443608.316534,14976
1659443608.350841,14997
1659443608.395217,15007
1659443608.439594,15032
1659443608.48397,15042
1659443608.516741,15059
1659443608.549511,15093
1659443608.59457,15087
1659443608.63963,15063
1659443608.684689,14936
1659443608.718483,14904
1659443608.752278,14950
1659443608.796996,14981
1659443608.841713,15014
1659443608.886431,15040
1659443608.925346,15054
1659443608.964261,15069
1659443609.003176,15074
1659443609.044139,15078
1659443609.085102,15080
1659443609.123675,15091
1659443609.162249,15110
1659443609.200822,15117
1659443609.242297,15122
1659443609.283772,15107
1659443609.322687,15002
1659443609.361602,14987
1659443609.400517,15012
1659443609.43909,15050
1659443609.477664,15082
1659443609.516237,15093
1659443609.558736,15100
1659443609.601235,15106
1659443609.64015,15114
1659443609.679065,15126
1659443609.71798,15147
1659443609.758943,15156
1659443609.799906,15171
1659443609.839162,15184
1659443609.878418,15199
1659443609.917674,15158
1659443609.962392,15010
1659443610.00711,14935
1659443610.051828,14939
1659443610.084598,15002
1659443610.117368,15054
1659443610.161745,15091
1659443610.206122,15125
1659443610.250498,15139
1659443610.283268,15161
1659443610.316039,15166
1659443610.359733,15170
1659443610.403427,15185
1659443610.44712,15191
1659443610.486035,15204
1659443610.52495,15214
1659443610.563865,15192
1659443610.60278,15050
1659443610.641695,14984
1659443610.680609,14976
1659443610.722084,14992
1659443610.763559,15041
1659443610.802815,15083
1659443610.842072,15117
1659443610.881328,15129
1659443610.923315,15148
1659443610.965302,15157
1659443611.003875,15175
1659443611.042449,15183
1659443611.081022,15198
1659443611.123009,15210
1659443611.164996,15218
1659443611.203911,15202
1659443611.242826,15084
1659443611.281741,14976
1659443611.322704,14971
1659443611.363667,14994
1659443611.40224,15032
1659443611.440814,15087
1659443611.479387,15127
1659443611.523764,15140
1659443611.56814,15140
1659443611.612517,15139
1659443611.646311,15160
1659443611.680106,15185
1659443611.724482,15189
1659443611.768859,15198
1659443611.813235,15222
1659443611.855222,15218
1659443611.897209,15173
1659443611.936124,15013
1659443611.975039,14938
1659443612.013954,14943
1659443612.05321,14970
1659443612.092466,15027
1659443612.131722,15080
1659443612.173709,15131
1659443612.215696,15134
1659443612.25427,15155
1659443612.292843,15155
1659443612.331417,15167
1659443612.37238,15183
1659443612.413343,15200
1659443612.452599,15209
1659443612.491855,15216
1659443612.531111,15232
1659443612.572074,15212
1659443612.613037,15076
1659443612.654,14971
1659443612.694963,14966
1659443612.732598,15009
1659443612.770233,15054
1659443612.807867,15115
1659443612.845502,15157
1659443612.888001,15174
1659443612.9305,15173
1659443612.969074,15181
1659443613.007647,15145
1659443613.046221,15139
1659443613.087183,15141
1659443613.128146,15157
1659443613.167403,15164
1659443613.206659,15167
1659443613.245915,15077
1659443613.28739,14887
1659443613.328865,14793
1659443613.3729,14742
1659443613.416935,14723
1659443613.460971,14667
1659443613.493741,14532
1659443613.526511,14373
1659443613.570547,14228
1659443613.614582,14123
1659443613.658617,14159
1659443613.696508,14190
1659443613.734398,14194
1659443613.772289,14227
1659443613.814788,14229
1659443613.857287,14167
1659443613.895861,14072
1659443613.934434,13617
