LocalTimestamp,PG
1659430611.385235,6322
1659430611.424514,6627
1659430611.463793,5435
1659430611.502389,5229
1659430611.540985,5258
1659430611.579581,5307
1659430611.621592,5461
1659430611.663604,5669
1659430611.704591,5844
1659430611.745577,6096
1659430611.784173,6393
1659430611.822769,6546
1659430611.861365,6421
1659430611.902864,7343
1659430611.944363,8716
1659430611.9833,8899
1659430612.022238,8803
1659430612.061175,8735
1659430612.104895,9085
1659430612.148614,9835
1659430612.192333,10505
1659430612.226147,11179
1659430612.259961,11853
1659430612.304705,12253
1659430612.349449,12292
1659430612.394193,12056
1659430612.432447,11902
1659430612.470701,9438
1659430612.508956,8741
1659430612.550455,9563
1659430612.591954,9466
1659430612.631233,9065
1659430612.670512,8764
1659430612.709791,8461
1659430612.75129,8615
1659430612.792789,8379
1659430612.831385,8019
1659430612.869981,7867
1659430612.908577,8183
1659430612.947173,8446
1659430612.985769,8626
1659430613.024364,8803
1659430613.064839,8945
1659430613.105313,9063
1659430613.144251,9159
1659430613.183188,9303
1659430613.222126,9429
1659430613.264137,9558
1659430613.306149,9704
1659430613.344744,9748
1659430613.38334,9691
1659430613.421936,9747
1659430613.463948,9743
1659430613.505959,9763
1659430613.545238,9760
1659430613.584517,9799
1659430613.623796,9844
1659430613.665295,9912
1659430613.706794,9991
1659430613.745732,10102
1659430613.784669,10212
1659430613.823606,10292
1659430613.86835,10344
1659430613.913094,10329
1659430613.957838,10320
1659430613.998825,10340
1659430614.039812,10346
1659430614.078408,10395
1659430614.117003,10534
1659430614.155599,10679
1659430614.198123,10744
1659430614.240647,10787
1659430614.278901,10725
1659430614.317155,10716
1659430614.35541,10741
1659430614.394347,10779
1659430614.433285,10839
1659430614.472222,10859
1659430614.514233,10880
1659430614.556245,10886
1659430614.594841,10903
1659430614.633437,10905
1659430614.672032,10910
1659430614.714044,10899
1659430614.756055,10877
1659430614.795334,10908
1659430614.834613,10951
1659430614.873892,10960
1659430614.912488,10973
1659430614.951084,10994
1659430614.98968,11005
1659430615.030154,11014
1659430615.070629,11025
1659430615.109908,11023
1659430615.149187,11046
1659430615.188466,11052
1659430615.229452,11073
1659430615.270439,11098
1659430615.3145,11119
1659430615.358561,11143
1659430615.402622,11158
1659430615.435411,11181
1659430615.4682,11194
1659430615.512603,11202
1659430615.557005,11210
1659430615.601407,11223
1659430615.640345,11235
1659430615.679282,11251
1659430615.71822,11272
1659430615.759719,11278
1659430615.801218,11300
1659430615.840155,11304
1659430615.879093,11318
1659430615.91803,11310
1659430615.959529,11320
1659430616.001028,11339
1659430616.040307,11344
1659430616.079586,11355
1659430616.118865,11351
1659430616.157803,11363
1659430616.19674,11361
1659430616.235678,11367
1659430616.276664,11373
1659430616.317651,11379
1659430616.355906,11404
1659430616.39416,11423
1659430616.432414,11446
1659430616.474938,11472
1659430616.517462,11488
1659430616.556057,11493
1659430616.594653,11513
1659430616.633249,11532
1659430616.671845,11537
1659430616.710441,11549
1659430616.749037,11559
1659430616.791561,11578
1659430616.834085,11577
1659430616.876608,11588
1659430616.919132,11608
1659430616.957386,11615
1659430616.995641,11631
1659430617.033895,11638
1659430617.076419,11653
1659430617.118942,11655
1659430617.157538,11686
1659430617.196134,11685
1659430617.23473,11690
1659430617.279132,11708
1659430617.323535,11709
1659430617.367937,11714
1659430617.401751,11712
1659430617.435565,11730
1659430617.480309,11733
1659430617.525053,11723
1659430617.569797,11731
1659430617.60771,11722
1659430617.645622,11731
1659430617.683535,11741
1659430617.725547,11743
1659430617.767558,11756
1659430617.807178,11768
1659430617.846799,11773
1659430617.88642,11780
1659430617.927919,11784
1659430617.969418,11798
1659430618.008355,11817
1659430618.047293,11825
1659430618.08623,11843
1659430618.125168,11844
1659430618.164105,11841
1659430618.203043,11854
1659430618.244029,11859
1659430618.285016,11864
1659430618.323612,11863
1659430618.362208,11849
1659430618.400804,11827
1659430618.445206,11831
1659430618.489608,11825
1659430618.534011,11835
1659430618.572607,11846
1659430618.611202,11856
1659430618.649798,11866
1659430618.691297,11877
1659430618.732796,11882
1659430618.771392,11889
1659430618.809988,11908
1659430618.848584,11904
1659430618.88718,11921
1659430618.925776,11933
1659430618.964372,11936
1659430619.006383,11945
1659430619.048394,11950
1659430619.087332,11955
1659430619.126269,11967
1659430619.165207,11967
1659430619.206193,11946
1659430619.24718,11940
1659430619.286118,11937
1659430619.325055,11940
1659430619.363993,11953
1659430619.402588,11966
1659430619.441184,11982
1659430619.47978,11999
1659430619.521792,12011
1659430619.563803,12005
1659430619.604278,12021
1659430619.644752,12029
1659430619.683689,12036
1659430619.722627,12048
1659430619.761564,12056
1659430619.805625,12068
1659430619.849686,12076
1659430619.893747,12081
1659430619.927561,12080
1659430619.961375,12100
1659430620.00646,12106
1659430620.051546,12099
1659430620.096631,12087
1659430620.129933,12083
1659430620.163234,12092
1659430620.207637,12104
1659430620.252039,12120
1659430620.296442,12114
1659430620.335721,12120
1659430620.375,12131
1659430620.414279,12134
1659430620.45629,12139
1659430620.498302,12148
1659430620.536897,12151
1659430620.575493,12156
1659430620.614089,12164
1659430620.655588,12168
1659430620.697087,12181
1659430620.735683,12183
1659430620.774279,12199
1659430620.812875,12198
1659430620.851129,12196
1659430620.889384,12177
1659430620.927638,12157
1659430620.969649,12160
1659430621.011661,12165
1659430621.05094,12172
1659430621.090219,12174
1659430621.129498,12187
1659430621.170484,12198
1659430621.211471,12207
1659430621.250067,12219
1659430621.288663,12220
1659430621.327259,12231
1659430621.370295,12235
1659430621.413331,12241
1659430621.451927,12250
1659430621.490523,12262
1659430621.529119,12272
1659430621.569593,12274
1659430621.610067,12279
1659430621.649346,12273
1659430621.688625,12280
1659430621.727904,12264
1659430621.771624,12249
1659430621.815343,12255
1659430621.859062,12272
1659430621.901073,12286
1659430621.943085,12288
1659430621.981681,12298
1659430622.020277,12310
1659430622.058872,12330
1659430622.097127,12324
1659430622.135381,12342
1659430622.173635,12352
1659430622.214622,12358
1659430622.255609,12381
1659430622.295571,12411
1659430622.335533,12432
1659430622.375495,12447
1659430622.416482,12476
1659430622.457469,12480
1659430622.495723,12500
1659430622.533978,12512
1659430622.572232,12522
1659430622.611852,12525
1659430622.651473,12545
1659430622.691093,12538
1659430622.733105,12548
1659430622.775116,12556
1659430622.813712,12570
1659430622.852308,12581
1659430622.890904,12588
1659430622.932403,12601
1659430622.973902,12608
1659430623.012498,12603
1659430623.051094,12600
1659430623.08969,12607
1659430623.131701,12622
1659430623.173712,12628
1659430623.21265,12631
1659430623.251587,12647
1659430623.290525,12645
1659430623.332536,12650
1659430623.374548,12645
1659430623.418608,12659
1659430623.462669,12671
1659430623.50673,12668
1659430623.544899,12665
1659430623.583068,12675
1659430623.621237,12678
1659430623.659406,12679
1659430623.698343,12698
1659430623.737281,12706
1659430623.776218,12718
1659430623.816693,12723
1659430623.857167,12729
1659430623.896787,12719
1659430623.936408,12731
1659430623.976029,12731
1659430624.017015,12741
1659430624.058002,12739
1659430624.102404,12744
1659430624.146807,12759
1659430624.191209,12762
1659430624.223486,12767
1659430624.255763,12776
1659430624.300507,12776
1659430624.345251,12772
1659430624.389995,12782
1659430624.423297,12781
1659430624.456599,12779
1659430624.501342,12790
1659430624.546086,12788
1659430624.59083,12797
1659430624.629426,12797
1659430624.668022,12810
1659430624.706618,12807
1659430624.748117,12809
1659430624.789616,12815
1659430624.828895,12822
1659430624.868174,12820
1659430624.907453,12811
1659430624.946049,12817
1659430624.984645,12827
1659430625.023241,12824
1659430625.063715,12836
1659430625.104189,12836
1659430625.142785,12842
1659430625.181381,12839
1659430625.219977,12846
1659430625.261476,12850
1659430625.302975,12856
1659430625.341571,12832
1659430625.380167,12830
1659430625.418763,12844
1659430625.459237,12850
1659430625.499712,12860
1659430625.539332,12859
1659430625.578953,12869
1659430625.618573,12866
1659430625.660585,12879
1659430625.702596,12874
1659430625.741192,12871
1659430625.779788,12874
1659430625.818384,12885
1659430625.863128,12889
1659430625.907871,12894
1659430625.952615,12894
1659430625.986429,12890
1659430626.020244,12915
1659430626.063963,12904
1659430626.107682,12901
1659430626.151401,12907
1659430626.193925,12899
1659430626.236449,12900
1659430626.275386,12898
1659430626.314324,12912
1659430626.353261,12908
1659430626.391515,12913
1659430626.42977,12922
1659430626.468024,12925
1659430626.509523,12933
1659430626.551022,12925
1659430626.590301,12932
1659430626.62958,12924
1659430626.668859,12927
1659430626.707114,12928
1659430626.745368,12940
1659430626.783622,12940
1659430626.826658,12951
1659430626.869694,12956
1659430626.908632,12952
1659430626.947569,12961
1659430626.986507,12952
1659430627.027493,12954
1659430627.06848,12974
1659430627.107418,12965
1659430627.146355,12966
1659430627.185292,12962
1659430627.227816,12967
1659430627.27034,12972
1659430627.308253,12986
1659430627.346165,12982
1659430627.384078,12970
1659430627.425577,12978
1659430627.467077,12980
1659430627.505672,12977
1659430627.544268,12992
1659430627.582864,12995
1659430627.626925,13000
1659430627.670986,13000
1659430627.715046,12995
1659430627.757058,12995
1659430627.799069,13008
1659430627.838348,13021
1659430627.877627,13037
1659430627.916906,13038
1659430627.957893,13035
1659430627.99888,13035
1659430628.037817,13033
1659430628.076755,13041
1659430628.115692,13043
1659430628.154971,13041
1659430628.19425,13032
1659430628.233529,13036
1659430628.274004,13036
1659430628.314478,13042
1659430628.352732,13044
1659430628.390986,13044
1659430628.429241,13034
1659430628.47074,13039
1659430628.512239,13043
1659430628.551177,13039
1659430628.590114,13038
1659430628.629051,13039
1659430628.667647,13029
1659430628.706243,13044
1659430628.744839,13040
1659430628.784801,13041
1659430628.824763,13049
1659430628.864725,13048
1659430628.904687,13054
1659430628.944649,13052
1659430628.989052,13047
1659430629.033454,13046
1659430629.077856,13057
1659430629.12038,13054
1659430629.162904,13055
1659430629.2015,13064
1659430629.240096,13066
1659430629.278692,13070
1659430629.320703,13063
1659430629.362715,13067
1659430629.401652,13079
1659430629.440589,13082
1659430629.479527,13083
1659430629.518123,13083
1659430629.556718,13088
1659430629.595314,13086
1659430629.636813,13103
1659430629.678313,13091
1659430629.71725,13093
1659430629.756187,13102
1659430629.795125,13108
1659430629.833721,13101
1659430629.872317,13100
1659430629.910913,13099
1659430629.952412,13097
1659430629.993911,13112
1659430630.032848,13122
1659430630.071785,13120
1659430630.110723,13134
1659430630.153247,13127
1659430630.195771,13141
1659430630.234366,13142
1659430630.272962,13133
1659430630.311558,13128
1659430630.353057,13135
1659430630.394556,13143
1659430630.433835,13142
1659430630.473114,13146
1659430630.512393,13151
1659430630.553892,13152
1659430630.595392,13143
1659430630.639452,13140
1659430630.683513,13138
1659430630.727574,13136
1659430630.766511,13139
1659430630.805449,13143
1659430630.844386,13154
1659430630.884861,13149
1659430630.925335,13175
1659430630.964272,13165
1659430631.00321,13168
1659430631.042147,13165
1659430631.084159,13164
1659430631.12617,13169
1659430631.165449,13174
1659430631.204728,13177
1659430631.244007,13183
1659430631.282261,13189
1659430631.320516,13194
1659430631.35877,13204
1659430631.401294,13206
1659430631.443818,13207
1659430631.482755,13202
1659430631.521692,13206
1659430631.56063,13203
1659430631.601104,13202
1659430631.641579,13218
1659430631.680858,13214
1659430631.720137,13220
1659430631.759416,13215
1659430631.79767,13215
1659430631.835924,13221
1659430631.874179,13228
1659430631.915678,13221
1659430631.957177,13224
1659430631.999188,13224
1659430632.0412,13224
1659430632.079796,13242
1659430632.118392,13246
1659430632.156987,13250
1659430632.20139,13250
1659430632.245792,13249
1659430632.290194,13250
1659430632.324521,13255
1659430632.358847,13259
1659430632.403591,13261
1659430632.448335,13278
1659430632.493079,13284
1659430632.525356,13286
1659430632.557633,13284
1659430632.602718,13291
1659430632.647804,13303
1659430632.692889,13302
1659430632.731485,13300
1659430632.770081,13299
1659430632.808677,13305
1659430632.850688,13298
1659430632.8927,13307
1659430632.931637,13299
1659430632.970575,13292
1659430633.009512,13301
1659430633.051011,13299
1659430633.09251,13295
1659430633.130764,13294
1659430633.169019,13301
1659430633.207273,13299
1659430633.246552,13314
1659430633.285831,13306
1659430633.32511,13312
1659430633.367634,13327
1659430633.410158,13321
1659430633.448754,13322
1659430633.48735,13310
1659430633.525945,13315
1659430633.567444,13312
1659430633.608943,13326
1659430633.648222,13324
1659430633.687501,13320
1659430633.72678,13333
1659430633.76828,13332
1659430633.809779,13341
1659430633.848375,13341
1659430633.886971,13334
1659430633.925566,13339
1659430633.967065,13329
1659430634.008564,13336
1659430634.048117,13333
1659430634.087669,13343
1659430634.127221,13350
1659430634.166773,13356
1659430634.206326,13351
1659430634.247312,13358
1659430634.288299,13360
1659430634.327237,13357
1659430634.366174,13354
1659430634.405112,13357
1659430634.447123,13357
1659430634.489134,13354
1659430634.528072,13365
1659430634.567009,13362
1659430634.605947,13370
1659430634.647446,13381
1659430634.688945,13376
1659430634.728224,13365
1659430634.767503,13371
1659430634.806782,13368
1659430634.850501,13373
1659430634.89422,13383
1659430634.937939,13379
1659430634.980463,13385
1659430635.022987,13399
1659430635.061241,13390
1659430635.099496,13389
1659430635.13775,13381
1659430635.178737,13373
1659430635.219723,13383
1659430635.257978,13394
1659430635.296232,13396
1659430635.334486,13397
1659430635.373424,13401
1659430635.412361,13406
1659430635.451299,13406
1659430635.492798,13412
1659430635.534297,13399
1659430635.573576,13398
1659430635.612855,13397
1659430635.652134,13392
1659430635.694145,13396
1659430635.736157,13410
1659430635.774753,13413
1659430635.813349,13406
1659430635.851944,13406
1659430635.891223,13404
1659430635.930502,13413
1659430635.969781,13408
1659430636.012305,13406
1659430636.054829,13410
1659430636.092741,13418
1659430636.130654,13419
1659430636.168567,13417
1659430636.210578,13418
1659430636.25259,13415
1659430636.296651,13422
1659430636.340712,13415
1659430636.384772,13417
1659430636.418074,13425
1659430636.451376,13423
1659430636.495778,13423
1659430636.54018,13438
1659430636.584583,13437
1659430636.618397,13440
1659430636.652211,13443
1659430636.696272,13436
1659430636.740333,13439
1659430636.784393,13439
1659430636.823331,13438
1659430636.862268,13446
1659430636.901206,13448
1659430636.943729,13449
1659430636.986253,13450
1659430637.024508,13464
1659430637.062762,13462
1659430637.101016,13460
1659430637.14149,13454
1659430637.181965,13462
1659430637.221244,13470
1659430637.260523,13470
1659430637.299802,13471
1659430637.338398,13468
1659430637.376994,13483
1659430637.41559,13474
1659430637.457089,13478
1659430637.498588,13477
1659430637.536842,13475
1659430637.575096,13488
1659430637.613351,13485
1659430637.651947,13488
1659430637.690542,13490
1659430637.729138,13491
1659430637.77115,13486
1659430637.813161,13492
1659430637.855173,13488
1659430637.897184,13483
1659430637.93578,13497
1659430637.974376,13490
1659430638.012972,13496
1659430638.057374,13500
1659430638.101776,13495
1659430638.146179,13494
1659430638.180505,13505
1659430638.214831,13503
1659430638.258892,13489
1659430638.302953,13502
1659430638.347014,13507
1659430638.379291,13507
1659430638.411568,13503
1659430638.456312,13496
1659430638.501056,13513
1659430638.545799,13506
1659430638.584054,13506
1659430638.622308,13500
1659430638.660563,13523
1659430638.703086,13505
1659430638.74561,13518
1659430638.784206,13510
1659430638.822802,13517
1659430638.861398,13533
1659430638.903409,13520
1659430638.945421,13519
1659430638.984016,13526
1659430639.022612,13548
1659430639.061208,13543
1659430639.100487,13553
1659430639.139766,13548
1659430639.179045,13527
1659430639.221056,13535
1659430639.263068,13532
1659430639.302006,13529
1659430639.340943,13527
1659430639.37988,13522
1659430639.420867,13522
1659430639.461854,13539
1659430639.501133,13539
1659430639.540412,13547
1659430639.579691,13555
1659430639.62119,13561
1659430639.662689,13575
1659430639.701285,13580
1659430639.739881,13574
1659430639.778477,13569
1659430639.819976,13576
1659430639.861475,13572
1659430639.900412,13573
1659430639.93935,13584
1659430639.978287,13596
1659430640.022348,13599
1659430640.066409,13595
1659430640.110469,13595
1659430640.152993,13603
1659430640.195517,13605
1659430640.234113,13610
1659430640.272709,13612
1659430640.311305,13615
1659430640.352804,13601
1659430640.394303,13620
1659430640.432557,13605
1659430640.470811,13607
1659430640.509066,13618
1659430640.548003,13617
1659430640.586941,13616
1659430640.625878,13607
1659430640.667377,13598
1659430640.708876,13599
1659430640.747814,13592
1659430640.786751,13592
1659430640.825689,13593
1659430640.863943,13609
1659430640.902197,13610
1659430640.940451,13593
1659430640.981438,13590
1659430641.022425,13601
1659430641.062387,13605
1659430641.102349,13615
1659430641.142311,13617
1659430641.18381,13644
1659430641.225309,13642
1659430641.266809,13637
1659430641.308308,13645
1659430641.349807,13659
1659430641.391306,13660
1659430641.430926,13672
1659430641.470547,13685
1659430641.510168,13688
1659430641.54808,13712
1659430641.585993,13718
1659430641.623906,13739
1659430641.66438,13747
1659430641.704855,13735
1659430641.744134,13729
1659430641.783413,13735
1659430641.822692,13729
1659430641.864703,13731
1659430641.906714,13738
1659430641.94531,13737
1659430641.983906,13757
1659430642.022502,13755
1659430642.064001,13758
1659430642.1055,13771
1659430642.150244,13769
1659430642.194988,13780
1659430642.239732,13776
1659430642.273034,13793
1659430642.306335,13789
1659430642.351421,13807
1659430642.396506,13795
1659430642.441592,13790
1659430642.480529,13793
1659430642.519467,13778
1659430642.558404,13771
1659430642.599391,13762
1659430642.640378,13751
1659430642.679657,13734
1659430642.718935,13731
1659430642.758214,13704
1659430642.800226,13702
1659430642.842237,13705
1659430642.88015,13697
1659430642.918063,13708
1659430642.955976,13704
1659430642.994913,13715
1659430643.033851,13712
1659430643.072788,13724
1659430643.113775,13734
1659430643.154762,13740
1659430643.193699,13743
1659430643.232636,13757
1659430643.271574,13767
1659430643.310511,13776
1659430643.349449,13783
1659430643.388386,13787
1659430643.429885,13800
1659430643.471384,13801
1659430643.50998,13799
1659430643.548576,13798
1659430643.587172,13801
1659430643.629183,13803
1659430643.671195,13792
1659430643.713206,13774
1659430643.755218,13779
1659430643.793472,13785
1659430643.831726,13782
1659430643.869981,13789
1659430643.914042,13797
1659430643.958102,13804
1659430644.002163,13818
1659430644.035465,13816
1659430644.068766,13814
1659430644.112827,13825
1659430644.156888,13817
1659430644.200949,13818
1659430644.239545,13824
1659430644.278141,13829
1659430644.316736,13833
1659430644.358748,13828
1659430644.400759,13835
1659430644.439355,13833
1659430644.477951,13824
1659430644.516547,13825
1659430644.555143,13828
1659430644.593739,13828
1659430644.632334,13823
1659430644.674858,13830
1659430644.717382,13838
1659430644.756661,13840
1659430644.79594,13854
1659430644.835219,13863
1659430644.876206,13871
1659430644.917192,13867
1659430644.95613,13873
1659430644.995067,13876
1659430645.034005,13886
1659430645.076529,13887
1659430645.119052,13880
1659430645.157648,13894
1659430645.196244,13894
1659430645.23484,13894
1659430645.279242,13893
1659430645.323645,13894
1659430645.368047,13894
1659430645.401349,13899
1659430645.43465,13901
1659430645.478711,13902
1659430645.522772,13916
1659430645.566833,13914
1659430645.606112,13923
1659430645.645391,13916
1659430645.68467,13918
1659430645.726681,13919
1659430645.768692,13928
1659430645.807288,13930
1659430645.845884,13936
1659430645.88448,13943
1659430645.923759,13945
1659430645.963038,13953
1659430646.002317,13943
1659430646.043304,13945
1659430646.084291,13949
1659430646.122887,13957
1659430646.161483,13959
1659430646.200078,13955
1659430646.241065,13955
1659430646.282052,13954
1659430646.321331,13967
1659430646.36061,13970
1659430646.399889,13968
1659430646.440363,13981
1659430646.480838,13972
1659430646.520117,13973
1659430646.559396,13977
1659430646.598675,13982
1659430646.640686,13985
1659430646.682698,13993
1659430646.720952,13983
1659430646.759206,13997
1659430646.797461,14001
1659430646.841863,13997
1659430646.886265,14004
1659430646.930667,13991
1659430646.964482,13988
1659430646.998296,13988
1659430647.042698,13993
1659430647.0871,14001
1659430647.131503,14000
1659430647.16378,14006
1659430647.196057,14007
1659430647.240801,14022
1659430647.285545,14018
1659430647.330288,14016
1659430647.368201,14022
1659430647.406114,14019
1659430647.444027,14023
1659430647.485526,14015
1659430647.527025,14031
1659430647.566304,14035
1659430647.605583,14049
1659430647.644862,14038
1659430647.683458,14037
1659430647.722054,14049
1659430647.760649,14048
1659430647.802661,14052
1659430647.844672,14051
1659430647.883951,14053
1659430647.92323,14055
1659430647.962509,14066
1659430648.004521,14069
1659430648.046532,14072
1659430648.08547,14074
1659430648.124407,14064
1659430648.163344,14067
1659430648.204844,14075
1659430648.246343,14071
1659430648.284939,14073
1659430648.323534,14083
1659430648.36213,14085
1659430648.404142,14090
1659430648.446153,14112
1659430648.48509,14102
1659430648.524028,14111
1659430648.562965,14111
1659430648.603952,14112
1659430648.644939,14126
1659430648.689,14123
1659430648.733061,14134
1659430648.777121,14134
1659430648.8164,14127
1659430648.855679,14128
1659430648.894958,14140
1659430648.937482,14124
1659430648.980006,14133
1659430649.018602,14130
1659430649.057198,14130
1659430649.095793,14123
1659430649.137293,14127
1659430649.178792,14126
1659430649.218071,14130
1659430649.257349,14129
1659430649.296628,14132
1659430649.334883,14135
1659430649.373137,14129
1659430649.411391,14140
1659430649.453403,14133
1659430649.495414,14143
1659430649.53401,14139
1659430649.572606,14145
1659430649.611202,14144
1659430649.649798,14139
1659430649.688394,14151
1659430649.72699,14151
1659430649.77105,14155
1659430649.815111,14159
1659430649.859172,14164
1659430649.898109,14174
1659430649.937047,14171
1659430649.975984,14162
1659430650.017483,14163
1659430650.058982,14172
1659430650.09792,14169
1659430650.136857,14176
1659430650.175795,14185
1659430650.216782,14183
1659430650.257768,14187
1659430650.296706,14191
1659430650.335643,14191
1659430650.374581,14195
1659430650.412835,14190
1659430650.451089,14195
1659430650.489343,14191
1659430650.53238,14201
1659430650.575416,14192
1659430650.61367,14189
1659430650.651924,14205
1659430650.690179,14207
1659430650.728775,14209
1659430650.76737,14199
1659430650.805966,14206
1659430650.847465,14200
1659430650.888964,14209
1659430650.930976,14214
1659430650.972987,14209
1659430651.011242,14220
1659430651.049496,14223
1659430651.08775,14228
1659430651.130274,14236
1659430651.172798,14234
1659430651.211735,14219
1659430651.250673,14231
1659430651.28961,14237
1659430651.334013,14245
1659430651.378415,14263
1659430651.422817,14275
1659430651.457144,14297
1659430651.49147,14301
1659430651.535872,14308
1659430651.580275,14313
1659430651.624677,14315
1659430651.665151,14323
1659430651.705626,14328
1659430651.744563,14338
1659430651.783501,14342
1659430651.822438,14349
1659430651.861034,14336
1659430651.89963,14344
1659430651.938226,14352
1659430651.979725,14355
1659430652.021224,14364
1659430652.060161,14367
1659430652.099099,14378
1659430652.138036,14371
1659430652.176974,14391
1659430652.215911,14398
1659430652.254848,14399
1659430652.295835,14407
1659430652.336822,14400
1659430652.376443,14397
1659430652.416063,14388
1659430652.455684,14395
1659430652.497183,14399
1659430652.538682,14400
1659430652.577278,14407
1659430652.615874,14396
1659430652.654469,14396
1659430652.695456,14394
1659430652.736443,14409
1659430652.775722,14412
1659430652.815001,14416
1659430652.85428,14434
1659430652.894754,14443
1659430652.935229,14440
1659430652.973825,14431
1659430653.012421,14441
1659430653.051016,14431
1659430653.095419,14432
1659430653.139821,14424
1659430653.184223,14417
1659430653.22521,14417
1659430653.266197,14421
1659430653.305134,14413
1659430653.344072,14399
1659430653.383009,14397
1659430653.425021,14395
1659430653.467032,14407
1659430653.505628,14408
1659430653.544224,14410
1659430653.58282,14422
1659430653.621757,14423
1659430653.660695,14423
1659430653.699632,14421
1659430653.742156,14432
1659430653.78468,14422
1659430653.823276,14423
1659430653.861871,14421
1659430653.900467,14420
1659430653.940942,14427
1659430653.981416,14432
1659430654.020354,14426
1659430654.059291,14427
1659430654.098228,14427
1659430654.137166,14419
1659430654.176103,14427
1659430654.215041,14428
1659430654.25654,14419
1659430654.298039,14438
1659430654.337318,14436
1659430654.376597,14437
1659430654.415876,14450
1659430654.4584,14443
1659430654.500923,14447
1659430654.544984,14448
1659430654.589045,14440
1659430654.633106,14448
1659430654.66692,14461
1659430654.700734,14464
1659430654.745478,14465
1659430654.790222,14460
1659430654.834965,14453
1659430654.867755,14456
1659430654.900544,14460
1659430654.944605,14471
1659430654.988666,14479
1659430655.032727,14473
1659430655.071664,14467
1659430655.110601,14454
1659430655.149539,14429
1659430655.191038,14412
1659430655.232537,14414
1659430655.271133,14404
1659430655.309729,14398
1659430655.348325,14400
1659430655.387604,14396
1659430655.426883,14403
1659430655.466162,14414
1659430655.507149,14429
1659430655.548135,14442
1659430655.586731,14447
1659430655.625327,14450
1659430655.663923,14449
1659430655.706959,14469
1659430655.749995,14466
1659430655.788591,14474
1659430655.827187,14478
1659430655.865783,14480
1659430655.90472,14473
1659430655.943658,14462
1659430655.982595,14457
1659430656.024094,14452
1659430656.065593,14453
1659430656.107092,14442
1659430656.148591,14453
1659430656.186504,14466
1659430656.224417,14471
1659430656.26233,14473
1659430656.307074,14481
1659430656.351817,14492
1659430656.396561,14495
1659430656.428838,14474
1659430656.461115,14452
1659430656.505176,14455
1659430656.549237,14479
1659430656.593298,14499
1659430656.627624,14531
1659430656.661951,14526
1659430656.706695,14519
1659430656.751438,14516
1659430656.796182,14515
1659430656.834437,14517
1659430656.872691,14516
1659430656.910945,14522
1659430656.953469,14516
1659430656.995993,14532
1659430657.035272,14527
1659430657.074551,14526
1659430657.11383,14540
1659430657.154304,14548
1659430657.194779,14552
1659430657.232691,14551
1659430657.270604,14560
1659430657.308517,14535
1659430657.34643,14538
1659430657.387416,14524
1659430657.428403,14510
1659430657.469902,14520
1659430657.511401,14512
1659430657.550339,14512
1659430657.589276,14509
1659430657.628214,14514
1659430657.672958,14515
1659430657.717701,14507
1659430657.762445,14503
1659430657.795235,14498
1659430657.828024,14508
1659430657.872768,14510
1659430657.917512,14526
1659430657.962256,14526
1659430658.001535,14530
1659430658.040814,14538
1659430658.080093,14553
1659430658.121592,14557
1659430658.163091,14558
1659430658.202029,14575
1659430658.240966,14580
1659430658.279903,14588
1659430658.318499,14582
1659430658.357095,14579
1659430658.395691,14582
1659430658.436678,14575
1659430658.477664,14566
1659430658.51626,14564
1659430658.554856,14576
1659430658.593452,14564
1659430658.635976,14575
1659430658.678499,14576
1659430658.716754,14574
1659430658.755008,14579
1659430658.793262,14589
1659430658.8322,14586
1659430658.871137,14595
1659430658.910075,14588
1659430658.951574,14580
1659430658.993073,14564
1659430659.035084,14565
1659430659.077096,14562
1659430659.115692,14567
1659430659.154288,14581
1659430659.192883,14595
1659430659.237627,14599
1659430659.282371,14603
1659430659.327115,14604
1659430659.359905,14595
1659430659.392694,14590
1659430659.436413,14583
1659430659.480132,14600
1659430659.523852,14598
1659430659.557666,14604
1659430659.59148,14611
1659430659.635882,14609
1659430659.680285,14625
1659430659.724687,14625
1659430659.762941,14623
1659430659.801195,14619
1659430659.83945,14620
1659430659.880949,14617
1659430659.922448,14618
1659430659.962069,14622
1659430660.001689,14627
1659430660.04131,14632
1659430660.079564,14631
1659430660.117818,14633
1659430660.156073,14648
1659430660.197572,14648
1659430660.239071,14657
1659430660.278691,14656
1659430660.318312,14653
1659430660.357932,14653
1659430660.395845,14656
1659430660.433758,14656
1659430660.471671,14662
1659430660.514707,14675
1659430660.557743,14684
1659430660.599242,14678
1659430660.640741,14677
1659430660.678654,14671
1659430660.716567,14670
1659430660.754479,14667
1659430660.798882,14659
1659430660.843284,14655
1659430660.887686,14648
1659430660.922013,14631
1659430660.956339,14620
1659430661.000741,14607
1659430661.045144,14598
1659430661.089546,14586
1659430661.122848,14578
1659430661.15615,14561
1659430661.201235,14543
1659430661.24632,14537
1659430661.291406,14536
1659430661.32966,14537
1659430661.367915,14549
1659430661.406169,14559
1659430661.44818,14572
1659430661.490192,14579
1659430661.529471,14580
1659430661.56875,14595
1659430661.608029,14605
1659430661.648503,14633
1659430661.688978,14645
1659430661.727573,14653
1659430661.766169,14657
1659430661.804765,14662
1659430661.843361,14654
1659430661.881957,14662
1659430661.920553,14672
1659430661.962052,14657
1659430662.003551,14659
1659430662.041805,14661
1659430662.08006,14669
1659430662.118314,14665
1659430662.160326,14674
1659430662.202337,14650
1659430662.240933,14658
1659430662.279529,14671
1659430662.318125,14671
1659430662.360136,14677
1659430662.402147,14687
1659430662.441085,14687
1659430662.480022,14690
1659430662.51896,14705
1659430662.560459,14700
1659430662.601958,14706
1659430662.643201,14712
1659430662.684444,14711
1659430662.725687,14721
1659430662.76693,14726
1659430662.808429,14724
1659430662.849928,14722
1659430662.888865,14726
1659430662.927803,14728
1659430662.96674,14728
1659430663.007727,14729
1659430663.048714,14731
1659430663.087651,14738
1659430663.126588,14737
1659430663.165526,14734
1659430663.204463,14734
1659430663.243401,14732
1659430663.282338,14726
1659430663.323837,14714
1659430663.365336,14735
1659430663.404615,14733
1659430663.443894,14755
1659430663.483173,14750
1659430663.524673,14738
1659430663.566172,14737
1659430663.605109,14726
1659430663.644046,14727
1659430663.682984,14724
1659430663.724995,14718
1659430663.767007,14700
1659430663.806286,14701
1659430663.845565,14680
1659430663.884844,14659
1659430663.925318,14655
1659430663.965792,14653
1659430664.004388,14640
1659430664.042984,14627
1659430664.08158,14626
1659430664.125983,14617
1659430664.170385,14632
1659430664.214787,14635
1659430664.257311,14638
1659430664.299835,14653
1659430664.338772,14648
1659430664.37771,14652
1659430664.416647,14657
1659430664.458658,14671
1659430664.50067,14688
1659430664.539607,14713
1659430664.578545,14708
1659430664.617482,14697
1659430664.65642,14700
1659430664.695357,14696
1659430664.734294,14698
1659430664.776818,14686
1659430664.819342,14683
1659430664.857938,14680
1659430664.896534,14667
1659430664.93513,14665
1659430664.973042,14656
1659430665.010955,14670
1659430665.048868,14670
1659430665.090879,14683
1659430665.132891,14692
1659430665.171145,14691
1659430665.209399,14695
1659430665.247654,14695
1659430665.289153,14704
1659430665.330652,14709
1659430665.369589,14710
1659430665.408527,14717
1659430665.447464,14727
1659430665.488963,14736
1659430665.530462,14748
1659430665.568717,14752
1659430665.606971,14754
1659430665.645225,14760
1659430665.687749,14761
1659430665.730273,14756
1659430665.775017,14757
1659430665.819761,14773
1659430665.864505,14773
1659430665.902759,14769
1659430665.941013,14773
1659430665.979267,14770
1659430666.020766,14766
1659430666.062266,14785
1659430666.101203,14776
1659430666.140141,14784
1659430666.179078,14784
1659430666.217674,14780
1659430666.25627,14781
1659430666.294866,14787
1659430666.336877,14788
1659430666.378888,14788
1659430666.417484,14786
1659430666.45608,14779
1659430666.494676,14776
1659430666.535663,14768
1659430666.57665,14755
1659430666.615929,14758
1659430666.655208,14760
1659430666.694487,14751
1659430666.733766,14755
1659430666.773045,14743
1659430666.812324,14738
1659430666.85331,14721
1659430666.894297,14716
1659430666.933576,14698
1659430666.972855,14692
1659430667.012134,14683
1659430667.054658,14684
1659430667.097182,14704
1659430667.141242,14706
1659430667.185303,14722
1659430667.229364,14728
1659430667.262153,14739
1659430667.294943,14737
1659430667.339687,14754
1659430667.38443,14743
1659430667.429174,14754
1659430667.462476,14758
1659430667.495778,14751
1659430667.54018,14745
1659430667.584583,14742
1659430667.628985,14746
1659430667.668264,14736
1659430667.707543,14746
1659430667.746822,14734
1659430667.788321,14734
1659430667.82982,14740
1659430667.868416,14740
1659430667.907012,14746
1659430667.945608,14763
1659430667.988131,14767
1659430668.030655,14751
1659430668.069251,14754
1659430668.107847,14745
1659430668.146443,14746
1659430668.18538,14761
1659430668.224318,14757
1659430668.263255,14766
1659430668.304242,14762
1659430668.345229,14764
1659430668.383824,14766
1659430668.42242,14774
1659430668.461016,14777
1659430668.49927,14780
1659430668.537525,14781
1659430668.575779,14767
1659430668.61779,14780
1659430668.659802,14772
1659430668.700789,14775
1659430668.741776,14782
1659430668.780713,14785
1659430668.81965,14786
1659430668.858588,14777
1659430668.90299,14794
1659430668.947392,14773
1659430668.991795,14788
1659430669.025609,14757
1659430669.059423,14748
1659430669.103484,14746
1659430669.147545,14753
1659430669.191605,14752
1659430669.224395,14765
1659430669.257184,14765
1659430669.301586,14770
1659430669.345989,14776
1659430669.390391,14767
1659430669.429328,14752
1659430669.468266,14758
1659430669.507203,14753
1659430669.548702,14750
1659430669.590202,14755
1659430669.629481,14756
1659430669.66876,14766
1659430669.708039,14766
1659430669.746293,14772
1659430669.784547,14776
1659430669.822802,14786
1659430669.864301,14771
1659430669.9058,14750
1659430669.945762,14733
1659430669.985724,14718
1659430670.025686,14722
1659430670.067185,14720
1659430670.108684,14724
1659430670.14728,14715
1659430670.185876,14717
1659430670.224472,14719
1659430670.266996,14726
1659430670.309519,14722
1659430670.348798,14720
1659430670.388077,14726
1659430670.427356,14716
1659430670.471417,14714
1659430670.515478,14700
1659430670.559539,14707
1659430670.59284,14689
1659430670.626142,14694
1659430670.670203,14661
1659430670.714264,14617
1659430670.758324,14582
1659430670.796237,14538
1659430670.83415,14515
1659430670.872063,14521
1659430670.911683,14549
1659430670.951304,14561
1659430670.990924,14580
1659430671.032936,14599
1659430671.074947,14608
1659430671.113885,14618
1659430671.152822,14627
1659430671.19176,14650
1659430671.230697,14645
1659430671.269634,14650
1659430671.308572,14655
1659430671.350071,14667
1659430671.39157,14665
1659430671.429824,14675
1659430671.468079,14683
1659430671.506333,14677
1659430671.548857,14682
1659430671.591381,14665
1659430671.635441,14663
1659430671.679502,14669
1659430671.723563,14676
1659430671.75584,14689
1659430671.788117,14701
1659430671.832519,14707
1659430671.876922,14711
1659430671.921324,14717
1659430671.954626,14710
1659430671.987927,14718
1659430672.031647,14719
1659430672.075366,14717
1659430672.119085,14735
1659430672.158364,14734
1659430672.197643,14738
1659430672.236922,14733
1659430672.278421,14738
1659430672.31992,14737
1659430672.358516,14735
1659430672.397112,14733
1659430672.435708,14730
1659430672.477719,14734
1659430672.519731,14742
1659430672.55901,14740
1659430672.598289,14742
1659430672.637568,14752
1659430672.675822,14757
1659430672.714076,14760
1659430672.752331,14756
1659430672.79383,14759
1659430672.835329,14767
1659430672.874608,14762
1659430672.913887,14761
1659430672.953166,14758
1659430672.994665,14745
1659430673.036164,14744
1659430673.07476,14751
1659430673.113356,14772
1659430673.151952,14770
1659430673.193963,14769
1659430673.235975,14756
1659430673.275254,14739
1659430673.314533,14752
1659430673.353812,14747
1659430673.395311,14744
1659430673.43681,14735
1659430673.476089,14742
1659430673.515368,14735
1659430673.554647,14751
1659430673.599391,14752
1659430673.644135,14752
1659430673.688878,14753
1659430673.729353,14751
1659430673.769827,14755
1659430673.809448,14761
1659430673.849068,14756
1659430673.888689,14749
1659430673.929676,14753
1659430673.970662,14757
1659430674.009258,14763
1659430674.047854,14777
1659430674.08645,14782
1659430674.125046,14769
1659430674.163642,14746
1659430674.202238,14752
1659430674.244761,14747
1659430674.287285,14758
1659430674.325881,14754
1659430674.364477,14760
1659430674.403073,14766
1659430674.444572,14761
1659430674.486071,14771
1659430674.52535,14768
1659430674.564629,14759
1659430674.603908,14764
1659430674.642162,14763
1659430674.680417,14763
1659430674.718671,14768
1659430674.760682,14775
1659430674.802694,14774
1659430674.841631,14788
1659430674.880569,14785
1659430674.919506,14781
1659430674.95998,14777
1659430675.000455,14770
1659430675.039051,14768
1659430675.077646,14771
1659430675.116242,14772
1659430675.158254,14768
1659430675.200265,14770
1659430675.243984,14768
1659430675.287704,14776
1659430675.331423,14782
1659430675.369677,14784
1659430675.407932,14796
1659430675.446186,14799
1659430675.485806,14785
1659430675.525427,14781
1659430675.565048,14787
1659430675.606034,14788
1659430675.647021,14792
1659430675.685959,14801
1659430675.724896,14797
1659430675.763834,14812
1659430675.803113,14798
1659430675.842391,14795
1659430675.88167,14796
1659430675.923169,14795
1659430675.964669,14793
1659430676.003264,14790
1659430676.04186,14799
1659430676.080456,14805
1659430676.1252,14815
1659430676.169944,14816
1659430676.214688,14822
1659430676.252601,14821
1659430676.290513,14816
1659430676.328426,14810
1659430676.37095,14808
1659430676.413474,14816
1659430676.452411,14813
1659430676.491349,14835
1659430676.530286,14828
1659430676.571785,14820
1659430676.613284,14831
1659430676.652222,14830
1659430676.691159,14822
1659430676.730096,14820
1659430676.772108,14814
1659430676.814119,14813
1659430676.856131,14815
1659430676.898142,14818
1659430676.930932,14819
1659430676.963721,14836
1659430677.008123,14839
1659430677.052526,14842
1659430677.096928,14835
1659430677.130742,14826
1659430677.164556,14833
1659430677.208275,14833
1659430677.251995,14845
1659430677.295714,14841
1659430677.334651,14841
1659430677.373589,14840
1659430677.412526,14847
1659430677.453513,14845
1659430677.4945,14847
1659430677.533437,14835
1659430677.572375,14826
1659430677.611312,14827
1659430677.650249,14831
1659430677.689187,14837
1659430677.728124,14838
1659430677.770136,14842
1659430677.812147,14834
1659430677.850743,14838
1659430677.889339,14841
1659430677.927935,14843
1659430677.969946,14840
1659430678.011958,14833
1659430678.050895,14828
1659430678.089833,14827
1659430678.12877,14837
1659430678.169757,14841
1659430678.210743,14853
1659430678.248998,14856
1659430678.287252,14849
1659430678.325506,14847
1659430678.367518,14832
1659430678.409529,14826
1659430678.448467,14830
1659430678.487404,14835
1659430678.526341,14835
1659430678.570061,14835
1659430678.61378,14844
1659430678.657499,14841
1659430678.690289,14845
1659430678.723078,14842
1659430678.767822,14843
1659430678.812566,14849
1659430678.85731,14853
1659430678.895905,14857
1659430678.934501,14863
1659430678.973097,14867
1659430679.015621,14869
1659430679.058145,14875
1659430679.097424,14869
1659430679.136703,14870
1659430679.175982,14874
1659430679.216969,14870
1659430679.257955,14865
1659430679.296893,14862
1659430679.33583,14868
1659430679.374768,14860
1659430679.417804,14877
1659430679.46084,14857
1659430679.499094,14858
1659430679.537349,14875
1659430679.575603,14873
1659430679.61454,14871
1659430679.653478,14867
1659430679.692415,14876
1659430679.733914,14866
1659430679.775413,14879
1659430679.813668,14871
1659430679.851922,14879
1659430679.890176,14884
1659430679.932188,14879
1659430679.974199,14888
1659430680.01382,14878
1659430680.05344,14882
1659430680.093061,14882
1659430680.13456,14888
1659430680.176059,14891
1659430680.214996,14884
1659430680.253934,14896
1659430680.292871,14896
1659430680.335395,14903
1659430680.377919,14895
1659430680.421979,14892
1659430680.46604,14901
1659430680.510101,14902
1659430680.548355,14905
1659430680.58661,14917
1659430680.624864,14911
1659430680.666875,14898
1659430680.708887,14919
1659430680.747141,14900
1659430680.785395,14910
1659430680.82365,14917
1659430680.865149,14914
1659430680.906648,14916
1659430680.946269,14919
1659430680.985889,14919
1659430681.02551,14907
1659430681.063764,14891
1659430681.102018,14898
1659430681.140273,14894
1659430681.181259,14899
1659430681.222246,14905
1659430681.261867,14898
1659430681.301487,14906
1659430681.341108,14909
1659430681.379704,14902
1659430681.418299,14903
1659430681.456895,14896
1659430681.498394,14897
1659430681.539894,14908
1659430681.578831,14906
1659430681.617769,14924
1659430681.656706,14919
1659430681.698717,14912
1659430681.740729,14910
1659430681.784448,14912
1659430681.828167,14908
1659430681.871886,14914
1659430681.911165,14914
1659430681.950444,14919
1659430681.989723,14924
1659430682.03071,14909
1659430682.071697,14895
1659430682.110634,14899
1659430682.149572,14892
1659430682.188509,14890
1659430682.231033,14885
1659430682.273557,14895
1659430682.312494,14885
1659430682.351432,14897
1659430682.390369,14896
1659430682.428965,14890
1659430682.467561,14896
1659430682.506157,14885
1659430682.548168,14891
1659430682.590179,14887
1659430682.628775,14895
1659430682.667371,14904
1659430682.705967,14903
1659430682.747978,14907
1659430682.78999,14898
1659430682.828586,14910
1659430682.867182,14892
1659430682.905777,14904
1659430682.945056,14893
1659430682.984335,14895
1659430683.023614,14897
1659430683.064089,14897
1659430683.104563,14899
1659430683.143501,14897
1659430683.182438,14898
1659430683.221376,14895
1659430683.263899,14905
1659430683.306423,14896
1659430683.350826,14891
1659430683.395228,14910
1659430683.43963,14906
1659430683.478568,14913
1659430683.517505,14906
1659430683.556442,14909
1659430683.598454,14901
1659430683.640465,14914
1659430683.67872,14895
1659430683.716974,14900
1659430683.755228,14905
1659430683.79724,14899
1659430683.839251,14892
1659430683.877847,14891
1659430683.916443,14899
1659430683.955039,14894
1659430683.993635,14892
1659430684.032231,14899
1659430684.070827,14896
1659430684.111301,14903
1659430684.151775,14903
1659430684.191396,14896
1659430684.231016,14899
1659430684.270637,14902
1659430684.312136,14897
1659430684.353635,14906
1659430684.391889,14907
1659430684.430144,14898
1659430684.468398,14904
1659430684.508018,14909
1659430684.547639,14908
1659430684.58726,14892
1659430684.629271,14893
1659430684.671283,14906
1659430684.712269,14899
1659430684.753256,14905
1659430684.791852,14897
1659430684.830448,14907
1659430684.869044,14890
1659430684.913446,14911
1659430684.957848,14894
1659430685.002251,14897
1659430685.03504,14916
1659430685.06783,14918
1659430685.11189,14911
1659430685.155951,14900
1659430685.200012,14907
1659430685.238949,14904
1659430685.277887,14916
1659430685.316824,14916
1659430685.357299,14916
1659430685.397773,14922
1659430685.437052,14911
1659430685.476331,14915
1659430685.51561,14919
1659430685.558134,14902
1659430685.600657,14900
1659430685.638912,14904
1659430685.677166,14907
1659430685.71542,14905
1659430685.754699,14907
1659430685.793978,14910
1659430685.833257,14907
1659430685.875269,14927
1659430685.91728,14917
1659430685.955535,14911
1659430685.993789,14920
1659430686.032043,14915
1659430686.074567,14911
1659430686.117091,14915
1659430686.156028,14920
1659430686.194966,14927
1659430686.233903,14927
1659430686.274378,14921
1659430686.314852,14914
1659430686.353448,14919
1659430686.392044,14916
1659430686.43064,14910
1659430686.470807,14904
1659430686.510974,14906
1659430686.551141,14913
1659430686.591308,14923
1659430686.631475,14921
1659430686.672974,14922
1659430686.714473,14919
1659430686.753752,14918
1659430686.793031,14924
1659430686.83231,14920
1659430686.876712,14917
1659430686.921114,14922
1659430686.965517,14925
1659430687.007016,14930
1659430687.048515,14941
1659430687.087452,14929
1659430687.12639,14921
1659430687.165327,14920
1659430687.206314,14920
1659430687.247301,14908
1659430687.285555,14918
1659430687.323809,14921
1659430687.362064,14922
1659430687.40066,14925
1659430687.439255,14925
1659430687.477851,14927
1659430687.519863,14926
1659430687.561874,14918
1659430687.60047,14922
1659430687.639066,14925
1659430687.677662,14923
1659430687.716599,14932
1659430687.755537,14936
1659430687.794474,14941
1659430687.835973,14943
1659430687.877472,14941
1659430687.916751,14931
1659430687.95603,14935
1659430687.995309,14935
1659430688.036808,14941
1659430688.078308,14946
1659430688.117587,14940
1659430688.156866,14937
1659430688.196145,14933
1659430688.237131,14931
1659430688.278118,14928
1659430688.317055,14934
1659430688.355993,14930
1659430688.39493,14931
1659430688.43643,14934
1659430688.477929,14938
1659430688.521989,14941
1659430688.56605,14948
1659430688.610111,14943
1659430688.648707,14932
1659430688.687303,14932
1659430688.725899,14934
1659430688.76791,14932
1659430688.809921,14948
1659430688.8492,14948
1659430688.888479,14950
1659430688.927758,14946
1659430688.969257,14940
1659430689.010756,14932
1659430689.050035,14933
1659430689.089314,14939
1659430689.128593,14933
1659430689.170605,14926
1659430689.212616,14938
1659430689.251895,14934
1659430689.291174,14947
1659430689.330453,14948
1659430689.369391,14943
1659430689.408328,14939
1659430689.447266,14943
1659430689.488765,14940
1659430689.530264,14938
1659430689.568177,14935
1659430689.606089,14935
1659430689.644002,14943
1659430689.686526,14943
1659430689.72905,14945
1659430689.767987,14935
1659430689.806925,14933
1659430689.845862,14938
1659430689.886849,14952
1659430689.927835,14944
1659430689.966773,14944
1659430690.00571,14947
1659430690.044648,14953
1659430690.087172,14958
1659430690.129695,14953
1659430690.16795,14947
1659430690.206204,14949
1659430690.244458,14951
1659430690.288861,14951
1659430690.333263,14951
1659430690.377665,14952
1659430690.410455,14956
1659430690.443244,14972
1659430690.487305,14963
1659430690.531366,14958
1659430690.575426,14948
1659430690.614022,14934
1659430690.652618,14932
1659430690.691214,14937
1659430690.733738,14935
1659430690.776262,14942
1659430690.814174,14942
1659430690.852087,14941
1659430690.89,14928
1659430690.931499,14955
1659430690.972998,14949
1659430691.012277,14948
1659430691.051556,14945
1659430691.090835,14949
1659430691.129431,14953
1659430691.168027,14966
1659430691.206623,14960
1659430691.249146,14956
1659430691.29167,14961
1659430691.330949,14957
1659430691.370228,14965
1659430691.409507,14953
1659430691.450494,14949
1659430691.491481,14963
1659430691.529735,14950
1659430691.567989,14942
1659430691.606244,14941
1659430691.648767,14933
1659430691.691291,14941
1659430691.73279,14955
1659430691.774289,14941
1659430691.815788,14942
1659430691.857287,14945
1659430691.898787,14945
1659430691.940286,14948
1659430691.979223,14945
1659430692.018161,14947
1659430692.057098,14943
1659430692.096035,14941
1659430692.134973,14940
1659430692.17391,14935
1659430692.215922,14931
1659430692.257933,14920
1659430692.297212,14924
1659430692.336491,14925
1659430692.37577,14922
1659430692.417269,14908
1659430692.458768,14905
1659430692.497706,14903
1659430692.536643,14905
1659430692.575581,14919
1659430692.614518,14924
1659430692.653455,14942
1659430692.692393,14932
1659430692.734917,14930
1659430692.77744,14943
1659430692.817915,14938
1659430692.858389,14934
1659430692.896985,14936
1659430692.935581,14937
1659430692.974177,14939
1659430693.018238,14947
1659430693.062299,14943
1659430693.106359,14934
1659430693.140173,14943
1659430693.173987,14935
1659430693.21839,14936
1659430693.262792,14928
1659430693.307194,14932
1659430693.340496,14926
1659430693.373798,14952
1659430693.417859,14936
1659430693.461919,14931
1659430693.50598,14942
1659430693.544918,14941
1659430693.583855,14929
1659430693.622792,14929
1659430693.664804,14940
1659430693.706815,14939
1659430693.745411,14938
1659430693.784007,14938
1659430693.822603,14930
1659430693.86359,14941
1659430693.904577,14936
1659430693.943172,14944
1659430693.981768,14936
1659430694.020364,14932
1659430694.058619,14937
1659430694.096873,14953
1659430694.135127,14943
1659430694.176626,14940
1659430694.218125,14946
1659430694.257746,14948
1659430694.297366,14961
1659430694.336987,14956
1659430694.377974,14950
1659430694.41896,14955
1659430694.457215,14948
1659430694.495469,14946
1659430694.533723,14954
1659430694.57676,14962
1659430694.619796,14963
1659430694.658733,14965
1659430694.69767,14963
1659430694.736608,14952
1659430694.777595,14948
1659430694.818581,14949
1659430694.85786,14942
1659430694.897139,14947
1659430694.936418,14957
1659430694.980821,14961
1659430695.025223,14959
1659430695.069625,14955
1659430695.111637,14947
1659430695.153648,14946
1659430695.192586,14943
1659430695.231523,14938
1659430695.270461,14943
1659430695.309056,14913
1659430695.347652,14906
1659430695.386248,14894
1659430695.427235,14897
1659430695.468222,14892
1659430695.508184,14894
1659430695.548146,14892
1659430695.588108,14888
1659430695.629607,14908
1659430695.671106,14899
1659430695.70936,14916
1659430695.747615,14922
1659430695.785869,14923
1659430695.825148,14922
1659430695.864427,14932
1659430695.903706,14938
1659430695.94623,14945
1659430695.988754,14952
1659430696.027008,14949
1659430696.065262,14948
1659430696.103517,14949
1659430696.144503,14941
1659430696.18549,14950
1659430696.224427,14936
1659430696.263365,14933
1659430696.302302,14936
1659430696.343801,14929
1659430696.385301,14920
1659430696.423897,14914
1659430696.462492,14922
1659430696.501088,14915
1659430696.5431,14913
1659430696.585111,14910
1659430696.629172,14912
1659430696.673233,14922
1659430696.717294,14920
1659430696.756231,14901
1659430696.795168,14910
1659430696.834106,14913
1659430696.876117,14904
1659430696.918128,14921
1659430696.955017,14914
1659430696.991905,14918
1659430697.028793,14926
1659430697.065681,14930
1659430697.10496,14939
1659430697.144239,14948
1659430697.183518,14942
1659430697.224505,14935
1659430697.265491,14940
1659430697.306478,14935
1659430697.347465,14943
1659430697.385719,14938
1659430697.423974,14942
1659430697.462228,14947
1659430697.507313,14936
1659430697.552399,14946
1659430697.597484,14941
1659430697.631298,14947
1659430697.665112,14950
1659430697.709515,14944
1659430697.753917,14935
1659430697.798319,14937
1659430697.831621,14940
1659430697.864923,14941
1659430697.909667,14946
1659430697.954411,14940
1659430697.999155,14949
1659430698.038434,14950
1659430698.077713,14945
1659430698.116992,14944
1659430698.158491,14948
1659430698.19999,14954
1659430698.238927,14951
1659430698.277864,14956
1659430698.316802,14957
1659430698.357276,14964
1659430698.397751,14966
1659430698.437371,14957
1659430698.476992,14955
1659430698.516613,14951
1659430698.555892,14959
1659430698.59517,14966
1659430698.634449,14975
1659430698.674924,14971
1659430698.715398,14968
1659430698.754677,14964
1659430698.793956,14964
1659430698.833235,14953
1659430698.875759,14944
1659430698.918283,14935
1659430698.956537,14930
1659430698.994792,14929
1659430699.033046,14920
1659430699.074545,14922
1659430699.116044,14937
1659430699.155664,14930
1659430699.195285,14937
1659430699.234905,14946
1659430699.276405,14949
1659430699.317904,14952
1659430699.3565,14952
1659430699.395096,14959
1659430699.433691,14952
1659430699.478094,14958
1659430699.522496,14966
1659430699.566898,14972
1659430699.607373,14966
1659430699.647847,14973
1659430699.686101,14975
1659430699.724356,14985
1659430699.76261,14987
1659430699.801889,14984
1659430699.841168,14988
1659430699.880447,14976
1659430699.921946,14972
1659430699.963445,14968
1659430700.002383,14966
1659430700.04132,14976
1659430700.080258,14982
1659430700.121757,14977
1659430700.163256,14975
1659430700.20151,14982
1659430700.239764,14982
1659430700.278019,14979
1659430700.316273,14964
1659430700.354527,14958
1659430700.392782,14948
1659430700.435306,14965
1659430700.477829,14968
1659430700.516083,14962
1659430700.554338,14952
1659430700.592592,14944
1659430700.633579,14963
1659430700.674566,14966
1659430700.713503,14970
1659430700.752441,14967
1659430700.791378,14974
1659430700.83339,14972
1659430700.875401,14970
1659430700.919462,14971
1659430700.963522,14962
1659430701.007583,14955
1659430701.041397,14940
1659430701.075211,14926
1659430701.119955,14913
1659430701.164699,14902
1659430701.209443,14894
1659430701.24838,14895
1659430701.287318,14888
1659430701.326255,14884
1659430701.368779,14882
1659430701.411303,14874
1659430701.449899,14881
1659430701.488495,14885
1659430701.527091,14889
1659430701.565345,14911
1659430701.603599,14917
1659430701.641853,14923
1659430701.683352,14923
1659430701.724852,14928
1659430701.764131,14913
1659430701.80341,14911
1659430701.842689,14907
1659430701.883675,14916
1659430701.924662,14926
1659430701.963258,14922
1659430702.001854,14935
1659430702.04045,14935
1659430702.079729,14942
1659430702.119008,14939
1659430702.158287,14957
1659430702.202348,14956
1659430702.246408,14947
1659430702.290469,14951
1659430702.329748,14950
1659430702.369027,14953
1659430702.408306,14956
1659430702.449805,14955
1659430702.491304,14956
1659430702.530242,14952
1659430702.569179,14940
1659430702.608116,14941
1659430702.646712,14949
1659430702.685308,14936
1659430702.723904,14939
1659430702.765403,14931
1659430702.806902,14926
1659430702.845157,14924
1659430702.883411,14917
1659430702.921665,14914
1659430702.960944,14905
1659430703.000223,14909
1659430703.039502,14895
1659430703.081001,14904
1659430703.1225,14882
1659430703.163487,14867
1659430703.204474,14855
1659430703.242728,14843
1659430703.280982,14835
1659430703.319237,14831
1659430703.363981,14835
1659430703.408725,14851
1659430703.453469,14886
1659430703.487283,14887
1659430703.521097,14898
1659430703.565499,14922
1659430703.609901,14931
1659430703.654304,14937
1659430703.687605,14946
1659430703.720907,14959
1659430703.764968,14965
1659430703.809029,14969
1659430703.85309,14980
1659430703.892027,14968
1659430703.930964,14962
1659430703.969902,14948
1659430704.011913,14947
1659430704.053925,14934
1659430704.092179,14894
1659430704.130433,14861
1659430704.168688,14861
1659430704.210187,14857
1659430704.251686,14860
1659430704.291648,14872
1659430704.33161,14873
1659430704.371572,14877
1659430704.410168,14875
1659430704.448764,14880
1659430704.48736,14896
1659430704.528347,14895
1659430704.569333,14903
1659430704.608954,14903
1659430704.648574,14930
1659430704.688195,14936
1659430704.730206,14948
1659430704.772218,14947
1659430704.810814,14932
1659430704.84941,14916
1659430704.888005,14893
1659430704.928992,14882
1659430704.969979,14879
1659430705.008916,14889
1659430705.047854,14884
1659430705.086791,14900
1659430705.12829,14895
1659430705.169789,14896
1659430705.214533,14914
1659430705.259277,14918
1659430705.304021,14922
1659430705.342617,14913
1659430705.381213,14913
1659430705.419809,14906
1659430705.460795,14903
1659430705.501782,14900
1659430705.541061,14888
1659430705.58034,14902
1659430705.619619,14892
1659430705.662143,14868
1659430705.704667,14827
1659430705.742921,14808
1659430705.781175,14807
1659430705.81943,14818
1659430705.858709,14821
1659430705.897988,14827
1659430705.937267,14837
1659430705.978253,14845
1659430706.01924,14856
1659430706.057494,14844
1659430706.095749,14839
1659430706.134003,14856
1659430706.172257,14861
1659430706.210512,14872
1659430706.248766,14861
1659430706.29129,14872
1659430706.333814,14873
1659430706.372068,14893
1659430706.410322,14889
1659430706.448576,14859
1659430706.490076,14846
1659430706.531575,14836
1659430706.570512,14840
1659430706.60945,14840
1659430706.648387,14850
1659430706.690911,14854
1659430706.733435,14865
1659430706.777837,14866
1659430706.822239,14874
1659430706.866642,14895
1659430706.899943,14902
1659430706.933245,14913
1659430706.977306,14908
1659430707.021367,14905
1659430707.065427,14906
1659430707.104365,14918
1659430707.143302,14924
1659430707.18224,14933
1659430707.224763,14940
1659430707.267287,14929
1659430707.305883,14915
1659430707.344479,14904
1659430707.383075,14892
1659430707.421841,14910
1659430707.460608,14914
1659430707.499375,14911
1659430707.538141,14900
1659430707.576908,14913
1659430707.615675,14914
1659430707.660077,14924
1659430707.704479,14923
1659430707.748882,14918
1659430707.782696,14928
1659430707.81651,14921
1659430707.861254,14933
1659430707.905998,14936
1659430707.950742,14934
1659430707.984556,14930
1659430708.01837,14937
1659430708.062089,14925
1659430708.105808,14913
1659430708.149527,14911
1659430708.188465,14893
1659430708.227402,14889
1659430708.26634,14895
1659430708.308351,14911
1659430708.350363,14914
1659430708.388958,14919
1659430708.427554,14927
1659430708.46615,14926
1659430708.507137,14940
1659430708.548124,14940
1659430708.587061,14947
1659430708.625998,14941
1659430708.664936,14938
1659430708.70319,14933
1659430708.741445,14951
1659430708.779699,14963
1659430708.822223,14963
1659430708.864747,14969
1659430708.903684,14962
1659430708.942621,14961
1659430708.981559,14923
1659430709.022546,14905
1659430709.063532,14902
1659430709.10247,14896
1659430709.141407,14893
1659430709.180345,14891
1659430709.222868,14888
1659430709.265392,14877
1659430709.303305,14886
1659430709.341218,14889
1659430709.37913,14885
1659430709.423191,14891
1659430709.467252,14895
1659430709.511313,14898
1659430709.544102,14897
1659430709.576892,14903
1659430709.620952,14912
1659430709.665013,14916
1659430709.709074,14918
1659430709.750573,14916
1659430709.792072,14906
1659430709.831693,14889
1659430709.871313,14889
1659430709.910934,14898
1659430709.949188,14907
1659430709.987442,14920
1659430710.025697,14930
1659430710.067196,14937
1659430710.108695,14944
1659430710.147974,14949
1659430710.187253,14942
1659430710.226532,14958
1659430710.268031,14940
1659430710.30953,14944
1659430710.348126,14936
1659430710.386722,14935
1659430710.425318,14929
1659430710.464255,14921
1659430710.503192,14916
1659430710.54213,14900
1659430710.583629,14906
1659430710.625128,14879
1659430710.663724,14873
1659430710.70232,14886
1659430710.740916,14899
1659430710.782415,14926
1659430710.823914,14947
1659430710.862851,14956
1659430710.901789,14965
1659430710.940726,14990
1659430710.982738,14988
1659430711.024749,15003
1659430711.069834,15011
1659430711.11492,15005
1659430711.160005,14991
1659430711.192795,14983
1659430711.225584,14987
1659430711.269987,14987
1659430711.314389,14991
1659430711.358791,14999
1659430711.397729,14979
1659430711.436666,14972
1659430711.475604,14950
1659430711.517615,14947
1659430711.559626,14930
1659430711.597881,14929
1659430711.636135,14934
1659430711.674389,14942
1659430711.715889,14946
1659430711.757388,14950
1659430711.795983,14960
1659430711.834579,14965
1659430711.873175,14984
1659430711.911429,14979
1659430711.949684,14987
1659430711.987938,15000
1659430712.026875,15005
1659430712.065813,15005
1659430712.10475,14998
1659430712.149153,14999
1659430712.193555,14993
1659430712.237957,15006
1659430712.271771,14979
1659430712.305586,14967
1659430712.349988,14968
1659430712.39439,14962
1659430712.438792,14954
1659430712.47773,14966
1659430712.516667,14969
1659430712.555605,14972
1659430712.596079,14976
1659430712.636554,14969
1659430712.67421,14963
1659430712.711867,14973
1659430712.749523,14977
1659430712.78718,14983
1659430712.829191,14993
1659430712.871203,15007
1659430712.909116,15002
1659430712.947028,15006
1659430712.984941,15012
1659430713.02644,14997
1659430713.06794,14999
1659430713.107219,14987
1659430713.146497,14997
1659430713.185776,14988
1659430713.227275,14983
1659430713.268775,14993
1659430713.313519,14985
1659430713.358262,14985
1659430713.403006,14974
1659430713.43682,14970
1659430713.470634,14969
1659430713.514695,14976
1659430713.558756,14965
1659430713.602817,14965
1659430713.641412,14965
1659430713.680008,14952
1659430713.718604,14948
1659430713.761641,14948
1659430713.804677,14948
1659430713.842931,14943
1659430713.881185,14946
1659430713.91944,14904
1659430713.960426,14876
1659430714.001413,14854
1659430714.040692,14840
1659430714.079971,14826
1659430714.11925,14819
1659430714.157846,14820
1659430714.196442,14805
1659430714.235038,14810
1659430714.277049,14814
1659430714.319061,14818
1659430714.358681,14833
1659430714.398302,14834
1659430714.437922,14842
1659430714.479421,14834
1659430714.52092,14839
1659430714.559858,14838
1659430714.598795,14855
1659430714.637733,14862
1659430714.680256,14855
1659430714.72278,14830
1659430714.761034,14775
1659430714.799289,14754
1659430714.837543,14738
1659430714.878017,14748
1659430714.918492,14766
1659430714.957429,14770
1659430714.996367,14773
1659430715.035304,14776
1659430715.079365,14788
1659430715.123426,14783
1659430715.167487,14805
1659430715.200788,14804
1659430715.23409,14812
1659430715.278492,14817
1659430715.322895,14830
1659430715.367297,14825
1659430715.400086,14842
1659430715.432876,14839
1659430715.476937,14834
1659430715.520998,14825
1659430715.565058,14805
1659430715.604679,14782
1659430715.644299,14791
1659430715.68392,14778
1659430715.725419,14786
1659430715.766918,14780
1659430715.805514,14789
1659430715.84411,14788
1659430715.882706,14800
1659430715.924205,14804
1659430715.965704,14809
1659430716.004983,14813
1659430716.044262,14818
1659430716.083541,14826
1659430716.121795,14826
1659430716.160049,14828
1659430716.198304,14834
1659430716.239803,14839
1659430716.281302,14829
1659430716.319898,14835
1659430716.358494,14824
1659430716.397089,14785
1659430716.439101,14755
1659430716.481112,14732
1659430716.519708,14727
1659430716.558304,14739
1659430716.5969,14740
1659430716.638911,14746
1659430716.680923,14754
1659430716.720202,14751
1659430716.759481,14763
1659430716.79876,14780
1659430716.840259,14783
1659430716.881758,14791
1659430716.926844,14806
1659430716.971929,14807
1659430717.017015,14810
1659430717.05561,14811
1659430717.094206,14824
1659430717.132802,14826
1659430717.173789,14833
1659430717.214776,14813
1659430717.253713,14781
1659430717.29265,14775
1659430717.331588,14772
1659430717.370184,14778
1659430717.40878,14768
1659430717.447376,14770
1659430717.489387,14779
1659430717.531398,14796
1659430717.570677,14796
1659430717.609956,14797
1659430717.649235,14815
1659430717.688173,14812
1659430717.72711,14817
1659430717.766048,14809
1659430717.807034,14811
1659430717.848021,14827
1659430717.8873,14830
1659430717.926579,14835
1659430717.965858,14832
1659430718.009577,14819
1659430718.053297,14772
1659430718.097016,14731
1659430718.130317,14708
1659430718.163619,14696
1659430718.20768,14706
1659430718.251741,14712
1659430718.295802,14716
1659430718.334739,14712
1659430718.373677,14712
1659430718.412614,14709
1659430718.453088,14720
1659430718.493563,14718
1659430718.533183,14732
1659430718.572804,14735
1659430718.612424,14734
1659430718.650679,14737
1659430718.688933,14749
1659430718.727187,14752
1659430718.768174,14747
1659430718.809161,14744
1659430718.84844,14666
1659430718.887719,14620
1659430718.926998,14617
1659430718.969009,14615
1659430719.011021,14625
1659430719.049275,14635
1659430719.087529,14633
1659430719.125784,14651
1659430719.167795,14682
1659430719.209806,14697
1659430719.248402,14725
1659430719.286998,14747
1659430719.325594,14756
1659430719.367093,14764
1659430719.408592,14769
1659430719.447188,14772
1659430719.485784,14789
1659430719.52438,14790
1659430719.569124,14794
1659430719.613868,14796
1659430719.658612,14800
1659430719.690376,14798
1659430719.722141,14801
1659430719.767226,14793
1659430719.812312,14795
1659430719.857397,14800
1659430719.899921,14806
1659430719.942445,14817
1659430719.981041,14817
1659430720.019637,14822
1659430720.058233,14823
1659430720.097512,14833
1659430720.136791,14849
1659430720.176069,14851
1659430720.218081,14858
1659430720.260092,14865
1659430720.298347,14856
1659430720.336601,14850
1659430720.374855,14854
1659430720.417379,14858
1659430720.459903,14847
1659430720.49884,14837
1659430720.537778,14837
1659430720.576715,14837
1659430720.614969,14833
1659430720.653224,14842
1659430720.691478,14846
1659430720.731952,14859
1659430720.772427,14854
1659430720.811706,14847
1659430720.850985,14848
1659430720.890264,14856
1659430720.932275,14857
1659430720.974287,14875
1659430721.013224,14873
1659430721.052162,14861
1659430721.091099,14863
1659430721.132598,14862
1659430721.174097,14855
1659430721.213376,14847
1659430721.252655,14851
1659430721.291934,14842
1659430721.333433,14848
1659430721.374933,14852
1659430721.419335,14861
1659430721.463737,14876
1659430721.508139,14877
1659430721.546394,14880
1659430721.584648,14876
1659430721.622902,14875
1659430721.663889,14882
1659430721.704876,14892
1659430721.743472,14897
1659430721.782068,14889
1659430721.820663,14905
1659430721.863187,14911
1659430721.905711,14916
1659430721.943965,14917
1659430721.98222,14920
1659430722.020474,14909
1659430722.059412,14893
1659430722.098349,14890
1659430722.137286,14885
1659430722.178785,14897
1659430722.220284,14905
1659430722.259563,14920
1659430722.298842,14919
1659430722.338121,14905
1659430722.376717,14905
1659430722.415313,14908
1659430722.453909,14911
1659430722.496433,14911
1659430722.538957,14916
1659430722.577211,14917
1659430722.615465,14935
1659430722.65372,14935
1659430722.695731,14937
1659430722.737742,14955
1659430722.779242,14937
1659430722.820741,14929
1659430722.859678,14913
1659430722.898616,14917
1659430722.937553,14914
1659430722.981614,14916
1659430723.025675,14923
1659430723.069735,14927
1659430723.109356,14936
1659430723.148976,14937
1659430723.188597,14932
1659430723.227193,14936
1659430723.265789,14941
1659430723.304384,14928
1659430723.346396,14933
1659430723.388407,14933
1659430723.428028,14938
1659430723.467649,14952
1659430723.507269,14952
1659430723.54928,14960
1659430723.591292,14962
1659430723.629205,14958
1659430723.667117,14940
1659430723.70503,14928
1659430723.748066,14921
1659430723.791102,14915
1659430723.829698,14926
1659430723.868294,14936
1659430723.90689,14954
1659430723.945486,14951
1659430723.984082,14948
1659430724.022678,14950
1659430724.063664,14946
1659430724.104651,14943
1659430724.143589,14940
1659430724.182526,14947
1659430724.221463,14950
1659430724.262963,14973
1659430724.304462,14962
1659430724.349547,14961
1659430724.394633,14970
1659430724.439718,14972
1659430724.472507,14958
1659430724.505297,14936
1659430724.549358,14931
1659430724.593418,14941
1659430724.637479,14957
1659430724.671293,14946
1659430724.705107,14954
1659430724.74951,14971
1659430724.793912,14971
1659430724.838314,14970
1659430724.876227,14965
1659430724.91414,14965
1659430724.952053,14962
1659430724.993552,14978
1659430725.035051,14978
1659430725.073305,14972
1659430725.111559,14987
1659430725.149814,14987
1659430725.189093,14991
1659430725.228372,15006
1659430725.267651,14979
1659430725.308125,14960
1659430725.348599,14959
1659430725.387878,14953
1659430725.427157,14952
1659430725.466436,14968
1659430725.505032,14968
1659430725.543628,14972
1659430725.582224,14979
1659430725.624236,14975
1659430725.666247,14978
1659430725.708258,14978
1659430725.75027,14979
1659430725.789207,14972
1659430725.828145,14975
1659430725.867082,14981
1659430725.911143,14987
1659430725.955204,14998
1659430725.999264,15000
1659430726.033078,14997
1659430726.066893,14980
1659430726.110953,14972
1659430726.155014,14962
1659430726.199075,14961
1659430726.231864,14971
1659430726.264654,14977
1659430726.309398,14973
1659430726.354141,14976
1659430726.398885,14993
1659430726.437823,14984
1659430726.47676,14989
1659430726.515698,14978
1659430726.557197,14976
1659430726.598696,14972
1659430726.637975,14978
1659430726.677254,14987
1659430726.716533,14994
1659430726.758032,15002
1659430726.799531,15011
1659430726.838469,15006
1659430726.877406,14994
1659430726.916343,14977
1659430726.954939,14970
1659430726.993535,14962
1659430727.032131,14962
1659430727.074655,14966
1659430727.117178,14982
1659430727.155433,14977
1659430727.193687,14986
1659430727.231941,14990
1659430727.272928,14980
1659430727.313915,14979
1659430727.352852,14983
1659430727.39179,14980
1659430727.430727,14987
1659430727.472226,14991
1659430727.513726,14998
1659430727.552321,15009
1659430727.590917,14998
1659430727.629513,14996
1659430727.672037,15004
1659430727.714561,14980
1659430727.753156,14954
1659430727.791752,14944
1659430727.830348,14942
1659430727.874751,14951
1659430727.919153,14967
1659430727.963555,14971
1659430728.005567,14966
1659430728.047578,14967
1659430728.086174,14971
1659430728.12477,14976
1659430728.163366,14974
1659430728.20384,14970
1659430728.244315,14971
1659430728.283252,14982
1659430728.32219,14982
1659430728.361127,14983
1659430728.398015,14993
1659430728.434903,14994
1659430728.471791,15002
1659430728.508679,14985
1659430728.551203,14952
1659430728.593727,14955
1659430728.635226,14954
1659430728.676725,14957
1659430728.715321,14964
1659430728.753917,14971
1659430728.792513,14975
1659430728.836915,14983
1659430728.881317,14975
1659430728.925719,14965
1659430728.960046,14975
1659430728.994372,14976
1659430729.038775,14978
1659430729.083177,14974
1659430729.127579,14988
1659430729.166517,14989
1659430729.205454,15004
1659430729.244392,15004
1659430729.286403,14985
1659430729.328415,14979
1659430729.36701,14959
1659430729.405606,14954
1659430729.444202,14946
1659430729.485701,14967
1659430729.5272,14956
1659430729.566479,14966
1659430729.605758,14973
1659430729.645037,14961
1659430729.683292,14975
1659430729.721546,14979
1659430729.7598,14983
1659430729.801812,14988
1659430729.843823,14982
1659430729.882761,14981
1659430729.921698,14996
1659430729.960635,14996
1659430730.003159,14998
1659430730.045683,14999
1659430730.084279,14994
1659430730.122875,14994
1659430730.161471,14957
1659430730.203482,14958
1659430730.245493,14959
1659430730.284089,14954
1659430730.322685,14969
1659430730.361281,14971
1659430730.403293,14977
1659430730.445304,14965
1659430730.4839,14990
1659430730.522496,14979
1659430730.561092,14975
1659430730.602591,14985
1659430730.64409,14987
1659430730.682344,14995
1659430730.720598,15007
1659430730.758853,15005
1659430730.803597,14989
1659430730.848341,14994
1659430730.893085,14994
1659430730.935096,14980
1659430730.977107,14969
1659430731.015703,14955
1659430731.054299,14963
1659430731.092895,14972
1659430731.131491,14978
1659430731.170087,14976
1659430731.208683,14980
1659430731.250694,14973
1659430731.292705,14975
1659430731.331301,14987
1659430731.369897,14983
1659430731.408493,14995
1659430731.450505,14994
1659430731.492516,15000
1659430731.531112,14998
1659430731.569708,15005
1659430731.608304,15002
1659430731.647241,14998
1659430731.686178,14997
1659430731.725116,14980
1659430731.76559,14964
1659430731.806065,14954
1659430731.846027,14948
1659430731.885989,14968
1659430731.925951,14971
1659430731.966938,14974
1659430732.007925,14977
1659430732.04652,14980
1659430732.085116,14984
1659430732.123712,14989
1659430732.165724,14984
1659430732.207735,14991
1659430732.252479,14992
1659430732.297223,15003
1659430732.341967,15006
1659430732.375268,15005
1659430732.40857,15012
1659430732.453314,15007
1659430732.498058,14998
1659430732.542802,14980
1659430732.581739,14966
1659430732.620677,14974
1659430732.659614,14974
1659430732.700089,14994
1659430732.740563,14987
1659430732.779842,14976
1659430732.819121,14978
1659430732.8584,14981
1659430732.900411,14991
1659430732.942423,14993
1659430732.980677,14997
1659430733.018931,14997
1659430733.057186,15008
1659430733.096465,15004
1659430733.135744,15006
1659430733.175023,15017
1659430733.217546,15017
1659430733.26007,15016
1659430733.298325,15003
1659430733.336579,14976
1659430733.374833,14958
1659430733.416332,14967
1659430733.457831,14953
1659430733.497452,14955
1659430733.537072,14970
1659430733.576693,14966
1659430733.614606,14976
1659430733.652519,14983
1659430733.690431,14979
1659430733.732443,14975
1659430733.774454,14990
1659430733.816466,14996
1659430733.858477,15002
1659430733.898952,15011
1659430733.939426,15004
1659430733.978022,15004
1659430734.016618,15006
1659430734.055213,15007
1659430734.094151,14996
1659430734.133088,14974
1659430734.172026,14953
1659430734.213525,14943
1659430734.255024,14955
1659430734.29362,14961
1659430734.332216,14971
1659430734.370812,14956
1659430734.412823,14956
1659430734.454834,14966
1659430734.496334,14970
1659430734.537833,14982
1659430734.576429,14986
1659430734.615024,14995
1659430734.65362,15005
1659430734.698023,15005
1659430734.742425,14995
1659430734.786827,14997
1659430734.820641,15006
1659430734.854455,15001
1659430734.898175,15004
1659430734.941894,14977
1659430734.985613,14973
1659430735.024209,14963
1659430735.062805,14985
1659430735.101401,14978
1659430735.1429,14983
1659430735.184399,14988
1659430735.222653,14990
1659430735.260908,14999
1659430735.299162,15000
1659430735.341686,15005
1659430735.384209,15010
1659430735.423488,15008
1659430735.462767,15018
1659430735.502046,15027
1659430735.540642,15031
1659430735.579238,15029
1659430735.617834,15036
1659430735.659333,15048
1659430735.700832,15038
1659430735.740111,15020
1659430735.77939,15028
1659430735.818669,15025
1659430735.860681,15025
1659430735.902692,15032
1659430735.941288,15036
1659430735.979884,15037
1659430736.01848,15036
1659430736.059979,15047
1659430736.101478,15051
1659430736.140074,15048
1659430736.17867,15047
1659430736.217265,15066
1659430736.259277,15068
1659430736.301288,15054
1659430736.339884,15065
1659430736.37848,15056
1659430736.417076,15060
1659430736.461478,15060
1659430736.505881,15056
1659430736.550283,15040
1659430736.583585,15036
1659430736.616886,15035
1659430736.66163,15030
1659430736.706374,15040
1659430736.751118,15034
1659430736.793129,15037
1659430736.835141,15041
1659430736.873737,15042
1659430736.912333,15055
1659430736.950929,15064
1659430736.989524,15056
1659430737.02812,15056
1659430737.066716,15060
1659430737.107703,15061
1659430737.14869,15073
1659430737.187286,15080
1659430737.225882,15081
1659430737.264477,15081
1659430737.303415,15056
1659430737.342352,15044
1659430737.38129,15038
1659430737.422789,15040
1659430737.464288,15042
1659430737.502884,15043
1659430737.54148,15047
1659430737.580076,15052
1659430737.621062,15059
1659430737.662049,15066
1659430737.702011,15062
1659430737.741973,15071
1659430737.781935,15066
1659430737.822922,15069
1659430737.863909,15063
1659430737.902505,15073
1659430737.941101,15085
1659430737.979697,15090
1659430738.021708,15078
1659430738.063719,15084
1659430738.10778,15066
1659430738.151841,15044
1659430738.195902,15027
1659430738.234839,15015
1659430738.273777,15015
1659430738.312714,15012
1659430738.354213,15022
1659430738.395712,15021
1659430738.434308,15022
1659430738.472904,15034
1659430738.5115,15034
1659430738.552486,15050
1659430738.593473,15052
1659430738.633094,15046
1659430738.672714,15045
1659430738.712335,15050
1659430738.751272,15048
1659430738.79021,15044
1659430738.829147,15056
1659430738.870134,15052
1659430738.911121,15057
1659430738.950741,15039
1659430738.990362,15029
1659430739.029982,15027
1659430739.06892,15029
1659430739.107857,15025
1659430739.146795,15032
1659430739.188806,15039
1659430739.230818,15025
1659430739.269755,15035
1659430739.308692,15033
1659430739.34763,15035
1659430739.389129,15044
1659430739.430628,15040
1659430739.468882,15039
1659430739.507137,15050
1659430739.545391,15062
1659430739.587915,15060
1659430739.630439,15064
1659430739.674841,15072
1659430739.719243,15047
1659430739.763645,15037
1659430739.8019,15022
1659430739.840154,15009
1659430739.878408,15005
1659430739.92042,15018
1659430739.962431,15031
1659430740.001369,15027
1659430740.040306,15026
1659430740.079244,15029
1659430740.117839,15036
1659430740.156435,15031
1659430740.195031,15051
1659430740.237043,15043
1659430740.279054,15036
1659430740.31765,15041
1659430740.356246,15052
1659430740.394842,15051
1659430740.435316,15050
1659430740.475791,15054
1659430740.514386,15054
1659430740.552982,15030
1659430740.591578,14993
1659430740.630857,14970
1659430740.670136,14969
1659430740.709415,14973
1659430740.750402,14985
1659430740.791389,14983
1659430740.830326,14995
1659430740.869263,14990
1659430740.908201,15007
1659430740.950212,15012
1659430740.992224,15014
1659430741.036626,15018
1659430741.081028,15022
1659430741.125431,15025
1659430741.159245,15027
1659430741.193059,15034
1659430741.238144,15033
1659430741.28323,15032
1659430741.328315,15037
1659430741.361105,15016
1659430741.393894,15008
1659430741.437272,14991
1659430741.480649,15002
1659430741.524027,15000
1659430741.563648,15001
1659430741.603268,14996
1659430741.642889,15006
1659430741.683876,15008
1659430741.724862,15012
1659430741.763458,15016
1659430741.802054,15020
1659430741.84065,15032
1659430741.879587,15026
1659430741.918525,15029
1659430741.957462,15036
1659430741.999986,15042
1659430742.04251,15033
1659430742.081447,15032
1659430742.120385,15041
1659430742.159322,15026
1659430742.200821,15031
1659430742.24232,15027
1659430742.281941,15022
1659430742.321561,15025
1659430742.361182,15028
1659430742.399436,15033
1659430742.43769,15035
1659430742.475945,15041
1659430742.518469,15033
1659430742.560992,15046
1659430742.603004,15043
1659430742.645015,15042
1659430742.682928,15049
1659430742.720841,15055
1659430742.758754,15061
1659430742.800253,15053
1659430742.841752,15060
1659430742.881031,15059
1659430742.92031,15058
1659430742.959589,15058
1659430743.003308,15044
1659430743.047027,15034
1659430743.090746,15026
1659430743.124048,15047
1659430743.15735,15042
1659430743.201752,15042
1659430743.246155,15052
1659430743.290557,15052
1659430743.329153,15050
1659430743.367748,15050
1659430743.406344,15057
1659430743.447844,15060
1659430743.489343,15080
1659430743.528963,15062
1659430743.568584,15058
1659430743.608204,15073
1659430743.648679,15069
1659430743.689153,15069
1659430743.727407,15065
1659430743.765662,15064
1659430743.803916,15044
1659430743.842512,15049
1659430743.881108,15042
1659430743.919704,15040
1659430743.961715,15047
1659430744.003726,15051
1659430744.041981,15047
1659430744.080235,15056
1659430744.11849,15059
1659430744.160501,15061
1659430744.202512,15060
1659430744.241108,15065
1659430744.279704,15078
1659430744.3183,15075
1659430744.362361,15069
1659430744.406421,15075
1659430744.450482,15078
1659430744.484809,15080
1659430744.519135,15087
1659430744.563879,15074
1659430744.608623,15052
1659430744.653367,15030
1659430744.685644,15033
1659430744.717921,15029
1659430744.762665,15037
1659430744.807409,15027
1659430744.852153,15027
1659430744.891432,15035
1659430744.930711,15048
1659430744.96999,15056
1659430745.010976,15052
1659430745.051963,15053
1659430745.0909,15043
1659430745.129838,15056
1659430745.168775,15049
1659430745.207371,15062
1659430745.245967,15067
1659430745.284563,15066
1659430745.326574,15074
1659430745.368586,15052
1659430745.407865,15035
1659430745.447144,15025
1659430745.486423,15025
1659430745.527922,15031
1659430745.569421,15035
1659430745.608017,15031
1659430745.646613,15034
1659430745.685209,15033
1659430745.72722,15037
1659430745.769232,15030
1659430745.808511,15034
1659430745.84779,15046
1659430745.887069,15049
1659430745.928055,15051
1659430745.969042,15060
1659430746.007638,15053
1659430746.046234,15064
1659430746.08483,15066
1659430746.126841,15059
1659430746.168853,15047
1659430746.212913,15020
1659430746.256974,15007
1659430746.301035,15007
1659430746.339631,15012
1659430746.378227,15007
1659430746.416822,15024
1659430746.458834,15014
1659430746.500845,15021
1659430746.539441,15029
1659430746.578037,15031
1659430746.616633,15026
1659430746.65557,15016
1659430746.694508,15030
1659430746.733445,15031
1659430746.774944,15047
1659430746.816443,15042
1659430746.855722,15045
1659430746.895001,15049
1659430746.93428,15042
1659430746.972193,15023
1659430747.010106,15019
1659430747.048019,15016
1659430747.089518,15018
1659430747.131017,15030
1659430747.169613,15033
1659430747.208209,15032
1659430747.246804,15043
1659430747.288304,15047
1659430747.329803,15058
1659430747.36874,15038
1659430747.407677,15027
1659430747.446615,15027
1659430747.488626,15035
1659430747.530638,15032
1659430747.568892,15035
1659430747.607147,15053
1659430747.645401,15046
1659430747.688437,15048
1659430747.731473,15040
1659430747.776217,15021
1659430747.820961,15022
1659430747.865705,15020
1659430747.898494,15018
1659430747.931283,15027
1659430747.975686,15026
1659430748.020088,15019
1659430748.064491,15033
1659430748.10377,15022
1659430748.143049,15028
1659430748.182328,15022
1659430748.223826,15020
1659430748.265326,15013
1659430748.303921,15023
1659430748.342517,15016
1659430748.381113,15014
1659430748.420392,15034
1659430748.459671,15031
1659430748.49895,15031
1659430748.539937,15029
1659430748.580924,15030
1659430748.620203,15027
1659430748.659482,15029
1659430748.698761,15037
1659430748.740772,15049
1659430748.782784,15042
1659430748.821379,15035
1659430748.859975,15055
1659430748.898571,15054
1659430748.937509,15054
1659430748.976446,15054
1659430749.015383,15054
1659430749.057907,15055
1659430749.100431,15049
1659430749.14193,15055
1659430749.183429,15063
1659430749.221684,15064
1659430749.259938,15065
1659430749.298192,15064
1659430749.339691,15058
1659430749.38119,15047
1659430749.420128,15048
1659430749.459065,15056
1659430749.498003,15056
1659430749.542063,15052
1659430749.586124,15070
1659430749.630185,15057
1659430749.668781,15063
1659430749.707377,15053
1659430749.745973,15045
1659430749.787472,15049
1659430749.828971,15048
1659430749.867567,15054
1659430749.906163,15042
1659430749.944758,15046
1659430749.983696,15049
1659430750.022633,15059
1659430750.061571,15050
1659430750.10307,15044
1659430750.144569,15048
1659430750.183165,15040
1659430750.221761,15044
1659430750.260356,15041
1659430750.301343,15055
1659430750.34233,15047
1659430750.380926,15059
1659430750.419522,15052
1659430750.458118,15059
1659430750.500129,15068
1659430750.54214,15066
1659430750.580736,15077
1659430750.619332,15070
1659430750.657928,15084
1659430750.698915,15071
1659430750.739902,15080
1659430750.779181,15083
1659430750.81846,15085
1659430750.857739,15086
1659430750.902141,15076
1659430750.946543,15087
1659430750.990946,15073
1659430751.025272,15083
1659430751.059598,15076
1659430751.103659,15088
1659430751.14772,15080
1659430751.191781,15075
1659430751.225083,15083
1659430751.258384,15073
1659430751.302787,15085
1659430751.347189,15088
1659430751.391591,15087
1659430751.430187,15086
1659430751.468783,15088
1659430751.507379,15085
1659430751.54939,15084
1659430751.591402,15080
1659430751.630339,15073
1659430751.669277,15090
1659430751.708214,15076
1659430751.749201,15063
1659430751.790188,15072
1659430751.828784,15067
1659430751.867379,15067
1659430751.905975,15065
1659430751.945596,15069
1659430751.985216,15071
1659430752.024837,15063
1659430752.066336,15063
1659430752.107835,15055
1659430752.146089,15059
1659430752.184344,15058
1659430752.222598,15055
1659430752.265122,15057
1659430752.307646,15044
1659430752.346583,15042
1659430752.38552,15045
1659430752.424458,15036
1659430752.465445,15029
1659430752.506431,15041
1659430752.545369,15024
1659430752.584306,15037
1659430752.623244,15027
1659430752.664743,15033
1659430752.706242,15037
1659430752.749961,15036
1659430752.79368,15032
1659430752.837399,15034
1659430752.876678,15033
1659430752.915957,15028
1659430752.955236,15036
1659430752.996736,15032
1659430753.038235,15046
1659430753.076489,15045
1659430753.114743,15054
1659430753.152997,15045
1659430753.191935,15039
1659430753.230872,15031
1659430753.26981,15033
1659430753.312334,15036
1659430753.354857,15026
1659430753.393112,15030
1659430753.431366,15030
1659430753.46962,15028
1659430753.511632,15026
1659430753.553643,15036
1659430753.592239,15032
1659430753.630835,15046
1659430753.669431,15039
1659430753.707685,15032
1659430753.745939,15049
1659430753.784194,15040
1659430753.826718,15053
1659430753.869241,15063
1659430753.908179,15061
1659430753.947116,15071
1659430753.986054,15071
1659430754.026528,15059
1659430754.067003,15058
1659430754.111746,15062
1659430754.15649,15057
1659430754.201234,15061
1659430754.235561,15057
1659430754.269887,15068
1659430754.314289,15062
1659430754.358692,15066
1659430754.403094,15061
1659430754.435884,15053
1659430754.468673,15060
1659430754.513758,15052
1659430754.558844,15071
1659430754.603929,15071
1659430754.642184,15066
1659430754.680438,15072
1659430754.718692,15081
1659430754.756093,15072
1659430754.793493,15066
1659430754.830893,15071
1659430754.868294,15066
1659430754.910818,15076
1659430754.953341,15073
1659430754.994328,15080
1659430755.035315,15074
1659430755.073911,15063
1659430755.112507,15067
1659430755.151103,15063
1659430755.192602,15058
1659430755.234101,15067
1659430755.27338,15075
1659430755.312659,15064
1659430755.351938,15059
1659430755.39634,15074
1659430755.440742,15076
1659430755.485145,15076
1659430755.518446,15075
1659430755.551748,15069
1659430755.59615,15067
1659430755.640553,15060
1659430755.684955,15058
1659430755.723892,15060
1659430755.76283,15076
1659430755.801767,15071
1659430755.844291,15074
1659430755.886815,15067
1659430755.925069,15053
1659430755.963324,15057
1659430756.001578,15050
1659430756.042052,15058
1659430756.082527,15051
1659430756.121123,15054
1659430756.159719,15057
1659430756.198314,15072
1659430756.237252,15066
1659430756.276189,15074
1659430756.315127,15073
1659430756.356626,15062
1659430756.398125,15058
1659430756.437062,15057
1659430756.476,15066
1659430756.514937,15065
1659430756.556949,15073
1659430756.59896,15074
1659430756.637556,15074
1659430756.676152,15083
1659430756.714748,15075
1659430756.756759,15057
1659430756.79877,15056
1659430756.838391,15052
1659430756.878012,15063
1659430756.917632,15063
1659430756.958107,15067
1659430756.998581,15066
1659430757.037177,15078
1659430757.075773,15082
1659430757.114369,15077
1659430757.159112,15080
1659430757.203856,15086
1659430757.2486,15085
1659430757.290612,15100
1659430757.332623,15094
1659430757.370878,15099
1659430757.409132,15105
1659430757.447386,15117
1659430757.489398,15109
1659430757.531409,15123
1659430757.570346,15112
1659430757.609284,15097
1659430757.648221,15098
1659430757.686817,15104
1659430757.725413,15108
1659430757.764009,15107
1659430757.807045,15107
1659430757.850081,15112
1659430757.889019,15107
1659430757.927956,15110
1659430757.966893,15106
1659430758.007368,15109
1659430758.047842,15104
1659430758.087121,15100
1659430758.1264,15102
1659430758.165679,15088
1659430758.204617,15090
1659430758.243554,15106
1659430758.282491,15105
1659430758.323478,15105
1659430758.364465,15107
1659430758.403403,15103
1659430758.44234,15096
1659430758.481277,15080
1659430758.522264,15073
1659430758.563251,15082
1659430758.607312,15087
1659430758.651372,15092
1659430758.695433,15098
1659430758.72976,15097
1659430758.764086,15102
1659430758.808488,15103
1659430758.852891,15091
1659430758.897293,15085
1659430758.930082,15083
1659430758.962872,15094
1659430759.007274,15097
1659430759.051677,15105
1659430759.096079,15107
1659430759.135358,15098
1659430759.174637,15117
1659430759.213916,15099
1659430759.25439,15097
1659430759.294865,15095
1659430759.333461,15093
1659430759.372056,15092
1659430759.410652,15100
1659430759.449248,15107
1659430759.487844,15099
1659430759.52644,15100
1659430759.567939,15098
1659430759.609438,15096
1659430759.648034,15086
1659430759.68663,15087
1659430759.725226,15087
1659430759.764163,15092
1659430759.803101,15101
1659430759.842038,15105
1659430759.883537,15105
1659430759.925036,15092
1659430759.966791,15094
1659430760.008547,15091
1659430760.050302,15090
1659430760.092057,15092
1659430760.133556,15098
1659430760.175056,15104
1659430760.21331,15111
1659430760.251564,15108
1659430760.289819,15096
1659430760.332342,15095
1659430760.374866,15097
1659430760.413462,15094
1659430760.452058,15101
1659430760.490654,15098
1659430760.529249,15098
1659430760.567845,15107
1659430760.606441,15111
1659430760.647428,15111
1659430760.688415,15125
1659430760.728377,15113
1659430760.768339,15119
1659430760.808301,15111
1659430760.849288,15092
1659430760.890275,15112
1659430760.929212,15118
1659430760.968149,15123
1659430761.007087,15112
1659430761.049098,15121
1659430761.09111,15116
1659430761.130389,15114
1659430761.169668,15105
1659430761.208947,15089
1659430761.250446,15094
1659430761.291945,15105
1659430761.330882,15100
1659430761.36982,15106
1659430761.408757,15102
1659430761.452476,15100
1659430761.496196,15101
1659430761.539915,15100
1659430761.580902,15103
1659430761.621888,15108
1659430761.661509,15101
1659430761.701129,15106
1659430761.74075,15107
1659430761.781737,15110
1659430761.822723,15110
1659430761.860978,15118
1659430761.899232,15112
1659430761.937486,15106
1659430761.976765,15111
1659430762.016044,15116
1659430762.055323,15122
1659430762.097335,15100
1659430762.139346,15098
1659430762.177601,15102
1659430762.215855,15104
1659430762.254109,15098
1659430762.293388,15096
1659430762.332667,15102
1659430762.371946,15100
1659430762.413445,15109
1659430762.454944,15092
1659430762.492857,15087
1659430762.53077,15101
1659430762.568683,15107
1659430762.611207,15107
1659430762.65373,15110
1659430762.692326,15097
1659430762.730922,15091
1659430762.769518,15105
1659430762.809992,15098
1659430762.850467,15104
1659430762.894869,15108
1659430762.939271,15102
1659430762.983674,15105
1659430763.017488,15097
1659430763.051302,15100
1659430763.095704,15101
1659430763.140106,15099
1659430763.184509,15100
1659430763.223788,15091
1659430763.263067,15099
1659430763.302346,15106
1659430763.344357,15115
1659430763.386369,15119
1659430763.424623,15131
1659430763.462877,15131
1659430763.501132,15134
1659430763.543143,15128
1659430763.585155,15123
1659430763.624434,15133
1659430763.663713,15132
1659430763.702991,15156
1659430763.741246,15144
1659430763.7795,15143
1659430763.817754,15150
1659430763.859253,15140
1659430763.900753,15137
1659430763.93969,15123
1659430763.978627,15114
1659430764.017565,15111
1659430764.059576,15119
1659430764.101588,15117
1659430764.140525,15111
1659430764.179463,15118
1659430764.2184,15125
1659430764.257679,15126
1659430764.296958,15123
1659430764.336237,15125
1659430764.377736,15119
1659430764.419235,15121
1659430764.461247,15120
1659430764.503258,15127
1659430764.542537,15121
1659430764.581816,15128
1659430764.621095,15131
1659430764.662082,15139
1659430764.703068,15137
1659430764.741323,15126
1659430764.779577,15126
1659430764.817832,15122
1659430764.862234,15115
1659430764.906636,15122
1659430764.951039,15122
1659430764.98434,15125
1659430765.017642,15128
1659430765.061703,15136
1659430765.105763,15145
1659430765.149824,15137
1659430765.18842,15126
1659430765.227016,15120
1659430765.265612,15131
1659430765.304549,15126
1659430765.343487,15135
1659430765.382424,15134
1659430765.42102,15134
1659430765.459616,15145
1659430765.498212,15145
1659430765.540223,15141
1659430765.582235,15135
1659430765.621514,15120
1659430765.660793,15114
1659430765.700072,15114
1659430765.741058,15106
1659430765.782045,15110
1659430765.820641,15116
1659430765.859237,15116
1659430765.897833,15126
1659430765.942235,15131
1659430765.986637,15155
1659430766.03104,15154
1659430766.072539,15142
1659430766.114038,15128
1659430766.152634,15119
1659430766.19123,15129
1659430766.229826,15136
1659430766.270812,15137
1659430766.311799,15151
1659430766.350737,15151
1659430766.389674,15169
1659430766.428612,15174
1659430766.467207,15171
1659430766.505803,15144
1659430766.544399,15142
1659430766.587435,15134
1659430766.630471,15131
1659430766.669067,15126
1659430766.707663,15134
1659430766.746259,15143
1659430766.787758,15139
1659430766.829257,15147
1659430766.868536,15150
1659430766.907815,15159
1659430766.947094,15149
1659430766.986032,15143
1659430767.024969,15143
1659430767.063906,15130
1659430767.104893,15133
1659430767.14588,15139
1659430767.185159,15146
1659430767.224438,15165
1659430767.263717,15168
1659430767.304703,15171
1659430767.34569,15170
1659430767.390093,15151
1659430767.434495,15130
1659430767.478897,15125
1659430767.513224,15126
1659430767.54755,15126
1659430767.591953,15128
1659430767.636355,15131
1659430767.680757,15138
1659430767.713034,15138
1659430767.745311,15140
1659430767.790397,15138
1659430767.835482,15133
1659430767.880568,15121
1659430767.913869,15125
1659430767.947171,15115
1659430767.99089,15117
1659430768.03461,15132
1659430768.078329,15143
1659430768.117266,15143
1659430768.156204,15140
1659430768.195141,15150
1659430768.236128,15137
1659430768.277115,15136
1659430768.315711,15112
1659430768.354306,15106
1659430768.392902,15114
1659430768.43184,15116
1659430768.470777,15126
1659430768.509715,15131
1659430768.550701,15136
1659430768.591688,15129
1659430768.630284,15134
1659430768.66888,15124
1659430768.707476,15112
1659430768.749487,15120
1659430768.791499,15114
1659430768.830436,15122
1659430768.869373,15129
1659430768.908311,15150
1659430768.949298,15130
1659430768.990284,15128
1659430769.029222,15122
1659430769.068159,15114
1659430769.107097,15118
1659430769.149621,15107
1659430769.192144,15119
1659430769.230398,15111
1659430769.268653,15115
1659430769.306907,15117
1659430769.350968,15118
1659430769.395029,15117
1659430769.43909,15108
1659430769.471879,15109
1659430769.504668,15108
1659430769.548729,15110
1659430769.59279,15104
1659430769.636851,15110
1659430769.67613,15128
1659430769.715409,15139
1659430769.754688,15140
1659430769.797211,15132
1659430769.839735,15127
1659430769.878673,15120
1659430769.91761,15137
1659430769.956547,15135
1659430769.998047,15144
1659430770.039546,15164
1659430770.078825,15141
1659430770.118104,15116
1659430770.157382,15103
1659430770.195978,15074
1659430770.234574,15060
1659430770.27317,15060
1659430770.315182,15054
1659430770.357193,15074
1659430770.396131,15075
1659430770.435068,15076
1659430770.474005,15071
1659430770.518066,15084
1659430770.562127,15083
1659430770.606188,15090
1659430770.638465,15101
1659430770.670742,15105
1659430770.715486,15124
1659430770.76023,15120
1659430770.804974,15129
1659430770.844253,15131
1659430770.883532,15129
1659430770.922811,15118
1659430770.964309,15112
1659430771.005809,15106
1659430771.044746,15091
1659430771.083683,15083
1659430771.122621,15082
1659430771.164632,15075
1659430771.206644,15065
1659430771.245581,15054
1659430771.284519,15048
1659430771.323456,15057
1659430771.362394,15063
1659430771.401331,15072
1659430771.440268,15093
1659430771.481255,15096
1659430771.522242,15102
1659430771.560155,15096
1659430771.598068,15099
1659430771.63598,15103
1659430771.677992,15102
1659430771.720003,15093
1659430771.75894,15097
1659430771.797878,15106
1659430771.836815,15123
1659430771.87729,15138
1659430771.917764,15150
1659430771.956702,15165
1659430771.995639,15175
1659430772.034576,15161
1659430772.07932,15160
1659430772.124064,15148
1659430772.168808,15149
1659430772.201598,15150
1659430772.234387,15157
1659430772.278789,15131
1659430772.323192,15116
1659430772.367594,15116
1659430772.410118,15112
1659430772.452641,15111
1659430772.490896,15103
1659430772.52915,15105
1659430772.567405,15100
1659430772.606342,15111
1659430772.645279,15118
1659430772.684217,15110
1659430772.726741,15124
1659430772.769264,15112
1659430772.807519,15108
1659430772.845773,15096
1659430772.884027,15092
1659430772.925014,15097
1659430772.966001,15112
1659430773.005621,15118
1659430773.045242,15129
1659430773.084862,15140
1659430773.123458,15147
1659430773.162054,15158
1659430773.20065,15158
1659430773.243174,15171
1659430773.285697,15178
1659430773.324976,15170
1659430773.364255,15171
1659430773.403534,15159
1659430773.445546,15169
1659430773.487557,15161
1659430773.525812,15179
1659430773.564066,15160
1659430773.60232,15149
1659430773.644844,15148
1659430773.687368,15136
1659430773.725964,15138
1659430773.76456,15145
1659430773.803155,15154
1659430773.844142,15152
1659430773.885129,15160
1659430773.929531,15150
1659430773.973934,15143
1659430774.018336,15147
1659430774.057273,15147
1659430774.096211,15156
1659430774.135148,15159
1659430774.176647,15166
1659430774.218147,15160
1659430774.257426,15162
1659430774.296705,15155
1659430774.335984,15157
1659430774.377483,15161
1659430774.418982,15161
1659430774.457577,15171
1659430774.496173,15156
1659430774.534769,15143
1659430774.574048,15137
1659430774.613327,15134
1659430774.652606,15138
1659430774.693593,15144
1659430774.73458,15154
1659430774.772834,15148
1659430774.811088,15161
1659430774.849343,15145
1659430774.887938,15151
1659430774.926534,15161
1659430774.96513,15167
1659430775.006629,15169
1659430775.048129,15164
1659430775.087066,15154
1659430775.126004,15160
1659430775.164941,15176
1659430775.205415,15162
1659430775.24589,15168
1659430775.287389,15172
1659430775.328888,15163
1659430775.368508,15161
1659430775.408129,15160
1659430775.44775,15149
1659430775.49181,15147
1659430775.535871,15155
1659430775.579932,15155
1659430775.613234,15157
1659430775.646535,15162
1659430775.691279,15153
1659430775.736023,15158
1659430775.780767,15154
1659430775.819021,15149
1659430775.857276,15159
1659430775.89553,15170
1659430775.938054,15174
1659430775.980577,15177
1659430776.019515,15186
1659430776.058452,15181
1659430776.09739,15200
1659430776.135644,15184
1659430776.173898,15186
1659430776.212153,15178
1659430776.253652,15180
1659430776.295151,15176
1659430776.33443,15158
1659430776.373709,15158
1659430776.412988,15145
1659430776.454487,15157
1659430776.495986,15147
1659430776.535265,15141
1659430776.574544,15151
1659430776.613823,15143
1659430776.652761,15149
1659430776.691698,15160
1659430776.730635,15163
1659430776.771622,15161
1659430776.812609,15162
1659430776.857011,15165
1659430776.901413,15168
1659430776.945816,15181
1659430776.980142,15191
1659430777.014469,15190
1659430777.058188,15188
1659430777.101907,15182
1659430777.145626,15189
1659430777.184564,15208
1659430777.223501,15203
1659430777.262439,15202
1659430777.303425,15195
1659430777.344412,15191
1659430777.382667,15194
1659430777.420921,15195
1659430777.459175,15192
1659430777.501187,15182
1659430777.543198,15185
1659430777.582819,15179
1659430777.622439,15175
1659430777.66206,15153
1659430777.700314,15139
1659430777.738568,15142
1659430777.776823,15110
1659430777.818834,15105
1659430777.860845,15115
1659430777.900124,15114
1659430777.939403,15130
1659430777.978682,15137
1659430778.016937,15142
1659430778.055191,15132
1659430778.093445,15136
1659430778.13392,15111
1659430778.174394,15105
1659430778.215893,15114
1659430778.257392,15119
1659430778.29633,15112
1659430778.335267,15115
1659430778.374205,15117
1659430778.418607,15117
1659430778.463009,15122
1659430778.507412,15130
1659430778.540201,15148
1659430778.57299,15151
1659430778.617393,15140
1659430778.661795,15159
1659430778.706198,15155
1659430778.739499,15157
1659430778.772801,15154
1659430778.817886,15155
1659430778.862972,15156
1659430778.908057,15159
1659430778.946653,15166
1659430778.985249,15163
1659430779.023845,15162
1659430779.065856,15149
1659430779.107868,15151
1659430779.146805,15148
1659430779.185743,15150
1659430779.22468,15155
1659430779.266691,15152
1659430779.308703,15158
1659430779.346957,15156
1659430779.385212,15186
1659430779.423466,15171
1659430779.462403,15178
1659430779.501341,15200
1659430779.540278,15200
1659430779.581265,15211
1659430779.622252,15222
1659430779.661189,15222
1659430779.700127,15224
1659430779.739064,15237
1659430779.781075,15249
1659430779.823087,15258
1659430779.862707,15251
1659430779.902328,15252
1659430779.941949,15256
1659430779.982935,15260
1659430780.023922,15261
1659430780.06286,15257
1659430780.101797,15263
1659430780.140734,15270
1659430780.183258,15263
1659430780.225782,15266
1659430780.264378,15270
1659430780.302974,15287
1659430780.341569,15279
1659430780.38563,15277
1659430780.429691,15291
1659430780.473752,15295
1659430780.515251,15304
1659430780.55675,15301
1659430780.595004,15302
1659430780.633259,15300
1659430780.671513,15295
1659430780.713524,15291
1659430780.755536,15290
1659430780.794473,15279
1659430780.833411,15281
1659430780.872348,15281
1659430780.911286,15278
1659430780.950223,15278
1659430780.989161,15261
1659430781.030147,15272
1659430781.071134,15273
1659430781.110413,15278
1659430781.149692,15298
1659430781.188971,15293
1659430781.227908,15290
1659430781.266846,15272
1659430781.305783,15268
1659430781.346258,15251
1659430781.386732,15255
1659430781.426011,15248
1659430781.46529,15247
1659430781.504569,15255
1659430781.545556,15263
1659430781.586543,15303
1659430781.625139,15298
1659430781.663734,15290
1659430781.70233,15294
1659430781.744342,15311
1659430781.786353,15324
1659430781.824949,15339
1659430781.863545,15343
1659430781.902141,15331
1659430781.946543,15335
1659430781.990945,15322
1659430782.035348,15328
1659430782.077359,15323
1659430782.11937,15320
1659430782.158991,15318
1659430782.198612,15322
1659430782.238232,15322
1659430782.279219,15310
1659430782.320206,15330
1659430782.359485,15345
1659430782.398764,15363
1659430782.438043,15360
1659430782.479542,15340
1659430782.521041,15326
1659430782.559637,15316
1659430782.598233,15315
1659430782.636828,15308
1659430782.675766,15320
1659430782.714703,15316
1659430782.753641,15305
1659430782.79514,15301
1659430782.836639,15296
1659430782.874893,15307
1659430782.913148,15321
1659430782.951402,15331
1659430782.990681,15318
1659430783.02996,15313
1659430783.069239,15291
1659430783.111763,15276
1659430783.154286,15279
1659430783.192882,15272
1659430783.231478,15277
1659430783.270074,15253
1659430783.311573,15252
1659430783.353072,15270
1659430783.395596,15284
1659430783.43812,15290
1659430783.476716,15298
1659430783.515311,15319
1659430783.553907,15323
1659430783.59831,15338
1659430783.642712,15324
1659430783.687114,15311
1659430783.719904,15308
1659430783.752693,15302
1659430783.796412,15287
1659430783.840132,15280
1659430783.883851,15280
1659430783.922105,15270
1659430783.96036,15298
1659430783.998614,15296
1659430784.041138,15305
1659430784.083661,15317
1659430784.122257,15294
1659430784.160853,15283
1659430784.199449,15276
1659430784.238386,15274
1659430784.277324,15278
1659430784.316261,15279
1659430784.35776,15284
1659430784.39926,15280
1659430784.438197,15292
1659430784.477134,15288
1659430784.516072,15302
1659430784.557571,15308
1659430784.59907,15312
1659430784.637666,15305
1659430784.676262,15311
1659430784.714858,15304
1659430784.753795,15302
1659430784.792732,15307
1659430784.83167,15306
1659430784.872144,15320
1659430784.912619,15299
1659430784.95668,15297
1659430785.00074,15307
1659430785.044801,15318
1659430785.078615,15321
1659430785.112429,15300
1659430785.156148,15303
1659430785.199868,15290
1659430785.243587,15301
1659430785.276889,15291
1659430785.31019,15299
1659430785.354934,15314
1659430785.399678,15307
1659430785.444422,15308
1659430785.483701,15298
1659430785.52298,15331
1659430785.562259,15360
1659430785.603758,15370
1659430785.645257,15283
1659430785.684878,14997
1659430785.724498,14167
1659430785.764119,13085
1659430785.804593,12180
1659430785.845068,11514
1659430785.884347,10960
1659430785.923626,10575
1659430785.962905,10193
