LocalTimestamp,PG
1659430208.331273,8103
1659430208.370552,8302
1659430208.409831,8617
1659430208.44911,8968
1659430208.490609,9229
1659430208.532109,9371
1659430208.571046,9383
1659430208.609983,9375
1659430208.648921,9375
1659430208.69042,9408
1659430208.731919,9429
1659430208.770856,9452
1659430208.809794,9727
1659430208.848731,10265
1659430208.892451,10594
1659430208.93617,10607
1659430208.979889,10494
1659430209.022413,10579
1659430209.064936,10838
1659430209.103191,10828
1659430209.141445,11118
1659430209.179699,11519
1659430209.218295,11724
1659430209.256891,11881
1659430209.295487,12040
1659430209.336986,12193
1659430209.378485,12344
1659430209.417764,12471
1659430209.457043,12537
1659430209.496322,12613
1659430209.536797,12697
1659430209.577271,12742
1659430209.61655,12818
1659430209.655829,12891
1659430209.695108,12966
1659430209.734387,13046
1659430209.773666,13128
1659430209.812945,13181
1659430209.854444,13225
1659430209.895943,13278
1659430209.934539,13313
1659430209.973135,13343
1659430210.011731,13365
1659430210.054255,13388
1659430210.096778,13408
1659430210.135033,13423
1659430210.173287,13427
1659430210.211541,13447
1659430210.253553,13464
1659430210.295564,13468
1659430210.339967,13493
1659430210.384369,13512
1659430210.428771,13530
1659430210.462073,13555
1659430210.495375,13566
1659430210.539435,13586
1659430210.583496,13617
1659430210.627557,13625
1659430210.661883,13649
1659430210.69621,13683
1659430210.740612,13711
1659430210.785014,13742
1659430210.829417,13729
1659430210.868354,13712
1659430210.907292,13669
1659430210.946229,13641
1659430210.987728,13645
1659430211.029227,13704
1659430211.068506,13821
1659430211.107785,13669
1659430211.147064,13726
1659430211.184977,13779
1659430211.22289,13804
1659430211.260803,13852
1659430211.303838,13886
1659430211.346875,14015
1659430211.385129,14161
1659430211.423383,14304
1659430211.461638,14342
1659430211.502112,14405
1659430211.542587,14459
1659430211.581524,14412
1659430211.620461,14276
1659430211.659399,14118
1659430211.697995,13995
1659430211.736591,13857
1659430211.775187,13794
1659430211.816685,13778
1659430211.858185,13794
1659430211.90327,13821
1659430211.948355,13875
1659430211.993441,13947
1659430212.02623,14005
1659430212.05902,13997
1659430212.103081,13975
1659430212.147141,13980
1659430212.191202,13924
1659430212.230139,13808
1659430212.269077,13721
1659430212.308014,13691
1659430212.350026,13700
1659430212.392037,13709
1659430212.42995,13721
1659430212.467863,13734
1659430212.505775,13769
1659430212.544713,13869
1659430212.58365,14082
1659430212.622588,14318
1659430212.663575,14364
1659430212.704561,14344
1659430212.743499,14289
1659430212.782436,14205
1659430212.821374,14170
1659430212.85997,14166
1659430212.898565,14212
1659430212.937161,14226
1659430212.979173,14214
1659430213.021184,14196
1659430213.05978,14164
1659430213.098376,14147
1659430213.136972,14136
1659430213.179496,14126
1659430213.222019,14134
1659430213.264031,14134
1659430213.306042,14124
1659430213.34498,14100
1659430213.383917,14090
1659430213.422854,14077
1659430213.467257,14085
1659430213.511659,14136
1659430213.556062,14193
1659430213.594999,14242
1659430213.633936,14311
1659430213.672874,14345
1659430213.714373,14354
1659430213.755872,14346
1659430213.794809,14316
1659430213.833747,14291
1659430213.872684,14261
1659430213.914183,14233
1659430213.955683,14217
1659430213.994278,14229
1659430214.032874,14242
1659430214.07147,14251
1659430214.110066,14258
1659430214.148662,14269
1659430214.187258,14292
1659430214.226537,14291
1659430214.265816,14286
1659430214.305095,14289
1659430214.347106,14302
1659430214.389117,14302
1659430214.428055,14313
1659430214.466992,14321
1659430214.50593,14319
1659430214.550332,14345
1659430214.594734,14361
1659430214.639137,14363
1659430214.671926,14384
1659430214.704715,14400
1659430214.748435,14423
1659430214.792154,14421
1659430214.835873,14406
1659430214.878397,14412
1659430214.920921,14435
1659430214.959175,14446
1659430214.997429,14462
1659430215.035684,14499
1659430215.074621,14498
1659430215.113559,14480
1659430215.152496,14454
1659430215.193483,14449
1659430215.23447,14453
1659430215.27409,14475
1659430215.313711,14482
1659430215.353331,14490
1659430215.391586,14520
1659430215.42984,14523
1659430215.468094,14548
1659430215.510106,14564
1659430215.552117,14576
1659430215.590713,14593
1659430215.629309,14597
1659430215.667905,14587
1659430215.709404,14571
1659430215.750903,14563
1659430215.78984,14558
1659430215.828778,14559
1659430215.867715,14555
1659430215.909214,14550
1659430215.950713,14560
1659430215.988626,14557
1659430216.026539,14549
1659430216.064452,14552
1659430216.107488,14560
1659430216.150524,14545
1659430216.18912,14544
1659430216.227715,14557
1659430216.266311,14566
1659430216.311055,14571
1659430216.355799,14560
1659430216.400543,14557
1659430216.442042,14565
1659430216.483541,14557
1659430216.523162,14553
1659430216.562782,14562
1659430216.602403,14581
1659430216.640657,14598
1659430216.678911,14626
1659430216.717166,14641
1659430216.75969,14656
1659430216.802213,14673
1659430216.841151,14678
1659430216.880088,14679
1659430216.919026,14698
1659430216.95728,14715
1659430216.995534,14726
1659430217.033789,14742
1659430217.075288,14763
1659430217.116787,14770
1659430217.155724,14777
1659430217.194662,14781
1659430217.233599,14773
1659430217.275098,14774
1659430217.316597,14772
1659430217.355535,14760
1659430217.394472,14768
1659430217.43341,14774
1659430217.475421,14785
1659430217.517432,14801
1659430217.556028,14805
1659430217.594624,14817
1659430217.63322,14826
1659430217.675231,14826
1659430217.717243,14844
1659430217.762328,14846
1659430217.807414,14851
1659430217.852499,14860
1659430217.890412,14878
1659430217.928325,14893
1659430217.966238,14926
1659430218.007224,14941
1659430218.048211,14971
1659430218.086807,14989
1659430218.125403,14982
1659430218.163999,14981
1659430218.20601,14973
1659430218.248022,14964
1659430218.286276,14966
1659430218.32453,14982
1659430218.362785,14966
1659430218.402064,14971
1659430218.441343,14979
1659430218.480622,14981
1659430218.521608,14962
1659430218.562595,14962
1659430218.601532,14952
1659430218.64047,14944
1659430218.679407,14942
1659430218.718345,14944
1659430218.757282,14941
1659430218.79622,14959
1659430218.837719,14957
1659430218.879218,14968
1659430218.917814,14951
1659430218.956409,14947
1659430218.995005,14950
1659430219.037017,14968
1659430219.079028,14967
1659430219.117966,14968
1659430219.156903,14981
1659430219.195841,15001
1659430219.236827,14999
1659430219.277814,14999
1659430219.321875,14990
1659430219.365936,14994
1659430219.409997,14981
1659430219.448592,14987
1659430219.487188,14982
1659430219.525784,14998
1659430219.567796,14997
1659430219.609807,15013
1659430219.649086,15006
1659430219.688365,15007
1659430219.727644,15010
1659430219.769143,14999
1659430219.810642,14989
1659430219.84958,14983
1659430219.888517,14993
1659430219.927454,14997
1659430219.966392,15007
1659430220.005329,15005
1659430220.044267,14998
1659430220.08679,15012
1659430220.129314,15012
1659430220.16791,15024
1659430220.206506,15033
1659430220.245102,15029
1659430220.283356,15036
1659430220.32161,15050
1659430220.359865,15060
1659430220.401876,15077
1659430220.443888,15113
1659430220.482142,15131
1659430220.520396,15135
1659430220.55865,15148
1659430220.60015,15154
1659430220.641649,15166
1659430220.684173,15152
1659430220.726696,15151
1659430220.765292,15142
1659430220.803888,15132
1659430220.842484,15107
1659430220.886886,15102
1659430220.931289,15089
1659430220.975691,15084
1659430221.009505,15089
1659430221.043319,15088
1659430221.088063,15092
1659430221.132807,15097
1659430221.177551,15096
1659430221.215464,15103
1659430221.253376,15130
1659430221.291289,15152
1659430221.332788,15165
1659430221.374287,15174
1659430221.412883,15174
1659430221.451479,15190
1659430221.490075,15197
1659430221.531574,15206
1659430221.573073,15213
1659430221.611669,15233
1659430221.650265,15243
1659430221.688861,15268
1659430221.727798,15296
1659430221.766736,15308
1659430221.805673,15298
1659430221.84666,15303
1659430221.887646,15302
1659430221.927267,15293
1659430221.966888,15315
1659430222.006508,15321
1659430222.048007,15333
1659430222.089506,15350
1659430222.128102,15363
1659430222.166698,15374
1659430222.205294,15390
1659430222.247305,15396
1659430222.289317,15395
1659430222.328937,15390
1659430222.368558,15371
1659430222.408179,15360
1659430222.448653,15337
1659430222.489127,15323
1659430222.528065,15327
1659430222.567002,15338
1659430222.60594,15342
1659430222.650342,15343
1659430222.694744,15354
1659430222.739147,15359
1659430222.772961,15362
1659430222.806775,15363
1659430222.850836,15368
1659430222.894896,15391
1659430222.938957,15412
1659430222.980968,15432
1659430223.02298,15444
1659430223.061576,15466
1659430223.100172,15474
1659430223.138767,15492
1659430223.177705,15501
1659430223.216642,15503
1659430223.25558,15519
1659430223.298104,15512
1659430223.340627,15505
1659430223.379565,15511
1659430223.418502,15520
1659430223.45744,15520
1659430223.498426,15524
1659430223.539413,15505
1659430223.578351,15506
1659430223.617288,15520
1659430223.656225,15513
1659430223.694821,15506
1659430223.733417,15498
1659430223.772013,15487
1659430223.814025,15473
1659430223.856036,15467
1659430223.894632,15463
1659430223.933228,15456
1659430223.971824,15460
1659430224.013835,15460
1659430224.055846,15474
1659430224.094442,15493
1659430224.133038,15501
1659430224.171634,15514
1659430224.213645,15527
1659430224.255657,15525
1659430224.294936,15528
1659430224.334215,15555
1659430224.373494,15568
1659430224.417213,15578
1659430224.460932,15589
1659430224.504652,15590
1659430224.545638,15582
1659430224.586625,15575
1659430224.625221,15577
1659430224.663817,15591
1659430224.702413,15599
1659430224.741009,15603
1659430224.779604,15607
1659430224.8182,15615
1659430224.860212,15625
1659430224.902223,15640
1659430224.941161,15640
1659430224.980098,15651
1659430225.019036,15648
1659430225.057631,15649
1659430225.096227,15644
1659430225.134823,15635
1659430225.176322,15623
1659430225.217821,15616
1659430225.257783,15609
1659430225.297745,15600
1659430225.337708,15590
1659430225.378694,15589
1659430225.419681,15593
1659430225.458619,15602
1659430225.497556,15613
1659430225.536494,15615
1659430225.579017,15618
1659430225.621541,15612
1659430225.660478,15612
1659430225.699416,15610
1659430225.738353,15615
1659430225.778828,15626
1659430225.819302,15653
1659430225.864046,15676
1659430225.90879,15666
1659430225.953534,15657
1659430225.991788,15654
1659430226.030042,15656
1659430226.068297,15646
1659430226.109283,15645
1659430226.15027,15647
1659430226.189891,15647
1659430226.229511,15656
1659430226.269132,15651
1659430226.308069,15672
1659430226.347007,15673
1659430226.385944,15691
1659430226.426931,15691
1659430226.467918,15704
1659430226.507538,15701
1659430226.547159,15714
1659430226.586779,15720
1659430226.628791,15714
1659430226.670802,15726
1659430226.709398,15718
1659430226.747994,15724
1659430226.78659,15739
1659430226.825527,15747
1659430226.864465,15762
1659430226.903402,15762
1659430226.944389,15769
1659430226.985376,15768
1659430227.02363,15778
1659430227.061884,15775
1659430227.100139,15775
1659430227.142662,15786
1659430227.185186,15779
1659430227.22344,15789
1659430227.261695,15797
1659430227.299949,15798
1659430227.341448,15793
1659430227.382947,15803
1659430227.42735,15799
1659430227.471752,15801
1659430227.516154,15817
1659430227.549968,15820
1659430227.583782,15818
1659430227.627843,15837
1659430227.671904,15829
1659430227.715965,15827
1659430227.754902,15821
1659430227.79384,15812
1659430227.832777,15802
1659430227.873764,15810
1659430227.914751,15806
1659430227.953005,15823
1659430227.991259,15831
1659430228.029514,15844
1659430228.06811,15844
1659430228.106705,15831
1659430228.145301,15825
1659430228.187825,15821
1659430228.230349,15829
1659430228.268603,15828
1659430228.306857,15844
1659430228.345112,15832
1659430228.386611,15823
1659430228.42811,15827
1659430228.467047,15817
1659430228.505985,15825
1659430228.544922,15824
1659430228.587446,15826
1659430228.62997,15808
1659430228.668566,15788
1659430228.707161,15784
1659430228.745757,15791
1659430228.787769,15798
1659430228.82978,15798
1659430228.868718,15804
1659430228.907655,15815
1659430228.946593,15821
1659430228.988091,15812
1659430229.029591,15813
1659430229.071346,15810
1659430229.113101,15817
1659430229.154856,15812
1659430229.196612,15811
1659430229.237598,15807
1659430229.278585,15822
1659430229.317181,15834
1659430229.355777,15835
1659430229.394373,15837
1659430229.43331,15840
1659430229.472248,15845
1659430229.511185,15858
1659430229.553197,15863
1659430229.595208,15863
1659430229.634145,15865
1659430229.673083,15858
1659430229.71202,15853
1659430229.75352,15862
1659430229.795018,15861
1659430229.834639,15859
1659430229.87426,15864
1659430229.91388,15864
1659430229.952135,15850
1659430229.990389,15860
1659430230.028643,15862
1659430230.071167,15861
1659430230.113691,15859
1659430230.152628,15851
1659430230.191566,15871
1659430230.230503,15872
1659430230.270977,15887
1659430230.311452,15890
1659430230.355513,15874
1659430230.399573,15881
1659430230.443634,15887
1659430230.477961,15885
1659430230.512287,15869
1659430230.556006,15871
1659430230.599725,15867
1659430230.643445,15884
1659430230.676746,15914
1659430230.710048,15922
1659430230.754451,15937
1659430230.798853,15941
1659430230.843255,15940
1659430230.881851,15916
1659430230.920447,15935
1659430230.959043,15947
1659430231.000542,15960
1659430231.042041,15980
1659430231.081661,15960
1659430231.121282,15939
1659430231.160903,15902
1659430231.198815,15891
1659430231.236728,15893
1659430231.274641,15911
1659430231.315628,15907
1659430231.356614,15900
1659430231.395552,15900
1659430231.434489,15901
1659430231.473427,15926
1659430231.515438,15931
1659430231.55745,15941
1659430231.596045,15951
1659430231.634641,15958
1659430231.673237,15970
1659430231.712516,15986
1659430231.751795,16003
1659430231.791074,16008
1659430231.832061,16018
1659430231.873048,16008
1659430231.915571,15990
1659430231.958095,15992
1659430231.997033,15990
1659430232.03597,15997
1659430232.074908,15983
1659430232.116919,15985
1659430232.15893,15986
1659430232.197185,15996
1659430232.235439,16002
1659430232.273693,15986
1659430232.318437,15974
1659430232.363181,15984
1659430232.407925,15987
1659430232.441227,15996
1659430232.474529,16007
1659430232.518931,16015
1659430232.563333,16019
1659430232.607735,16032
1659430232.646673,16034
1659430232.68561,16046
1659430232.724548,16051
1659430232.766047,16058
1659430232.807546,16063
1659430232.846483,16033
1659430232.885421,16010
1659430232.924358,16008
1659430232.96637,16000
1659430233.008381,16003
1659430233.047318,16004
1659430233.086256,16009
1659430233.125193,16003
1659430233.163789,16001
1659430233.202385,15996
1659430233.240981,16012
1659430233.282992,16038
1659430233.325004,16046
1659430233.363941,16033
1659430233.402879,16017
1659430233.441816,16022
1659430233.482803,16018
1659430233.52379,16025
1659430233.562386,16026
1659430233.600981,16031
1659430233.639577,16038
1659430233.683638,16033
1659430233.727699,16049
1659430233.77176,16054
1659430233.805574,16050
1659430233.839388,16045
1659430233.883107,16048
1659430233.926826,16036
1659430233.970546,16030
1659430234.004359,16030
1659430234.038174,16018
1659430234.082234,15995
1659430234.126295,15957
1659430234.170356,15923
1659430234.209293,15901
1659430234.248231,15899
1659430234.287168,15909
1659430234.32918,15930
1659430234.371191,15941
1659430234.413203,15949
1659430234.455214,15971
1659430234.493468,15969
1659430234.531723,15987
1659430234.569977,15992
1659430234.608573,16009
1659430234.647169,16012
1659430234.685765,16015
1659430234.728288,16036
1659430234.770812,16044
1659430234.808725,16063
1659430234.846637,16050
1659430234.88455,16046
1659430234.923488,16052
1659430234.962425,16052
1659430235.001363,16049
1659430235.043374,16048
1659430235.085386,16043
1659430235.12364,16031
1659430235.161894,16037
1659430235.200148,16032
1659430235.243185,16040
1659430235.286221,16060
1659430235.325158,16060
1659430235.364095,16075
1659430235.403033,16061
1659430235.444532,16066
1659430235.486031,16089
1659430235.530433,16109
1659430235.574836,16115
1659430235.619238,16115
1659430235.653564,16125
1659430235.687891,16126
1659430235.731952,16147
1659430235.776012,16157
1659430235.820073,16162
1659430235.858669,16167
1659430235.897265,16165
1659430235.935861,16165
1659430235.97736,16170
1659430236.018859,16166
1659430236.056772,16162
1659430236.094685,16166
1659430236.132597,16161
1659430236.174097,16141
1659430236.215596,16128
1659430236.255216,16137
1659430236.294837,16157
1659430236.334457,16173
1659430236.372712,16161
1659430236.410966,16159
1659430236.44922,16152
1659430236.491232,16141
1659430236.533243,16142
1659430236.572522,16150
1659430236.611801,16171
1659430236.65108,16168
1659430236.692579,16184
1659430236.734078,16176
1659430236.772332,16184
1659430236.810587,16199
1659430236.848841,16189
1659430236.887779,16199
1659430236.926716,16208
1659430236.965653,16215
1659430237.007153,16221
1659430237.048652,16219
1659430237.089638,16210
1659430237.130625,16198
1659430237.169221,16190
1659430237.207817,16185
1659430237.246413,16189
1659430237.290815,16194
1659430237.335217,16207
1659430237.37962,16215
1659430237.412921,16222
1659430237.446223,16226
1659430237.490967,16223
1659430237.535711,16234
1659430237.580455,16238
1659430237.619051,16256
1659430237.657647,16252
1659430237.696243,16244
1659430237.734838,16246
1659430237.773434,16248
1659430237.81203,16249
1659430237.853529,16238
1659430237.895028,16242
1659430237.933624,16237
1659430237.97222,16256
1659430238.010816,16252
1659430238.049412,16254
1659430238.088008,16259
1659430238.126604,16267
1659430238.169127,16271
1659430238.211651,16271
1659430238.250589,16286
1659430238.289526,16285
1659430238.328464,16283
1659430238.369962,16282
1659430238.411462,16286
1659430238.450399,16291
1659430238.489336,16288
1659430238.528274,16290
1659430238.573018,16285
1659430238.617762,16288
1659430238.662506,16282
1659430238.704517,16275
1659430238.746528,16268
1659430238.785807,16255
1659430238.825086,16265
1659430238.864365,16271
1659430238.905864,16273
1659430238.947364,16286
1659430238.98596,16277
1659430239.024555,16294
1659430239.063151,16293
1659430239.10243,16298
1659430239.141709,16291
1659430239.180988,16291
1659430239.222487,16290
1659430239.263986,16281
1659430239.302582,16278
1659430239.341178,16279
1659430239.379774,16277
1659430239.420761,16288
1659430239.461748,16293
1659430239.501368,16288
1659430239.540989,16297
1659430239.580609,16288
1659430239.619205,16301
1659430239.657801,16300
1659430239.696397,16297
1659430239.737384,16291
1659430239.77837,16293
1659430239.817991,16280
1659430239.857611,16284
1659430239.897232,16279
1659430239.938731,16281
1659430239.98023,16294
1659430240.024632,16294
1659430240.069035,16299
1659430240.113437,16311
1659430240.146227,16315
1659430240.179016,16304
1659430240.223418,16318
1659430240.267821,16317
1659430240.312223,16328
1659430240.345012,16345
1659430240.377802,16355
1659430240.422204,16355
1659430240.466606,16344
1659430240.511009,16341
1659430240.549605,16346
1659430240.588201,16361
1659430240.626796,16352
1659430240.667783,16363
1659430240.70877,16373
1659430240.748049,16365
1659430240.787328,16374
1659430240.826607,16379
1659430240.869131,16377
1659430240.911654,16365
1659430240.949909,16377
1659430240.988163,16374
1659430241.026417,16375
1659430241.066038,16377
1659430241.105659,16379
1659430241.145279,16385
1659430241.186266,16388
1659430241.227252,16390
1659430241.265507,16386
1659430241.303761,16388
1659430241.342016,16393
1659430241.380953,16400
1659430241.41989,16406
1659430241.458828,16410
1659430241.501352,16429
1659430241.543875,16419
1659430241.58435,16410
1659430241.624824,16407
1659430241.664103,16401
1659430241.703382,16397
1659430241.742661,16412
1659430241.785185,16414
1659430241.827709,16403
1659430241.866646,16429
1659430241.905584,16409
1659430241.944521,16405
1659430241.988923,16404
1659430242.033326,16400
1659430242.077728,16391
1659430242.11103,16386
1659430242.144331,16390
1659430242.188392,16392
1659430242.232453,16394
1659430242.276514,16396
1659430242.319037,16411
1659430242.361561,16416
1659430242.400157,16416
1659430242.438753,16409
1659430242.477349,16406
1659430242.515603,16409
1659430242.553858,16417
1659430242.592112,16421
1659430242.633099,16428
1659430242.674085,16435
1659430242.713023,16437
1659430242.75196,16435
1659430242.790898,16453
1659430242.829835,16453
1659430242.868773,16448
1659430242.90771,16456
1659430242.949209,16459
1659430242.990708,16454
1659430243.029304,16453
1659430243.0679,16465
1659430243.106496,16468
1659430243.148507,16476
1659430243.190519,16461
1659430243.229456,16461
1659430243.268394,16473
1659430243.307331,16461
1659430243.34883,16459
1659430243.390329,16441
1659430243.429267,16425
1659430243.468204,16412
1659430243.507141,16423
1659430243.547616,16422
1659430243.58809,16411
1659430243.631809,16409
1659430243.675529,16390
1659430243.719248,16378
1659430243.758527,16374
1659430243.797806,16385
1659430243.837085,16384
1659430243.878072,16394
1659430243.919059,16386
1659430243.957996,16383
1659430243.996933,16390
1659430244.035871,16402
1659430244.07515,16431
1659430244.114429,16443
1659430244.153708,16455
1659430244.195719,16460
1659430244.237731,16460
1659430244.276326,16448
1659430244.314922,16450
1659430244.353518,16447
1659430244.396042,16442
1659430244.438566,16442
1659430244.47682,16438
1659430244.515074,16440
1659430244.553329,16450
1659430244.591925,16462
1659430244.63052,16466
1659430244.669116,16454
1659430244.712152,16450
1659430244.755188,16443
1659430244.793443,16454
1659430244.831697,16457
1659430244.869951,16465
1659430244.914012,16471
1659430244.958073,16476
1659430245.002134,16473
1659430245.041754,16463
1659430245.081375,16463
1659430245.120996,16457
1659430245.161982,16465
1659430245.202969,16474
1659430245.241565,16473
1659430245.280161,16478
1659430245.318757,16467
1659430245.361793,16477
1659430245.404829,16480
1659430245.443425,16471
1659430245.482021,16477
1659430245.520616,16478
1659430245.559212,16480
1659430245.597808,16488
1659430245.636404,16495
1659430245.677903,16501
1659430245.719402,16506
1659430245.75834,16490
1659430245.797277,16485
1659430245.836215,16490
1659430245.877201,16496
1659430245.918188,16494
1659430245.957125,16489
1659430245.996063,16490
1659430246.035,16496
1659430246.075987,16499
1659430246.116974,16484
1659430246.155911,16477
1659430246.194849,16505
1659430246.233786,16508
1659430246.275798,16518
1659430246.317809,16512
1659430246.356405,16526
1659430246.395001,16530
1659430246.433597,16553
1659430246.477657,16552
1659430246.521718,16543
1659430246.565779,16545
1659430246.60779,16530
1659430246.649802,16532
1659430246.689081,16531
1659430246.72836,16539
1659430246.767639,16524
1659430246.805893,16516
1659430246.844147,16507
1659430246.882402,16502
1659430246.923901,16516
1659430246.9654,16511
1659430247.003996,16488
1659430247.042592,16467
1659430247.081187,16468
1659430247.122687,16480
1659430247.164186,16489
1659430247.203123,16489
1659430247.242061,16482
1659430247.280998,16491
1659430247.319936,16475
1659430247.358873,16458
1659430247.39781,16457
1659430247.439309,16471
1659430247.480808,16489
1659430247.520087,16513
1659430247.559366,16512
1659430247.598645,16509
1659430247.640657,16512
1659430247.682668,16516
1659430247.721947,16498
1659430247.761226,16503
1659430247.800505,16510
1659430247.84098,16516
1659430247.881454,16533
1659430247.920392,16542
1659430247.959329,16538
1659430247.998266,16528
1659430248.04079,16523
1659430248.083314,16544
1659430248.127033,16534
1659430248.170753,16531
1659430248.214472,16533
1659430248.253409,16538
1659430248.292346,16538
1659430248.331284,16556
1659430248.372783,16548
1659430248.414282,16538
1659430248.45322,16538
1659430248.492157,16533
1659430248.531095,16523
1659430248.573618,16517
1659430248.616142,16515
1659430248.655079,16503
1659430248.694017,16526
1659430248.732954,16533
1659430248.774453,16532
1659430248.815953,16535
1659430248.854548,16536
1659430248.893144,16551
1659430248.93174,16551
1659430248.970678,16562
1659430249.009615,16550
1659430249.048552,16543
1659430249.090051,16540
1659430249.131551,16535
1659430249.170146,16536
1659430249.208742,16512
1659430249.247338,16508
1659430249.285934,16517
1659430249.32453,16524
1659430249.363126,16518
1659430249.4036,16527
1659430249.444075,16542
1659430249.483354,16553
1659430249.522633,16560
1659430249.561912,16547
1659430249.603923,16557
1659430249.645935,16551
1659430249.689995,16551
1659430249.734056,16571
1659430249.778117,16558
1659430249.817054,16555
1659430249.855992,16551
1659430249.894929,16546
1659430249.93694,16562
1659430249.978952,16574
1659430250.017889,16563
1659430250.056827,16553
1659430250.095764,16546
1659430250.132652,16542
1659430250.16954,16545
1659430250.206429,16556
1659430250.243317,16587
1659430250.284559,16610
1659430250.325803,16609
1659430250.367045,16569
1659430250.408288,16545
1659430250.447226,16521
1659430250.486163,16506
1659430250.525101,16524
1659430250.567112,16545
1659430250.609123,16546
1659430250.647719,16562
1659430250.686315,16558
1659430250.724911,16510
1659430250.766922,16439
1659430250.808934,16390
1659430250.847872,16357
1659430250.886809,16365
1659430250.925746,16355
1659430250.969807,16329
1659430251.013868,16324
1659430251.057929,16321
1659430251.09994,16312
1659430251.141952,16285
1659430251.181231,16248
1659430251.22051,16222
1659430251.259789,16230
1659430251.300775,16235
1659430251.341762,16271
1659430251.380358,16291
1659430251.418954,16291
1659430251.45755,16297
1659430251.496487,16284
1659430251.535424,16293
1659430251.574362,16289
1659430251.615861,16319
1659430251.65736,16303
1659430251.696297,16296
1659430251.735235,16300
1659430251.774172,16298
1659430251.816184,16286
1659430251.858195,16292
1659430251.896791,16302
1659430251.935387,16306
1659430251.973983,16317
1659430252.013262,16314
1659430252.052541,16305
1659430252.09182,16310
1659430252.133831,16300
1659430252.175843,16321
1659430252.214097,16313
1659430252.252351,16307
1659430252.290606,16314
1659430252.33108,16321
1659430252.371555,16323
1659430252.410834,16315
1659430252.450113,16328
1659430252.489392,16321
1659430252.530378,16328
1659430252.571365,16311
1659430252.615426,16322
1659430252.659487,16338
1659430252.703547,16347
1659430252.742143,16319
1659430252.780739,16310
1659430252.819335,16313
1659430252.860834,16316
1659430252.902333,16346
1659430252.941271,16356
1659430252.980208,16362
1659430253.019145,16382
1659430253.058083,16391
1659430253.09702,16403
1659430253.135958,16396
1659430253.177457,16397
1659430253.218956,16379
1659430253.257893,16373
1659430253.296831,16368
1659430253.335768,16368
1659430253.37778,16371
1659430253.419791,16365
1659430253.458729,16360
1659430253.497666,16373
1659430253.536603,16360
1659430253.574858,16352
1659430253.613112,16346
1659430253.651366,16333
1659430253.692353,16331
1659430253.73334,16320
1659430253.772619,16309
1659430253.811898,16322
1659430253.851177,16336
1659430253.892676,16343
1659430253.934175,16339
1659430253.978577,16330
1659430254.02298,16335
1659430254.067382,16333
1659430254.101196,16358
1659430254.13501,16368
1659430254.179413,16378
1659430254.223815,16375
1659430254.268217,16370
1659430254.301519,16368
1659430254.334821,16362
1659430254.379906,16358
1659430254.424992,16354
1659430254.470077,16369
1659430254.502867,16392
1659430254.535656,16398
1659430254.580058,16386
1659430254.62446,16376
1659430254.668863,16386
1659430254.7078,16390
1659430254.746738,16390
1659430254.785675,16390
1659430254.828199,16389
1659430254.870723,16377
1659430254.908635,16376
1659430254.946548,16383
1659430254.984461,16377
1659430255.026472,16386
1659430255.068484,16373
1659430255.107763,16370
1659430255.147042,16366
1659430255.186321,16364
1659430255.224575,16366
1659430255.262829,16377
1659430255.301084,16358
1659430255.340704,16337
1659430255.380325,16336
1659430255.419945,16324
1659430255.461444,16346
1659430255.502944,16346
1659430255.546663,16328
1659430255.590382,16312
1659430255.634101,16319
1659430255.673038,16313
1659430255.711976,16327
1659430255.750913,16341
1659430255.7919,16345
1659430255.832887,16358
1659430255.871483,16346
1659430255.910079,16346
1659430255.948675,16373
1659430255.987612,16398
1659430256.02655,16402
1659430256.065487,16399
1659430256.106474,16417
1659430256.14746,16426
1659430256.186056,16444
1659430256.224652,16440
1659430256.263248,16436
1659430256.305772,16439
1659430256.348296,16427
1659430256.387233,16422
1659430256.42617,16418
1659430256.465108,16411
1659430256.503704,16402
1659430256.5423,16405
1659430256.580895,16400
1659430256.622907,16389
1659430256.664918,16389
1659430256.703514,16376
1659430256.74211,16376
1659430256.780706,16362
1659430256.822717,16343
1659430256.864729,16347
1659430256.90879,16351
1659430256.95285,16347
1659430256.996911,16344
1659430257.029701,16354
1659430257.06249,16357
1659430257.106551,16373
1659430257.150612,16373
1659430257.194672,16377
1659430257.228486,16384
1659430257.2623,16377
1659430257.307386,16370
1659430257.352471,16369
1659430257.397557,16369
1659430257.436494,16362
1659430257.475432,16365
1659430257.514369,16337
1659430257.555868,16322
1659430257.597367,16318
1659430257.636646,16315
1659430257.675925,16322
1659430257.715204,16333
1659430257.757216,16327
1659430257.799227,16308
1659430257.837823,16318
1659430257.876419,16325
1659430257.915015,16350
1659430257.953952,16375
1659430257.99289,16358
1659430258.031827,16339
1659430258.072814,16316
1659430258.113801,16317
1659430258.152055,16336
1659430258.190309,16361
1659430258.228564,16380
1659430258.268184,16389
1659430258.307805,16398
1659430258.347425,16387
1659430258.388924,16394
1659430258.430423,16388
1659430258.47141,16387
1659430258.512397,16393
1659430258.550993,16391
1659430258.589589,16390
1659430258.628185,16391
1659430258.670708,16391
1659430258.713232,16391
1659430258.751828,16398
1659430258.790424,16410
1659430258.82902,16394
1659430258.87308,16389
1659430258.917141,16384
1659430258.961202,16375
1659430258.994504,16384
1659430259.027806,16389
1659430259.071525,16393
1659430259.115244,16398
1659430259.158963,16391
1659430259.197901,16392
1659430259.236838,16398
1659430259.275775,16393
1659430259.317275,16401
1659430259.358774,16425
1659430259.397028,16424
1659430259.435282,16402
1659430259.473536,16419
1659430259.512474,16452
1659430259.551411,16455
1659430259.590349,16411
1659430259.632873,16392
1659430259.675396,16436
1659430259.713651,16440
1659430259.751905,16420
1659430259.790159,16385
1659430259.831146,16375
1659430259.872133,16397
1659430259.911753,16406
1659430259.951374,16406
1659430259.990994,16399
1659430260.033006,16421
1659430260.075017,16422
1659430260.113613,16416
1659430260.152209,16401
1659430260.190805,16387
1659430260.232304,16380
1659430260.273803,16390
1659430260.312399,16404
1659430260.350995,16404
1659430260.389591,16429
1659430260.433652,16417
1659430260.477712,16437
1659430260.521773,16439
1659430260.559942,16433
1659430260.598111,16427
1659430260.63628,16421
1659430260.674449,16429
1659430260.715436,16415
1659430260.756422,16430
1659430260.796043,16447
1659430260.835664,16440
1659430260.875284,16447
1659430260.916783,16438
1659430260.958282,16438
1659430260.996878,16434
1659430261.035474,16428
1659430261.07407,16434
1659430261.118131,16445
1659430261.162191,16439
1659430261.206252,16445
1659430261.240066,16450
1659430261.27388,16452
1659430261.317941,16445
1659430261.362002,16433
1659430261.406063,16445
1659430261.447562,16438
1659430261.489061,16420
1659430261.527657,16415
1659430261.566252,16437
1659430261.604848,16427
1659430261.643444,16412
1659430261.68204,16411
1659430261.720636,16413
1659430261.762647,16415
1659430261.804659,16406
1659430261.843938,16392
1659430261.883217,16393
1659430261.922496,16412
1659430261.961092,16408
1659430261.999688,16404
1659430262.038284,16424
1659430262.079783,16427
1659430262.121282,16432
1659430262.159536,16428
1659430262.19779,16435
1659430262.236045,16419
1659430262.278569,16402
1659430262.321092,16366
1659430262.359347,16344
1659430262.397601,16329
1659430262.435855,16331
1659430262.476842,16371
1659430262.517829,16396
1659430262.556766,16395
1659430262.595704,16403
1659430262.634641,16399
1659430262.676652,16404
1659430262.718664,16415
1659430262.762725,16396
1659430262.806785,16377
1659430262.850846,16378
1659430262.889784,16359
1659430262.928721,16370
1659430262.967659,16381
1659430263.009158,16405
1659430263.050657,16449
1659430263.089936,16467
1659430263.129215,16464
1659430263.168494,16452
1659430263.210505,16437
1659430263.252517,16410
1659430263.291795,16368
1659430263.331074,16282
1659430263.370353,16234
1659430263.408949,16275
1659430263.447545,16347
1659430263.486141,16409
1659430263.528152,16421
1659430263.570164,16414
1659430263.608418,16375
1659430263.646672,16356
1659430263.684927,16358
1659430263.726938,16386
1659430263.76895,16416
1659430263.808229,16422
1659430263.847508,16417
1659430263.886787,16419
1659430263.925383,16445
1659430263.963979,16456
1659430264.002574,16463
1659430264.043561,16466
1659430264.084548,16470
1659430264.127584,16493
1659430264.17062,16508
1659430264.209558,16508
1659430264.248495,16499
1659430264.287432,16494
1659430264.328419,16482
1659430264.369406,16470
1659430264.408343,16452
1659430264.447281,16453
1659430264.486218,16458
1659430264.530621,16452
1659430264.575023,16433
1659430264.619425,16432
1659430264.652215,16434
1659430264.685004,16463
1659430264.729748,16484
1659430264.774492,16492
1659430264.819236,16478
1659430264.85749,16470
1659430264.895744,16471
1659430264.933999,16500
1659430264.974985,16510
1659430265.015972,16533
1659430265.055593,16538
1659430265.095213,16532
1659430265.134834,16524
1659430265.176845,16513
1659430265.218857,16498
1659430265.257111,16460
1659430265.295365,16441
1659430265.33362,16416
1659430265.372899,16434
1659430265.412178,16469
1659430265.451457,16465
1659430265.493468,16455
1659430265.535479,16449
1659430265.574075,16447
1659430265.612671,16429
1659430265.651267,16432
1659430265.691741,16447
1659430265.732216,16435
1659430265.772471,16421
1659430265.812726,16430
1659430265.85298,16449
1659430265.893235,16453
1659430265.93349,16445
1659430265.973745,16447
1659430266.014,16427
1659430266.052937,16403
1659430266.091875,16376
1659430266.130812,16378
1659430266.172311,16372
1659430266.21381,16385
1659430266.252748,16365
1659430266.291685,16350
1659430266.330623,16361
1659430266.372634,16374
1659430266.414646,16388
1659430266.453583,16394
1659430266.49252,16387
1659430266.531458,16373
1659430266.572957,16383
1659430266.614456,16396
1659430266.654077,16414
1659430266.693697,16446
1659430266.733318,16446
1659430266.774304,16451
1659430266.815291,16453
1659430266.853887,16462
1659430266.892483,16470
1659430266.931079,16487
1659430266.975481,16481
1659430267.019883,16486
1659430267.064286,16492
1659430267.105785,16484
1659430267.147284,16478
1659430267.186221,16470
1659430267.225159,16477
1659430267.264096,16468
1659430267.305595,16476
1659430267.347095,16487
1659430267.386374,16486
1659430267.425653,16491
1659430267.464931,16488
1659430267.503527,16500
1659430267.542123,16473
1659430267.580719,16462
1659430267.62273,16455
1659430267.664742,16457
1659430267.703679,16458
1659430267.742617,16456
1659430267.781554,16458
1659430267.822541,16450
1659430267.863528,16460
1659430267.902124,16450
1659430267.94072,16443
1659430267.979315,16455
1659430268.018253,16466
1659430268.05719,16475
1659430268.096128,16479
1659430268.138139,16486
1659430268.180151,16486
1659430268.218063,16487
1659430268.255976,16489
1659430268.293889,16496
1659430268.3359,16516
1659430268.377912,16521
1659430268.417191,16509
1659430268.45647,16507
1659430268.495749,16510
1659430268.537248,16502
1659430268.578747,16512
1659430268.623149,16520
1659430268.667552,16514
1659430268.711954,16518
1659430268.745768,16515
1659430268.779582,16516
1659430268.823301,16523
1659430268.86702,16512
1659430268.91074,16507
1659430268.949336,16510
1659430268.987931,16504
1659430269.026527,16499
1659430269.069051,16508
1659430269.111575,16511
1659430269.149829,16511
1659430269.188083,16499
1659430269.226338,16506
1659430269.265275,16511
1659430269.304213,16502
1659430269.34315,16500
1659430269.384649,16501
1659430269.426148,16509
1659430269.464403,16511
1659430269.502657,16513
1659430269.540911,16503
1659430269.583435,16503
1659430269.625959,16518
1659430269.665238,16503
1659430269.704517,16499
1659430269.743796,16495
1659430269.782392,16501
1659430269.820987,16499
1659430269.859583,16513
1659430269.901595,16514
1659430269.943606,16513
1659430269.98613,16515
1659430270.028654,16515
1659430270.066908,16514
1659430270.105162,16512
1659430270.143417,16509
1659430270.187478,16508
1659430270.231538,16514
1659430270.275599,16510
1659430270.308901,16514
1659430270.342202,16527
1659430270.386605,16528
1659430270.431007,16521
1659430270.47541,16506
1659430270.514688,16503
1659430270.553967,16502
1659430270.593246,16501
1659430270.635258,16495
1659430270.677269,16502
1659430270.715865,16499
1659430270.754461,16508
1659430270.793057,16519
1659430270.831994,16503
1659430270.870932,16490
1659430270.909869,16483
1659430270.952393,16479
1659430270.994917,16479
1659430271.033513,16481
1659430271.072109,16481
1659430271.110704,16475
1659430271.1493,16494
1659430271.187896,16474
1659430271.226492,16464
1659430271.267991,16459
1659430271.30949,16465
1659430271.347744,16462
1659430271.385999,16476
1659430271.424253,16481
1659430271.465752,16471
1659430271.507251,16479
1659430271.551654,16479
1659430271.596056,16486
1659430271.640458,16479
1659430271.679054,16480
1659430271.71765,16476
1659430271.756246,16481
1659430271.797745,16484
1659430271.839244,16486
1659430271.878523,16488
1659430271.917802,16489
1659430271.957081,16501
1659430271.999093,16491
1659430272.041104,16469
1659430272.0797,16464
1659430272.118296,16464
1659430272.156892,16466
1659430272.196171,16465
1659430272.23545,16462
1659430272.274729,16458
1659430272.315715,16456
1659430272.356702,16446
1659430272.395298,16435
1659430272.433894,16452
1659430272.47249,16437
1659430272.514501,16438
1659430272.556513,16444
1659430272.59545,16437
1659430272.634387,16442
1659430272.673325,16433
1659430272.711579,16428
1659430272.749834,16414
1659430272.788088,16424
1659430272.829587,16412
1659430272.871086,16402
1659430272.91361,16399
1659430272.956134,16405
1659430272.995071,16405
1659430273.034009,16415
1659430273.072946,16405
1659430273.117348,16405
1659430273.161751,16411
1659430273.206153,16420
1659430273.239967,16432
1659430273.273781,16443
1659430273.317842,16446
1659430273.361902,16468
1659430273.405963,16462
1659430273.439265,16449
1659430273.472567,16442
1659430273.517311,16421
1659430273.562055,16417
1659430273.606798,16424
1659430273.645394,16433
1659430273.68399,16441
1659430273.722586,16439
1659430273.763573,16442
1659430273.80456,16441
1659430273.84418,16442
1659430273.883801,16431
1659430273.923421,16418
1659430273.96492,16421
1659430274.006419,16421
1659430274.044674,16428
1659430274.082928,16428
1659430274.121182,16418
1659430274.160803,16432
1659430274.200423,16436
1659430274.240044,16434
1659430274.281543,16431
1659430274.323042,16441
1659430274.361297,16436
1659430274.399551,16444
1659430274.437805,16434
1659430274.479304,16431
1659430274.520803,16437
1659430274.559399,16425
1659430274.597995,16414
1659430274.636591,16401
1659430274.67809,16395
1659430274.719589,16393
1659430274.758185,16403
1659430274.796781,16410
1659430274.835377,16403
1659430274.879779,16407
1659430274.924181,16403
1659430274.968584,16405
1659430275.000861,16404
1659430275.033138,16402
1659430275.077882,16403
1659430275.122626,16393
1659430275.16737,16396
1659430275.209893,16389
1659430275.252417,16390
1659430275.290672,16384
1659430275.328926,16387
1659430275.36718,16392
1659430275.406459,16404
1659430275.445738,16429
1659430275.485017,16438
1659430275.526004,16441
1659430275.566991,16444
1659430275.605245,16450
1659430275.643499,16457
1659430275.681754,16461
1659430275.724277,16451
1659430275.766801,16449
1659430275.805397,16456
1659430275.843993,16462
1659430275.882589,16454
1659430275.920843,16445
1659430275.959097,16448
1659430275.997352,16440
1659430276.038338,16461
1659430276.079325,16459
1659430276.118604,16468
1659430276.157883,16491
1659430276.197162,16492
1659430276.239174,16479
1659430276.281185,16485
1659430276.321352,16506
1659430276.361519,16506
1659430276.401686,16516
1659430276.441853,16496
1659430276.48202,16482
1659430276.524032,16474
1659430276.566043,16463
1659430276.60498,16467
1659430276.643918,16464
1659430276.682855,16477
1659430276.723842,16480
1659430276.764829,16480
1659430276.803766,16468
1659430276.842704,16460
1659430276.881641,16476
1659430276.92536,16460
1659430276.96908,16456
1659430277.012799,16441
1659430277.046613,16430
1659430277.080427,16422
1659430277.124829,16420
1659430277.169232,16430
1659430277.213634,16441
1659430277.25223,16454
1659430277.290826,16456
1659430277.329422,16460
1659430277.370921,16445
1659430277.41242,16434
1659430277.451357,16430
1659430277.490295,16431
1659430277.529232,16431
1659430277.568511,16431
1659430277.60779,16428
1659430277.647069,16431
1659430277.688568,16453
1659430277.730067,16446
1659430277.768663,16454
1659430277.807259,16462
1659430277.845855,16459
1659430277.884109,16458
1659430277.922364,16455
1659430277.960618,16455
1659430278.002117,16450
1659430278.043616,16457
1659430278.085628,16471
1659430278.127639,16478
1659430278.165893,16482
1659430278.204148,16486
1659430278.242402,16482
1659430278.286804,16474
1659430278.331207,16476
1659430278.375609,16479
1659430278.409935,16477
1659430278.444262,16478
1659430278.488664,16466
1659430278.533066,16475
1659430278.577469,16468
1659430278.609746,16471
1659430278.642023,16461
1659430278.687108,16472
1659430278.732194,16476
1659430278.777279,16468
1659430278.815875,16455
1659430278.854471,16460
1659430278.893067,16457
1659430278.935078,16459
1659430278.97709,16479
1659430279.016027,16464
1659430279.054965,16461
1659430279.093902,16471
1659430279.135401,16454
1659430279.1769,16453
1659430279.214813,16443
1659430279.252726,16451
1659430279.290638,16453
1659430279.329917,16463
1659430279.369196,16461
1659430279.408475,16463
1659430279.450487,16463
1659430279.492498,16463
1659430279.531436,16461
1659430279.570373,16460
1659430279.609311,16464
1659430279.651322,16456
1659430279.693333,16456
1659430279.732612,16459
1659430279.771891,16463
1659430279.81117,16473
1659430279.852669,16489
1659430279.894169,16498
1659430279.933448,16484
1659430279.972727,16482
1659430280.012006,16484
1659430280.053505,16482
1659430280.095004,16483
1659430280.1336,16475
1659430280.172195,16481
1659430280.210791,16489
1659430280.254852,16498
1659430280.298913,16485
1659430280.342974,16476
1659430280.385497,16478
1659430280.428021,16481
1659430280.465934,16487
1659430280.503847,16491
1659430280.541759,16482
1659430280.583771,16468
1659430280.625782,16472
1659430280.664378,16471
1659430280.702974,16480
1659430280.74157,16504
1659430280.780166,16507
1659430280.818762,16493
1659430280.857358,16482
1659430280.899369,16471
1659430280.941381,16467
1659430280.980659,16461
1659430281.019938,16459
1659430281.059217,16465
1659430281.099692,16477
1659430281.140166,16479
1659430281.178762,16473
1659430281.217358,16473
1659430281.255954,16475
1659430281.294891,16482
1659430281.333829,16484
1659430281.372766,16475
1659430281.414265,16461
1659430281.455764,16466
1659430281.494019,16477
1659430281.532273,16499
1659430281.570527,16485
1659430281.612283,16477
1659430281.654038,16477
1659430281.695793,16475
1659430281.737548,16480
1659430281.776486,16481
1659430281.815423,16485
1659430281.854361,16480
1659430281.895348,16490
1659430281.936334,16481
1659430281.975955,16473
1659430282.015575,16484
1659430282.055196,16481
1659430282.097207,16476
1659430282.139219,16469
1659430282.177815,16472
1659430282.21641,16474
1659430282.255006,16491
1659430282.296505,16487
1659430282.338005,16475
1659430282.382407,16480
1659430282.426809,16482
1659430282.471212,16481
1659430282.509807,16469
1659430282.548403,16468
1659430282.586999,16468
1659430282.629523,16467
1659430282.672047,16467
1659430282.710643,16463
1659430282.749238,16463
1659430282.787834,16463
1659430282.829334,16470
1659430282.870832,16459
1659430282.910111,16458
1659430282.94939,16474
1659430282.988669,16489
1659430283.027948,16483
1659430283.067227,16488
1659430283.106506,16496
1659430283.147493,16490
1659430283.18848,16490
1659430283.227759,16496
1659430283.267038,16505
1659430283.306317,16514
1659430283.347304,16519
1659430283.38829,16525
1659430283.426886,16516
1659430283.465482,16518
1659430283.504078,16512
1659430283.543015,16523
1659430283.581953,16521
1659430283.62089,16512
1659430283.66239,16516
1659430283.703889,16518
1659430283.741801,16515
1659430283.779714,16514
1659430283.817627,16519
1659430283.860151,16518
1659430283.902674,16520
1659430283.947418,16522
1659430283.992162,16525
1659430284.036906,16527
1659430284.069183,16533
1659430284.10146,16539
1659430284.145863,16549
1659430284.190265,16553
1659430284.234667,16553
1659430284.268481,16542
1659430284.302295,16538
1659430284.346698,16528
1659430284.3911,16537
1659430284.435502,16542
1659430284.474098,16533
1659430284.512694,16535
1659430284.55129,16521
1659430284.592789,16533
1659430284.634288,16532
1659430284.672201,16530
1659430284.710114,16522
1659430284.748026,16534
1659430284.786622,16519
1659430284.825218,16517
1659430284.863814,16521
1659430284.906338,16517
1659430284.948862,16536
1659430284.987458,16533
1659430285.026053,16534
1659430285.064649,16529
1659430285.106661,16527
1659430285.148672,16530
1659430285.187951,16522
1659430285.22723,16524
1659430285.266509,16515
1659430285.305446,16518
1659430285.344384,16518
1659430285.383321,16520
1659430285.425333,16520
1659430285.467344,16499
1659430285.508843,16494
1659430285.550342,16494
1659430285.588938,16499
1659430285.627534,16496
1659430285.66613,16493
1659430285.708142,16489
1659430285.750153,16495
1659430285.791396,16509
1659430285.832639,16503
1659430285.873882,16501
1659430285.915125,16511
1659430285.957136,16513
1659430285.999147,16517
1659430286.037402,16525
1659430286.075656,16528
1659430286.11391,16522
1659430286.155922,16519
1659430286.197933,16520
1659430286.236871,16526
1659430286.275808,16516
1659430286.314746,16517
1659430286.354025,16515
1659430286.393304,16522
1659430286.432583,16532
1659430286.474082,16536
1659430286.515581,16527
1659430286.55486,16523
1659430286.594139,16542
1659430286.633418,16532
1659430286.671672,16540
1659430286.709926,16537
1659430286.748181,16533
1659430286.790192,16528
1659430286.832204,16532
1659430286.876264,16539
1659430286.920325,16539
1659430286.964386,16544
1659430287.002982,16542
1659430287.041578,16548
1659430287.080173,16547
1659430287.12116,16543
1659430287.162147,16552
1659430287.201084,16556
1659430287.240022,16554
1659430287.278959,16547
1659430287.317555,16552
1659430287.356151,16555
1659430287.394747,16563
1659430287.436758,16551
1659430287.47877,16539
1659430287.518049,16547
1659430287.557328,16542
1659430287.596607,16523
1659430287.638106,16507
1659430287.679605,16506
1659430287.717859,16503
1659430287.756114,16517
1659430287.794368,16496
1659430287.833647,16495
1659430287.872926,16496
1659430287.912205,16487
1659430287.953704,16485
1659430287.995203,16478
1659430288.033799,16469
1659430288.072395,16471
1659430288.110991,16488
1659430288.15249,16491
1659430288.193989,16495
1659430288.238391,16509
1659430288.282794,16511
1659430288.327196,16513
1659430288.359985,16505
1659430288.392775,16511
1659430288.438202,16498
1659430288.483629,16493
1659430288.529056,16490
1659430288.561845,16482
1659430288.594635,16486
1659430288.639037,16504
1659430288.683439,16506
1659430288.727842,16499
1659430288.767462,16495
1659430288.807083,16503
1659430288.846703,16515
1659430288.888715,16504
1659430288.930726,16494
1659430288.968639,16503
1659430289.006552,16509
1659430289.044464,16529
1659430289.086476,16518
1659430289.128487,16513
1659430289.167083,16518
1659430289.205679,16516
1659430289.244275,16511
1659430289.283554,16504
1659430289.322833,16504
1659430289.362112,16506
1659430289.403099,16528
1659430289.444085,16521
1659430289.483023,16519
1659430289.52196,16519
1659430289.560898,16517
1659430289.599494,16523
1659430289.638089,16530
1659430289.676685,16519
1659430289.719209,16510
1659430289.761733,16518
1659430289.803232,16531
1659430289.844731,16537
1659430289.883327,16540
1659430289.921923,16542
1659430289.960519,16539
1659430290.001505,16533
1659430290.042492,16531
1659430290.081771,16529
1659430290.12105,16536
1659430290.160329,16539
1659430290.204048,16544
1659430290.247767,16552
1659430290.291487,16545
1659430290.324276,16555
1659430290.357065,16541
1659430290.401468,16535
1659430290.44587,16542
1659430290.490273,16536
1659430290.528868,16530
1659430290.567464,16537
1659430290.60606,16543
1659430290.647559,16553
1659430290.689058,16567
1659430290.728337,16550
1659430290.767616,16545
1659430290.806895,16554
1659430290.847882,16545
1659430290.888869,16541
1659430290.927806,16527
1659430290.966744,16538
1659430291.005681,16528
1659430291.044277,16540
1659430291.082873,16529
1659430291.121469,16518
1659430291.163992,16519
1659430291.206516,16517
1659430291.244771,16515
1659430291.283025,16510
1659430291.321279,16512
1659430291.362778,16506
1659430291.404277,16508
1659430291.443215,16515
1659430291.482152,16514
1659430291.52109,16527
1659430291.562589,16524
1659430291.604088,16526
1659430291.643367,16513
1659430291.682646,16506
1659430291.721925,16512
1659430291.763936,16517
1659430291.805948,16518
1659430291.844544,16514
1659430291.88314,16532
1659430291.921735,16530
1659430291.966479,16525
1659430292.011223,16526
1659430292.055967,16529
1659430292.093367,16536
1659430292.130768,16536
1659430292.168168,16534
1659430292.205569,16536
1659430292.24758,16543
1659430292.289592,16550
1659430292.328529,16552
1659430292.367466,16560
1659430292.406404,16555
1659430292.447391,16554
1659430292.488377,16558
1659430292.52629,16551
1659430292.564203,16567
1659430292.602116,16566
1659430292.64686,16549
1659430292.691603,16549
1659430292.736347,16547
1659430292.778359,16553
1659430292.82037,16557
1659430292.859308,16557
1659430292.898245,16560
1659430292.937182,16565
1659430292.978682,16572
1659430293.020181,16563
1659430293.05946,16563
1659430293.098739,16563
1659430293.138018,16565
1659430293.176272,16566
1659430293.214526,16583
1659430293.252781,16570
1659430293.295304,16590
1659430293.337828,16578
1659430293.376424,16574
1659430293.41502,16580
1659430293.453616,16580
1659430293.49409,16582
1659430293.534565,16580
1659430293.57316,16582
1659430293.611756,16574
1659430293.650352,16581
1659430293.688948,16588
1659430293.727544,16583
1659430293.76614,16582
1659430293.807639,16583
1659430293.849138,16587
1659430293.888417,16580
1659430293.927696,16574
1659430293.966975,16576
1659430294.008474,16587
1659430294.049973,16601
1659430294.088569,16598
1659430294.127165,16600
1659430294.165761,16588
1659430294.208285,16597
1659430294.250808,16592
1659430294.295894,16595
1659430294.340979,16598
1659430294.386065,16595
1659430294.41783,16592
1659430294.449594,16586
1659430294.493997,16592
1659430294.538399,16581
1659430294.582801,16590
1659430294.621739,16578
1659430294.660676,16576
1659430294.699614,16580
1659430294.741625,16577
1659430294.783636,16570
1659430294.822232,16570
1659430294.860828,16576
1659430294.899424,16566
1659430294.941435,16575
1659430294.983447,16581
1659430295.022384,16575
1659430295.061322,16586
1659430295.100259,16577
1659430295.139538,16573
1659430295.178817,16580
1659430295.218096,16574
1659430295.260108,16575
1659430295.302119,16572
1659430295.341056,16567
1659430295.379994,16560
1659430295.418931,16561
1659430295.459918,16555
1659430295.500905,16564
1659430295.540525,16558
1659430295.580146,16556
1659430295.619766,16562
1659430295.660753,16555
1659430295.70174,16551
1659430295.740336,16550
1659430295.778932,16552
1659430295.817528,16553
1659430295.858514,16568
1659430295.899501,16556
1659430295.939122,16564
1659430295.978742,16566
1659430296.018363,16562
1659430296.062082,16553
1659430296.105801,16552
1659430296.14952,16566
1659430296.182822,16560
1659430296.216124,16578
1659430296.260526,16568
1659430296.304929,16574
1659430296.349331,16584
1659430296.39083,16578
1659430296.432329,16584
1659430296.471267,16577
1659430296.510204,16588
1659430296.549141,16580
1659430296.588079,16579
1659430296.627016,16585
1659430296.665954,16589
1659430296.70694,16600
1659430296.747927,16603
1659430296.786523,16608
1659430296.825119,16601
1659430296.863715,16599
1659430296.902652,16595
1659430296.94159,16601
1659430296.980527,16608
1659430297.022538,16597
1659430297.06455,16605
1659430297.102463,16599
1659430297.140375,16599
1659430297.178288,16602
1659430297.220812,16599
1659430297.263336,16613
1659430297.304835,16609
1659430297.346334,16615
1659430297.387833,16599
1659430297.429332,16595
1659430297.470831,16599
1659430297.51233,16598
1659430297.551951,16606
1659430297.591572,16609
1659430297.631192,16620
1659430297.67013,16616
1659430297.709067,16616
1659430297.748004,16621
1659430297.788991,16611
1659430297.829978,16615
1659430297.869257,16611
1659430297.908536,16611
1659430297.947815,16615
1659430297.988289,16614
1659430298.028764,16620
1659430298.067701,16614
1659430298.106638,16621
1659430298.145576,16607
1659430298.184855,16608
1659430298.224134,16608
1659430298.263413,16608
1659430298.304912,16603
1659430298.346411,16609
1659430298.385349,16597
1659430298.424286,16603
1659430298.463223,16611
1659430298.505747,16610
1659430298.548271,16605
1659430298.58977,16600
1659430298.631269,16600
1659430298.669865,16594
1659430298.708461,16599
1659430298.747057,16600
1659430298.791801,16596
1659430298.836545,16597
1659430298.881289,16595
1659430298.91459,16592
1659430298.947892,16592
1659430298.991611,16592
1659430299.03533,16603
1659430299.07905,16598
1659430299.118329,16595
1659430299.157608,16601
1659430299.196887,16600
1659430299.237873,16590
1659430299.27886,16592
1659430299.316773,16592
1659430299.354686,16601
1659430299.392598,16604
1659430299.435122,16603
1659430299.477646,16610
1659430299.516583,16602
1659430299.555521,16601
1659430299.594458,16601
1659430299.633054,16594
1659430299.67165,16602
1659430299.710246,16601
1659430299.751745,16611
1659430299.793244,16604
1659430299.832181,16607
1659430299.871119,16612
1659430299.910056,16612
1659430299.948311,16611
1659430299.986565,16612
1659430300.024819,16620
1659430300.066831,16614
1659430300.108842,16624
1659430300.150341,16618
1659430300.19184,16624
1659430300.230095,16641
1659430300.268349,16632
1659430300.306603,16631
1659430300.351006,16631
1659430300.395408,16635
1659430300.43981,16628
1659430300.473112,16644
1659430300.506414,16639
1659430300.550816,16632
1659430300.595218,16637
1659430300.639621,16633
1659430300.672922,16647
1659430300.706224,16635
1659430300.750968,16635
1659430300.795712,16642
1659430300.840456,16645
1659430300.879052,16643
1659430300.917648,16643
1659430300.956244,16648
1659430300.998255,16647
1659430301.040266,16657
1659430301.079204,16657
1659430301.118141,16653
1659430301.157079,16668
1659430301.198066,16668
1659430301.239052,16667
1659430301.277648,16652
1659430301.316244,16658
1659430301.35484,16651
1659430301.39446,16663
1659430301.434081,16660
1659430301.473701,16651
1659430301.515201,16666
1659430301.5567,16654
1659430301.595637,16644
1659430301.634574,16640
1659430301.673512,16639
1659430301.715011,16640
1659430301.75651,16639
1659430301.796472,16636
1659430301.836434,16622
1659430301.876396,16632
1659430301.917383,16634
1659430301.95837,16644
1659430301.997307,16635
1659430302.036245,16630
1659430302.075182,16628
1659430302.117194,16631
1659430302.159205,16633
1659430302.197801,16625
1659430302.236397,16638
1659430302.274993,16627
1659430302.315467,16633
1659430302.355942,16620
1659430302.400344,16611
1659430302.444746,16619
1659430302.489149,16617
1659430302.527745,16613
1659430302.56634,16613
1659430302.604936,16620
1659430302.642337,16602
1659430302.679737,16612
1659430302.717138,16600
1659430302.754538,16597
1659430302.796037,16613
1659430302.837536,16613
1659430302.87579,16616
1659430302.914045,16607
1659430302.952299,16618
1659430302.994823,16616
1659430303.037347,16620
1659430303.08209,16618
1659430303.126834,16620
1659430303.171578,16626
1659430303.209833,16627
1659430303.248087,16641
1659430303.286341,16642
1659430303.32784,16629
1659430303.369339,16635
1659430303.408277,16635
1659430303.447214,16639
1659430303.486152,16639
1659430303.524748,16644
1659430303.563344,16654
1659430303.601939,16652
1659430303.643951,16664
1659430303.685962,16659
1659430303.724558,16662
1659430303.763154,16664
1659430303.80175,16668
1659430303.842736,16663
1659430303.883723,16664
1659430303.923002,16664
1659430303.962281,16667
1659430304.00156,16671
1659430304.040839,16672
1659430304.080118,16671
1659430304.119397,16681
1659430304.160384,16677
1659430304.201371,16685
1659430304.24065,16672
1659430304.279929,16679
1659430304.319208,16671
1659430304.361732,16679
1659430304.404255,16675
1659430304.442851,16676
1659430304.481447,16681
1659430304.520043,16685
1659430304.56103,16695
1659430304.602016,16699
1659430304.64676,16685
1659430304.691504,16679
1659430304.736248,16686
1659430304.76955,16679
1659430304.802852,16676
1659430304.847254,16674
1659430304.891656,16666
1659430304.936059,16672
1659430304.96936,16671
1659430305.002662,16675
1659430305.047406,16680
1659430305.09215,16678
1659430305.136894,16672
1659430305.17549,16665
1659430305.214086,16668
1659430305.252681,16659
1659430305.295205,16665
1659430305.337729,16668
1659430305.376325,16658
1659430305.414921,16666
1659430305.453516,16668
1659430305.494503,16677
1659430305.53549,16684
1659430305.574086,16671
1659430305.612682,16678
1659430305.651278,16675
1659430305.689873,16660
1659430305.728469,16655
1659430305.767065,16658
1659430305.808564,16660
1659430305.850064,16654
1659430305.888659,16663
1659430305.927255,16649
1659430305.965851,16664
1659430306.006838,16665
1659430306.047825,16672
1659430306.086762,16669
1659430306.1257,16669
1659430306.164637,16671
1659430306.206648,16668
1659430306.24866,16672
1659430306.287597,16672
1659430306.326535,16684
1659430306.365472,16685
1659430306.409533,16687
1659430306.453594,16703
1659430306.497654,16694
1659430306.530444,16692
1659430306.563233,16696
1659430306.607635,16698
1659430306.652038,16716
1659430306.69644,16707
1659430306.730254,16702
1659430306.764068,16706
1659430306.807788,16712
1659430306.851507,16710
1659430306.895226,16702
1659430306.934505,16708
1659430306.973784,16715
1659430307.013063,16705
1659430307.05405,16705
1659430307.095037,16703
1659430307.133632,16701
1659430307.172228,16718
1659430307.210824,16723
1659430307.253348,16713
1659430307.295872,16726
1659430307.335151,16712
1659430307.37443,16711
1659430307.413709,16693
1659430307.452305,16693
1659430307.4909,16682
1659430307.529496,16662
1659430307.57202,16655
1659430307.614544,16669
1659430307.653823,16686
1659430307.693102,16683
1659430307.732381,16678
1659430307.772855,16687
1659430307.81333,16688
1659430307.852609,16695
1659430307.891888,16707
1659430307.931167,16717
1659430307.975227,16710
1659430308.019288,16691
1659430308.063349,16654
1659430308.101262,16624
1659430308.139174,16602
1659430308.177087,16561
1659430308.220123,16539
1659430308.263159,16523
1659430308.302097,16527
1659430308.341034,16539
1659430308.379972,16544
1659430308.418909,16548
1659430308.457847,16536
1659430308.496784,16524
1659430308.538283,16524
1659430308.579782,16551
1659430308.61872,16537
1659430308.657657,16535
1659430308.696594,16558
1659430308.738094,16515
1659430308.779593,16516
1659430308.81853,16565
1659430308.857467,16634
1659430308.896405,16700
1659430308.934659,16682
1659430308.972914,16625
1659430309.011168,16546
1659430309.052155,16518
1659430309.093141,16524
1659430309.135153,16502
1659430309.177164,16479
1659430309.216102,16457
1659430309.255039,16438
1659430309.293977,16430
1659430309.337696,16436
1659430309.381415,16424
1659430309.425134,16411
1659430309.458436,16390
1659430309.491738,16385
1659430309.536482,16380
1659430309.581225,16375
1659430309.625969,16377
1659430309.659271,16377
1659430309.692573,16386
1659430309.736975,16392
1659430309.781378,16412
1659430309.82578,16412
1659430309.865059,16413
1659430309.904338,16423
1659430309.943617,16424
1659430309.984091,16428
1659430310.024566,16419
1659430310.063503,16418
1659430310.102441,16428
1659430310.141378,16429
1659430310.183902,16430
1659430310.226426,16428
1659430310.265021,16436
1659430310.303617,16433
1659430310.342213,16441
1659430310.380467,16440
1659430310.418722,16442
1659430310.456976,16448
1659430310.498987,16444
1659430310.540999,16445
1659430310.58062,16452
1659430310.62024,16462
1659430310.659861,16453
1659430310.700847,16462
1659430310.741834,16454
1659430310.780771,16452
1659430310.819709,16457
1659430310.858646,16440
1659430310.900658,16433
1659430310.942669,16428
1659430310.981607,16430
1659430311.020544,16423
1659430311.059482,16450
1659430311.100468,16432
1659430311.141455,16440
1659430311.185858,16446
1659430311.23026,16441
1659430311.274662,16441
1659430311.313258,16446
1659430311.351854,16448
1659430311.39045,16427
1659430311.431437,16422
1659430311.472423,16412
1659430311.512044,16403
1659430311.551664,16399
1659430311.591285,16393
1659430311.632272,16416
1659430311.673258,16422
1659430311.712196,16426
1659430311.751133,16429
1659430311.790071,16438
1659430311.82935,16440
1659430311.868629,16441
1659430311.907908,16438
1659430311.949407,16437
1659430311.990906,16452
1659430312.029502,16446
1659430312.068098,16440
1659430312.106694,16446
1659430312.148193,16439
1659430312.189692,16431
1659430312.227946,16433
1659430312.2662,16430
1659430312.304455,16414
1659430312.34305,16422
1659430312.381646,16416
1659430312.420242,16419
1659430312.462766,16422
1659430312.50529,16422
1659430312.543203,16425
1659430312.581115,16432
1659430312.619028,16429
1659430312.659503,16433
1659430312.699977,16446
1659430312.745062,16455
1659430312.790148,16462
1659430312.835233,16468
1659430312.868535,16467
1659430312.901837,16477
1659430312.945898,16478
1659430312.989958,16496
1659430313.034019,16490
1659430313.071932,16491
1659430313.109845,16490
1659430313.147757,16486
1659430313.18567,16478
1659430313.227169,16479
1659430313.268668,16479
1659430313.307264,16483
1659430313.34586,16488
1659430313.384456,16492
1659430313.425955,16497
1659430313.467454,16491
1659430313.506392,16499
1659430313.545329,16498
1659430313.584266,16504
1659430313.625766,16522
1659430313.667265,16519
1659430313.706202,16521
1659430313.74514,16525
1659430313.784077,16530
1659430313.825576,16531
1659430313.867075,16541
1659430313.906013,16545
1659430313.94495,16543
1659430313.983887,16539
1659430314.028973,16521
1659430314.074058,16535
1659430314.119144,16526
1659430314.160643,16518
1659430314.202142,16520
1659430314.241079,16531
1659430314.280017,16528
1659430314.318954,16532
1659430314.359941,16531
1659430314.400928,16529
1659430314.440207,16555
1659430314.479486,16554
1659430314.518765,16551
1659430314.557019,16549
1659430314.595273,16547
1659430314.633528,16545
1659430314.675027,16550
1659430314.716526,16545
1659430314.75478,16551
1659430314.793035,16551
1659430314.831289,16562
1659430314.870226,16547
1659430314.909164,16535
1659430314.948101,16535
1659430314.990113,16531
1659430315.032124,16531
1659430315.071403,16535
1659430315.110682,16536
1659430315.149961,16541
1659430315.190948,16547
1659430315.231935,16546
1659430315.270872,16535
1659430315.309809,16532
1659430315.348747,16528
1659430315.390758,16532
1659430315.43277,16533
1659430315.471707,16521
1659430315.510644,16526
1659430315.549582,16507
1659430315.590056,16513
1659430315.630531,16483
1659430315.674933,16463
1659430315.719335,16479
1659430315.763738,16491
1659430315.801992,16498
1659430315.840246,16499
1659430315.878501,16498
1659430315.920512,16511
1659430315.962523,16524
1659430316.001119,16522
1659430316.039715,16520
1659430316.078311,16527
1659430316.11759,16525
1659430316.156869,16525
1659430316.196148,16515
1659430316.237135,16520
1659430316.278122,16522
1659430316.317742,16536
1659430316.357363,16535
1659430316.396983,16527
1659430316.438995,16532
1659430316.481006,16539
1659430316.519602,16542
1659430316.558198,16545
1659430316.596794,16545
1659430316.636073,16548
1659430316.675352,16552
1659430316.714631,16556
1659430316.75613,16561
1659430316.797629,16571
1659430316.836225,16565
1659430316.874821,16575
1659430316.913417,16563
1659430316.955428,16562
1659430316.997439,16568
1659430317.041842,16563
1659430317.086244,16566
1659430317.130646,16565
1659430317.162924,16572
1659430317.195201,16569
1659430317.239944,16582
1659430317.284688,16576
1659430317.329432,16576
1659430317.363759,16586
1659430317.398085,16584
1659430317.442487,16579
1659430317.48689,16576
1659430317.531292,16584
1659430317.570571,16586
1659430317.60985,16587
1659430317.649129,16573
1659430317.690628,16576
1659430317.732127,16580
1659430317.770723,16581
1659430317.809319,16590
1659430317.847915,16588
1659430317.888902,16587
1659430317.929888,16581
1659430317.969167,16587
1659430318.008446,16592
1659430318.047725,16594
1659430318.085638,16599
1659430318.123551,16599
1659430318.161464,16613
1659430318.203987,16606
1659430318.246511,16604
1659430318.285278,16613
1659430318.324044,16629
1659430318.362811,16632
1659430318.401578,16627
1659430318.440344,16641
1659430318.479111,16644
1659430318.520098,16641
1659430318.561085,16626
1659430318.60617,16626
1659430318.651256,16629
1659430318.696341,16630
1659430318.734595,16626
1659430318.77285,16622
1659430318.811104,16617
1659430318.853628,16612
1659430318.896152,16625
1659430318.934747,16621
1659430318.973343,16616
1659430319.011939,16623
1659430319.052926,16620
1659430319.093913,16628
1659430319.132509,16615
1659430319.171104,16622
1659430319.2097,16617
1659430319.248638,16610
1659430319.287575,16611
1659430319.326513,16614
1659430319.368011,16620
1659430319.409511,16610
1659430319.44879,16609
1659430319.488069,16608
1659430319.527348,16607
1659430319.569359,16605
1659430319.611371,16609
1659430319.650308,16612
1659430319.689245,16614
1659430319.728183,16629
1659430319.76712,16614
1659430319.806058,16622
1659430319.844995,16612
1659430319.887007,16609
1659430319.929018,16623
1659430319.970005,16613
1659430320.010992,16618
1659430320.049587,16608
1659430320.088183,16616
1659430320.126779,16617
1659430320.171181,16627
1659430320.215584,16623
1659430320.259986,16616
1659430320.294312,16636
1659430320.328639,16632
1659430320.372358,16642
1659430320.416077,16633
1659430320.459797,16631
1659430320.499076,16632
1659430320.538355,16640
1659430320.577634,16641
1659430320.619133,16641
1659430320.660632,16649
1659430320.699911,16652
1659430320.73919,16667
1659430320.778469,16651
1659430320.819968,16655
1659430320.861467,16655
1659430320.900746,16657
1659430320.940025,16666
1659430320.979304,16662
1659430321.017558,16674
1659430321.055813,16675
1659430321.094067,16672
1659430321.136078,16673
1659430321.17809,16669
1659430321.217027,16669
1659430321.255965,16673
1659430321.294902,16680
1659430321.332815,16671
1659430321.370728,16682
1659430321.40864,16652
1659430321.449115,16630
1659430321.489589,16631
1659430321.534333,16627
1659430321.579077,16635
1659430321.623821,16630
1659430321.657635,16635
1659430321.691449,16632
1659430321.735851,16632
1659430321.780254,16634
1659430321.824656,16621
1659430321.863593,16615
1659430321.902531,16613
1659430321.941468,16615
1659430321.982967,16622
1659430322.024467,16636
1659430322.062379,16640
1659430322.100292,16645
1659430322.138205,16650
1659430322.181241,16658
1659430322.224277,16655
1659430322.262531,16652
1659430322.300786,16653
1659430322.33904,16645
1659430322.377294,16646
1659430322.415549,16655
1659430322.453803,16646
1659430322.495814,16663
1659430322.537826,16661
1659430322.57608,16653
1659430322.614334,16661
1659430322.652589,16668
1659430322.691868,16663
1659430322.731147,16660
1659430322.770426,16675
1659430322.812437,16678
1659430322.854449,16673
1659430322.895947,16668
1659430322.937447,16661
1659430322.976384,16660
1659430323.015321,16672
1659430323.054259,16671
1659430323.09627,16664
1659430323.138282,16673
1659430323.177561,16671
1659430323.21684,16678
1659430323.256119,16675
1659430323.299838,16672
1659430323.343557,16675
1659430323.387276,16670
1659430323.420578,16670
1659430323.45388,16669
1659430323.498282,16678
1659430323.542685,16679
1659430323.587087,16679
1659430323.624231,16682
1659430323.661376,16682
1659430323.69852,16694
1659430323.735664,16693
1659430323.778188,16694
1659430323.820711,16706
1659430323.859649,16713
1659430323.898586,16709
1659430323.937524,16710
1659430323.979023,16709
1659430324.020522,16708
1659430324.059801,16718
1659430324.09908,16710
1659430324.138359,16711
1659430324.180883,16722
1659430324.223407,16723
1659430324.262002,16716
1659430324.300598,16713
1659430324.339194,16718
1659430324.380181,16722
1659430324.421168,16721
1659430324.46557,16709
1659430324.509972,16725
1659430324.554375,16729
1659430324.592629,16712
1659430324.630883,16684
1659430324.669137,16676
1659430324.711149,16682
1659430324.75316,16671
1659430324.791756,16657
1659430324.830352,16626
1659430324.868948,16610
1659430324.907544,16606
1659430324.94614,16612
1659430324.984736,16620
1659430325.026235,16645
1659430325.067734,16674
1659430325.106671,16685
1659430325.145609,16689
1659430325.184546,16682
1659430325.226557,16672
1659430325.268569,16667
1659430325.307507,16659
1659430325.346444,16663
1659430325.385381,16654
1659430325.424319,16647
1659430325.463256,16646
1659430325.502194,16633
1659430325.54318,16613
1659430325.584167,16633
1659430325.623105,16638
1659430325.662042,16647
1659430325.700979,16631
1659430325.742479,16596
1659430325.783978,16579
1659430325.827697,16544
1659430325.871416,16515
1659430325.915135,16479
1659430325.947925,16492
1659430325.980714,16521
1659430326.025458,16519
1659430326.070202,16517
1659430326.114946,16519
1659430326.149272,16524
1659430326.183599,16530
1659430326.227659,16539
1659430326.27172,16558
1659430326.315781,16543
1659430326.35506,16551
1659430326.394339,16551
1659430326.433618,16549
1659430326.475629,16542
1659430326.517641,16538
1659430326.55692,16532
1659430326.596199,16527
1659430326.635478,16541
1659430326.676465,16542
1659430326.717451,16531
1659430326.75673,16511
1659430326.796009,16497
1659430326.835288,16485
1659430326.873201,16498
1659430326.911114,16503
1659430326.949027,16497
1659430326.99155,16499
1659430327.034074,16502
1659430327.073011,16516
1659430327.111949,16517
1659430327.150886,16527
1659430327.189141,16538
1659430327.227395,16544
1659430327.265649,16534
1659430327.307661,16528
1659430327.349672,16527
1659430327.392196,16527
1659430327.43472,16533
1659430327.472974,16530
1659430327.511228,16535
1659430327.549483,16545
1659430327.591494,16543
1659430327.633506,16548
1659430327.67176,16549
1659430327.710014,16559
1659430327.748268,16566
1659430327.792329,16585
1659430327.83639,16604
1659430327.880451,16609
1659430327.913753,16609
1659430327.947054,16595
1659430327.991798,16592
1659430328.036542,16576
1659430328.081286,16561
1659430328.119199,16543
1659430328.157111,16531
1659430328.195024,16530
1659430328.236523,16535
1659430328.278022,16542
1659430328.317301,16546
1659430328.35658,16565
1659430328.395859,16572
1659430328.437871,16580
1659430328.479882,16567
1659430328.518478,16573
1659430328.557074,16567
1659430328.59567,16572
1659430328.634949,16612
1659430328.674228,16616
1659430328.713507,16619
1659430328.753981,16598
1659430328.794456,16564
1659430328.83271,16549
1659430328.870964,16568
1659430328.909219,16586
1659430328.951742,16601
1659430328.994266,16609
1659430329.032862,16578
1659430329.071458,16549
1659430329.110054,16531
1659430329.154456,16525
1659430329.198858,16556
1659430329.243261,16555
1659430329.282198,16552
1659430329.321136,16538
1659430329.360073,16543
1659430329.401572,16548
1659430329.443071,16563
1659430329.48235,16559
1659430329.521629,16570
1659430329.560908,16570
1659430329.600187,16563
1659430329.639466,16563
1659430329.678745,16562
1659430329.720244,16554
1659430329.761743,16541
1659430329.800681,16555
1659430329.839618,16563
1659430329.878556,16560
1659430329.921079,16567
1659430329.963603,16562
1659430330.002541,16572
1659430330.041478,16567
1659430330.080415,16574
1659430330.11867,16567
1659430330.156924,16579
1659430330.195179,16589
1659430330.236165,16590
1659430330.277152,16598
1659430330.319163,16591
1659430330.361175,16602
1659430330.399771,16609
1659430330.438367,16593
1659430330.476963,16575
1659430330.521365,16575
1659430330.565767,16578
1659430330.610169,16569
1659430330.643984,16577
1659430330.677798,16585
1659430330.721859,16592
1659430330.765919,16602
1659430330.80998,16604
1659430330.843282,16596
1659430330.876583,16577
1659430330.921327,16563
1659430330.966071,16560
1659430331.010815,16563
1659430331.049411,16566
1659430331.088007,16565
1659430331.126603,16556
1659430331.167589,16552
1659430331.208576,16561
1659430331.247172,16558
1659430331.285768,16567
1659430331.324364,16565
1659430331.362618,16547
1659430331.400872,16527
1659430331.439127,16516
1659430331.480626,16493
1659430331.522125,16476
1659430331.561746,16488
1659430331.601366,16473
1659430331.640987,16476
1659430331.682486,16473
1659430331.723985,16481
1659430331.762239,16473
1659430331.800493,16469
1659430331.838748,16467
1659430331.881784,16460
1659430331.92482,16474
1659430331.963758,16471
1659430332.002695,16478
1659430332.041632,16472
1659430332.082107,16480
1659430332.122581,16494
1659430332.16186,16492
1659430332.201139,16502
1659430332.240418,16502
1659430332.282429,16512
1659430332.324441,16518
1659430332.368843,16517
1659430332.413246,16508
1659430332.457648,16493
1659430332.496585,16487
1659430332.535523,16485
1659430332.57446,16477
1659430332.615959,16476
1659430332.657459,16467
1659430332.695713,16466
1659430332.733967,16481
1659430332.772221,16489
1659430332.814745,16499
1659430332.857269,16499
1659430332.896548,16496
1659430332.935827,16497
1659430332.975106,16496
1659430333.013702,16499
1659430333.052298,16510
1659430333.090894,16517
1659430333.132905,16501
1659430333.174917,16501
1659430333.214537,16510
1659430333.254158,16507
1659430333.293778,16510
1659430333.334252,16507
1659430333.374727,16514
1659430333.413323,16516
1659430333.451919,16528
1659430333.490515,16526
1659430333.529452,16525
1659430333.568389,16526
1659430333.607327,16524
1659430333.648826,16537
1659430333.690325,16538
1659430333.728921,16525
1659430333.767517,16528
1659430333.806113,16539
1659430333.848124,16551
1659430333.890136,16557
1659430333.934196,16574
1659430333.978257,16591
1659430334.022318,16593
1659430334.059974,16591
1659430334.097631,16606
1659430334.135288,16615
1659430334.172944,16613
1659430334.214443,16612
1659430334.255942,16615
1659430334.294197,16616
1659430334.332451,16604
1659430334.370705,16605
1659430334.412717,16600
1659430334.454728,16590
1659430334.493324,16592
1659430334.53192,16594
1659430334.570516,16599
1659430334.611503,16596
1659430334.652489,16588
1659430334.690744,16579
1659430334.728998,16581
1659430334.767252,16580
1659430334.809776,16591
1659430334.8523,16599
1659430334.891579,16601
1659430334.930858,16618
1659430334.970137,16614
1659430335.014198,16620
1659430335.058258,16609
1659430335.102319,16603
1659430335.135621,16603
1659430335.168923,16623
1659430335.213666,16619
1659430335.25841,16617
1659430335.303154,16627
1659430335.344653,16611
1659430335.386153,16612
1659430335.42509,16607
1659430335.464027,16607
1659430335.502965,16605
1659430335.541902,16615
1659430335.58084,16621
1659430335.619777,16618
1659430335.658031,16628
1659430335.696286,16621
1659430335.73454,16628
1659430335.776551,16624
1659430335.818563,16613
1659430335.8575,16618
1659430335.896438,16619
1659430335.935375,16615
1659430335.97585,16610
1659430336.016324,16617
1659430336.055603,16613
1659430336.094882,16621
1659430336.134161,16617
1659430336.176685,16611
1659430336.219208,16614
1659430336.257463,16603
1659430336.295717,16609
1659430336.333972,16607
1659430336.375471,16599
1659430336.41697,16606
1659430336.45659,16604
1659430336.496211,16595
1659430336.535831,16593
1659430336.579551,16602
1659430336.62327,16604
1659430336.666989,16600
1659430336.700803,16607
1659430336.734617,16616
1659430336.779019,16614
1659430336.823422,16619
1659430336.867824,16621
1659430336.908298,16615
1659430336.948773,16628
1659430336.987027,16625
1659430337.025282,16633
1659430337.063536,16638
1659430337.102815,16637
1659430337.142094,16644
1659430337.181373,16640
1659430337.222872,16636
1659430337.264371,16625
1659430337.303308,16630
1659430337.342246,16628
1659430337.381183,16642
1659430337.423195,16643
1659430337.465206,16646
1659430337.503461,16661
1659430337.541715,16666
1659430337.579969,16676
1659430337.618223,16663
1659430337.656478,16673
1659430337.694732,16673
1659430337.737256,16690
1659430337.77978,16678
1659430337.818034,16667
1659430337.856288,16677
1659430337.894543,16676
1659430337.935529,16680
1659430337.976516,16690
1659430338.015454,16685
1659430338.054391,16678
1659430338.093328,16697
1659430338.13534,16684
1659430338.177351,16681
1659430338.221412,16687
1659430338.265473,16684
1659430338.309534,16681
1659430338.343348,16684
1659430338.377162,16689
1659430338.421906,16694
1659430338.46665,16707
1659430338.511394,16706
1659430338.550331,16699
1659430338.589268,16707
1659430338.628206,16713
1659430338.67073,16712
1659430338.713253,16693
1659430338.751849,16690
1659430338.790445,16694
1659430338.829041,16699
1659430338.867295,16699
1659430338.90555,16703
1659430338.943804,16707
1659430338.985303,16708
1659430339.026802,16715
1659430339.066081,16708
1659430339.10536,16694
1659430339.144639,16703
1659430339.185626,16706
1659430339.226613,16709
1659430339.265208,16708
1659430339.303804,16707
1659430339.3424,16704
1659430339.381679,16726
1659430339.420958,16723
1659430339.460237,16718
1659430339.501736,16725
1659430339.543235,16713
1659430339.582173,16709
1659430339.62111,16711
1659430339.660048,16709
1659430339.702059,16696
1659430339.744071,16705
1659430339.788473,16693
1659430339.832875,16692
1659430339.877277,16693
1659430339.911092,16693
1659430339.944906,16687
1659430339.989308,16683
1659430340.03371,16677
1659430340.078113,16683
1659430340.116367,16678
1659430340.154621,16679
1659430340.192876,16672
1659430340.233862,16679
1659430340.274849,16691
1659430340.313445,16696
1659430340.352041,16692
1659430340.390637,16689
1659430340.432648,16692
1659430340.47466,16687
1659430340.513256,16679
1659430340.551851,16676
1659430340.590447,16672
1659430340.629726,16673
1659430340.669005,16682
1659430340.708284,16663
1659430340.749783,16660
1659430340.791282,16664
1659430340.829537,16657
1659430340.867791,16663
1659430340.906045,16659
1659430340.948569,16665
1659430340.991093,16653
1659430341.03003,16653
1659430341.068968,16640
1659430341.107905,16644
1659430341.14838,16650
1659430341.188854,16651
1659430341.227792,16652
1659430341.266729,16662
1659430341.305666,16665
1659430341.34819,16661
1659430341.390714,16668
1659430341.428627,16657
1659430341.466539,16671
1659430341.504452,16672
1659430341.549538,16673
1659430341.594623,16681
1659430341.639709,16668
1659430341.67301,16673
1659430341.706312,16681
1659430341.750714,16678
1659430341.795117,16668
1659430341.839519,16675
1659430341.878798,16676
1659430341.918077,16681
1659430341.957356,16684
1659430341.99988,16694
1659430342.042403,16697
1659430342.080316,16707
1659430342.118229,16716
1659430342.156142,16715
1659430342.195079,16718
1659430342.234017,16700
1659430342.272954,16696
1659430342.314453,16699
1659430342.355952,16705
1659430342.39489,16711
1659430342.433827,16718
1659430342.472764,16710
1659430342.514264,16710
1659430342.555763,16717
1659430342.5947,16718
1659430342.633638,16730
1659430342.672575,16719
1659430342.713562,16714
1659430342.754549,16732
1659430342.793828,16732
1659430342.833107,16730
1659430342.872386,16714
1659430342.914397,16716
1659430342.956408,16715
1659430342.995004,16739
1659430343.0336,16743
1659430343.072196,16745
1659430343.11694,16741
1659430343.161684,16733
1659430343.206428,16731
1659430343.240242,16723
1659430343.274056,16722
1659430343.317775,16721
1659430343.361494,16721
1659430343.405213,16729
1659430343.445688,16735
1659430343.486162,16733
1659430343.5251,16722
1659430343.564037,16721
1659430343.602975,16729
1659430343.641229,16725
1659430343.679483,16732
1659430343.717737,16739
1659430343.759749,16734
1659430343.80176,16724
1659430343.841039,16733
1659430343.880318,16729
1659430343.919597,16734
1659430343.958535,16738
1659430343.997472,16722
1659430344.03641,16737
1659430344.077396,16742
1659430344.118383,16727
1659430344.157321,16712
1659430344.196258,16717
1659430344.235195,16716
1659430344.277207,16716
1659430344.319218,16715
1659430344.357814,16698
1659430344.39641,16705
1659430344.435006,16701
1659430344.475993,16703
1659430344.516979,16698
1659430347.174971,16689
1659430349.832963,16693
1659430352.490955,16684
1659430355.148947,16692
1659430355.188226,16689
1659430355.227505,16685
1659430355.266784,16698
1659430355.309308,16696
1659430355.351831,16704
1659430355.389744,16701
1659430355.427657,16701
1659430355.46557,16699
1659430355.509972,16700
1659430355.554374,16705
1659430355.598777,16707
1659430355.632078,16715
1659430355.66538,16718
1659430355.709099,16714
1659430355.752819,16712
1659430355.796538,16707
1659430355.836158,16722
1659430355.875779,16726
1659430355.915399,16725
1659430355.956386,16717
1659430355.997373,16722
1659430356.035627,16729
1659430356.073882,16750
1659430356.112136,16745
1659430356.153635,16761
1659430356.195134,16778
1659430356.234755,16772
1659430356.274375,16775
1659430356.313996,16761
1659430356.35225,16759
1659430356.390504,16750
1659430356.428759,16750
1659430356.47077,16752
1659430356.512782,16753
1659430356.552539,16743
1659430356.592296,16749
1659430356.632053,16751
1659430356.67181,16751
1659430356.711567,16734
1659430356.750163,16723
1659430356.788759,16721
1659430356.827355,16710
1659430356.868854,16697
1659430356.910353,16691
1659430356.948607,16670
1659430356.986862,16668
1659430357.025116,16662
1659430357.06764,16651
1659430357.110164,16648
1659430357.155249,16647
1659430357.200335,16651
1659430357.24542,16666
1659430357.278209,16673
1659430357.310999,16680
1659430357.355401,16689
1659430357.399803,16691
1659430357.444206,16710
1659430357.483826,16731
1659430357.523447,16732
1659430357.563067,16736
1659430357.605079,16735
1659430357.64709,16742
1659430357.685686,16729
1659430357.724282,16734
1659430357.762878,16726
1659430357.804377,16723
1659430357.845876,16718
1659430357.884472,16714
1659430357.923068,16707
1659430357.961664,16706
1659430357.999918,16705
1659430358.038172,16699
1659430358.076427,16702
1659430358.11895,16685
1659430358.161474,16681
1659430358.200412,16678
1659430358.239349,16680
1659430358.278286,16692
1659430358.319786,16681
1659430358.361285,16687
1659430358.400222,16684
1659430358.43916,16689
1659430358.478097,16680
1659430358.517376,16691
1659430358.556655,16698
1659430358.595934,16701
1659430358.637433,16706
1659430358.678932,16702
1659430358.719919,16701
1659430358.760906,16706
1659430358.799502,16708
1659430358.838098,16710
1659430358.876693,16709
1659430358.920754,16705
1659430358.964815,16695
1659430359.008876,16708
1659430359.04269,16697
1659430359.076504,16705
1659430359.120906,16694
1659430359.165308,16701
1659430359.209711,16697
1659430359.2425,16698
1659430359.27529,16698
1659430359.31935,16692
1659430359.363411,16697
1659430359.407472,16692
1659430359.446409,16691
1659430359.485347,16684
1659430359.524284,16679
1659430359.566296,16686
1659430359.608307,16692
1659430359.646903,16687
1659430359.685499,16692
1659430359.724095,16701
1659430359.763374,16699
1659430359.802653,16706
1659430359.841932,16693
1659430359.882918,16698
1659430359.923905,16706
1659430359.962501,16700
1659430360.001097,16693
1659430360.039693,16698
1659430360.081192,16695
1659430360.122691,16691
1659430360.161628,16704
1659430360.200566,16715
1659430360.239503,16707
1659430360.283223,16699
1659430360.326942,16688
1659430360.370661,16697
1659430360.410282,16689
1659430360.449902,16673
1659430360.489523,16659
1659430360.531534,16656
1659430360.573545,16666
1659430360.612141,16659
1659430360.650737,16679
1659430360.689333,16673
1659430360.730832,16662
1659430360.772331,16654
1659430360.81161,16644
1659430360.850889,16632
1659430360.890168,16627
1659430360.928081,16618
1659430360.965994,16606
1659430361.003906,16598
1659430361.046943,16584
1659430361.089979,16579
1659430361.128575,16578
1659430361.167171,16593
1659430361.205766,16603
1659430361.246241,16604
1659430361.286715,16608
1659430361.325653,16594
1659430361.36459,16603
1659430361.403527,16601
1659430361.442465,16593
1659430361.481402,16601
1659430361.52034,16604
1659430361.561839,16606
1659430361.603338,16601
1659430361.64535,16597
1659430361.687361,16608
1659430361.726298,16606
1659430361.765236,16629
1659430361.804173,16639
1659430361.848234,16633
1659430361.892295,16619
1659430361.936356,16618
1659430361.97017,16608
1659430362.003984,16624
1659430362.048728,16631
1659430362.093472,16646
1659430362.138215,16647
1659430362.16998,16646
1659430362.201745,16638
1659430362.246147,16638
1659430362.29055,16637
1659430362.334952,16634
1659430362.373548,16642
1659430362.412143,16646
1659430362.450739,16651
1659430362.492239,16641
1659430362.533738,16653
1659430362.571992,16649
1659430362.610246,16651
1659430362.648501,16657
1659430362.68778,16652
1659430362.727059,16665
1659430362.766338,16656
1659430362.807324,16651
1659430362.848311,16641
1659430362.88759,16643
1659430362.926869,16643
1659430362.966148,16644
1659430363.008159,16646
1659430363.050171,16638
1659430363.089108,16643
1659430363.128046,16651
1659430363.166983,16639
1659430363.207458,16632
1659430363.247932,16620
1659430363.287553,16617
1659430363.327173,16625
1659430363.366794,16634
1659430363.40778,16626
1659430363.448767,16632
1659430363.487363,16632
1659430363.525959,16629
1659430363.564555,16628
1659430363.609299,16618
1659430363.654042,16617
1659430363.698786,16618
1659430363.740286,16617
1659430363.781785,16612
1659430363.820722,16617
1659430363.859659,16619
1659430363.898597,16630
1659430363.940609,16629
1659430363.98262,16621
1659430364.021557,16628
1659430364.060495,16629
1659430364.099432,16629
1659430364.13837,16626
1659430364.177307,16644
1659430364.216244,16639
1659430364.258256,16653
1659430364.300267,16643
1659430364.339546,16634
1659430364.378825,16643
1659430364.418104,16645
1659430364.458579,16651
1659430364.499053,16651
1659430364.537649,16650
1659430364.576245,16655
1659430364.614841,16662
1659430364.65412,16657
1659430364.693399,16662
1659430364.732678,16669
1659430364.774177,16662
1659430364.815676,16668
1659430364.854272,16653
1659430364.892868,16654
1659430364.931463,16647
1659430364.973987,16655
1659430365.016511,16660
1659430365.055107,16663
1659430365.093703,16669
1659430365.132299,16664
1659430365.173798,16676
1659430365.215297,16681
1659430365.260041,16670
1659430365.304785,16673
1659430365.349529,16668
1659430365.38283,16679
1659430365.416132,16668
1659430365.459851,16664
1659430365.503571,16675
1659430365.54729,16687
1659430365.586227,16674
1659430365.625165,16666
1659430365.664102,16667
1659430365.702356,16664
1659430365.740611,16662
1659430365.778865,16658
1659430365.820364,16658
1659430365.861863,16659
1659430365.901142,16665
1659430365.940421,16664
1659430365.9797,16669
1659430366.018296,16664
1659430366.056892,16662
1659430366.095488,16660
1659430366.136474,16670
1659430366.177461,16678
1659430366.217423,16670
1659430366.257385,16667
1659430366.297348,16668
1659430366.338847,16667
1659430366.380346,16675
1659430366.418941,16678
1659430366.457537,16688
1659430366.496133,16683
1659430366.537632,16681
1659430366.579132,16677
1659430366.623534,16670
1659430366.667936,16674
1659430366.712338,16666
1659430366.745128,16676
1659430366.777917,16672
1659430366.822661,16686
1659430366.867405,16670
1659430366.912149,16677
1659430366.950745,16685
1659430366.989341,16688
1659430367.027937,16687
1659430367.068923,16678
1659430367.10991,16683
1659430367.149531,16675
1659430367.189151,16691
1659430367.228772,16670
1659430367.270783,16657
1659430367.312795,16660
1659430367.351391,16638
1659430367.389987,16635
1659430367.428582,16630
1659430367.467861,16635
1659430367.50714,16633
1659430367.546419,16649
1659430367.588943,16654
1659430367.631467,16654
1659430367.669721,16655
1659430367.707975,16661
1659430367.74623,16673
1659430367.787216,16663
1659430367.828203,16669
1659430367.867141,16665
1659430367.906078,16671
1659430367.945015,16674
1659430367.98327,16662
1659430368.021524,16667
1659430368.059778,16662
1659430368.10179,16678
1659430368.143801,16683
1659430368.188545,16678
1659430368.233289,16678
1659430368.278033,16668
1659430368.310822,16660
1659430368.343612,16664
1659430368.387673,16660
1659430368.431733,16664
1659430368.475794,16672
1659430368.515073,16669
1659430368.554352,16678
1659430368.593631,16674
1659430368.63513,16670
1659430368.676629,16674
1659430368.715225,16674
1659430368.753821,16674
1659430368.792417,16670
1659430368.833404,16681
1659430368.874391,16677
1659430368.912986,16676
1659430368.951582,16688
1659430368.990178,16692
1659430369.028432,16685
1659430369.066687,16679
1659430369.104941,16675
1659430369.146952,16685
1659430369.188964,16691
1659430369.227901,16682
1659430369.266839,16685
1659430369.305776,16687
1659430369.344031,16684
1659430369.382285,16692
1659430369.420539,16674
1659430369.462551,16663
1659430369.504562,16668
1659430369.547086,16665
1659430369.58961,16667
1659430369.628206,16651
1659430369.666801,16649
1659430369.705397,16642
1659430369.746896,16656
1659430369.788395,16644
1659430369.827674,16643
1659430369.866953,16653
1659430369.906232,16646
1659430369.949952,16641
1659430369.993671,16649
1659430370.03739,16644
1659430370.070692,16647
1659430370.103993,16665
1659430370.149079,16655
1659430370.194164,16656
1659430370.23925,16658
1659430370.279724,16652
1659430370.320199,16655
1659430370.359136,16653
1659430370.398074,16655
1659430370.437011,16648
1659430370.476973,16646
1659430370.516935,16643
1659430370.556897,16637
1659430370.597884,16639
1659430370.638871,16638
1659430370.677467,16640
1659430370.716063,16634
1659430370.754658,16626
1659430370.796926,16620
1659430370.839194,16632
1659430370.881461,16634
1659430370.923729,16624
1659430370.961642,16627
1659430370.999554,16626
1659430371.037467,16644
1659430371.076746,16637
1659430371.116025,16630
1659430371.155304,16632
1659430371.196291,16597
1659430371.237278,16593
1659430371.275873,16584
1659430371.314469,16596
1659430371.353065,16600
1659430371.392003,16631
1659430371.43094,16620
1659430371.469877,16612
1659430371.511377,16618
1659430371.552876,16624
1659430371.591472,16625
1659430371.630067,16632
1659430371.668663,16641
1659430371.710675,16634
1659430371.752686,16633
1659430371.79743,16621
1659430371.842174,16617
1659430371.886918,16609
1659430371.919195,16603
1659430371.951472,16603
1659430371.995874,16604
1659430372.040277,16605
1659430372.084679,16600
1659430372.118493,16613
1659430372.152307,16614
1659430372.196026,16611
1659430372.239746,16609
1659430372.283465,16608
1659430372.322402,16615
1659430372.36134,16610
1659430372.400277,16602
1659430372.441264,16619
1659430372.482251,16622
1659430372.520505,16621
1659430372.558759,16628
1659430372.597014,16633
1659430372.636293,16629
1659430372.675572,16636
1659430372.714851,16625
1659430372.757374,16633
1659430372.799898,16636
1659430372.838494,16633
1659430372.87709,16633
1659430372.915686,16639
1659430372.957185,16631
1659430372.998684,16629
1659430373.037963,16636
1659430373.077242,16630
1659430373.116521,16631
1659430373.158532,16628
1659430373.200544,16620
1659430373.23914,16622
1659430373.277735,16635
1659430373.316331,16643
1659430373.357831,16630
1659430373.39933,16631
1659430373.438267,16623
1659430373.477204,16628
1659430373.516142,16624
1659430373.558153,16618
1659430373.600165,16620
1659430373.638761,16613
1659430373.677356,16619
1659430373.715952,16614
1659430373.760696,16616
1659430373.80544,16610
1659430373.850184,16620
1659430373.891683,16623
1659430373.933182,16619
1659430373.972461,16613
1659430374.01174,16616
1659430374.051019,16622
1659430374.093031,16623
1659430374.135042,16630
1659430374.173638,16630
1659430374.212234,16642
1659430374.25083,16635
1659430374.289426,16646
1659430374.328021,16639
1659430374.366617,16630
1659430374.407604,16637
1659430374.448591,16643
1659430374.487187,16642
1659430374.525783,16636
1659430374.564378,16640
1659430374.603316,16649
1659430374.642253,16658
1659430374.681191,16642
1659430374.72269,16638
1659430374.764189,16648
1659430374.802785,16646
1659430374.841381,16647
1659430374.879977,16648
1659430374.920963,16645
1659430374.96195,16658
1659430375.001912,16667
1659430375.041874,16656
1659430375.081836,16646
1659430375.122823,16654
1659430375.16381,16649
1659430375.202406,16644
1659430375.241002,16645
1659430375.279598,16655
1659430375.322121,16655
1659430375.364645,16658
1659430375.408706,16651
1659430375.452767,16659
1659430375.496827,16649
1659430375.535423,16651
1659430375.574019,16653
1659430375.612615,16649
1659430375.654114,16653
1659430375.695613,16656
1659430375.733867,16653
1659430375.772122,16666
1659430375.810376,16661
1659430375.850851,16651
1659430375.891325,16666
1659430375.930946,16663
1659430375.970566,16656
1659430376.010187,16658
1659430376.049124,16655
1659430376.088062,16661
1659430376.126999,16660
1659430376.165936,16655
1659430376.204874,16645
1659430376.243811,16644
1659430376.288897,16650
1659430376.333982,16640
1659430376.379067,16640
1659430376.411857,16638
1659430376.444646,16637
1659430376.488707,16630
1659430376.532768,16636
1659430376.576829,16631
1659430376.616108,16632
1659430376.655387,16629
1659430376.694666,16637
1659430376.736677,16643
1659430376.778688,16635
1659430376.817284,16629
1659430376.85588,16624
1659430376.894476,16636
1659430376.935975,16636
1659430376.977474,16635
1659430377.01607,16631
1659430377.054666,16635
1659430377.093262,16650
1659430377.132199,16645
1659430377.171137,16654
1659430377.210074,16642
1659430377.252086,16635
1659430377.294097,16638
1659430377.332693,16651
1659430377.371289,16651
1659430377.409885,16653
1659430377.451384,16662
1659430377.492883,16661
1659430377.532162,16658
1659430377.571441,16669
1659430377.61072,16670
1659430377.651707,16672
1659430377.692693,16673
1659430377.730948,16670
1659430377.769202,16673
1659430377.807456,16681
1659430377.851859,16673
1659430377.896261,16686
1659430377.940663,16679
1659430377.973965,16666
1659430378.007267,16669
1659430378.051328,16669
1659430378.095388,16675
1659430378.139449,16673
1659430378.172751,16680
1659430378.206053,16673
1659430378.250455,16668
1659430378.294857,16667
1659430378.33926,16660
1659430378.377856,16669
1659430378.416451,16669
1659430378.455047,16670
1659430378.497059,16672
1659430378.53907,16673
1659430378.578008,16664
1659430378.616945,16677
1659430378.655882,16670
1659430378.696869,16669
1659430378.737856,16680
1659430378.77611,16676
1659430378.814365,16678
1659430378.852619,16676
1659430378.891898,16677
1659430378.931177,16675
1659430378.970456,16676
1659430379.012467,16677
1659430379.054479,16677
1659430379.092733,16687
1659430379.130987,16688
1659430379.169242,16686
1659430379.210741,16686
1659430379.25224,16682
1659430379.291519,16685
1659430379.330798,16694
1659430379.370077,16688
1659430379.412088,16688
1659430379.4541,16684
1659430379.493379,16680
1659430379.532658,16688
1659430379.571937,16689
1659430379.613948,16675
1659430379.65596,16683
1659430379.70002,16679
1659430379.744081,16675
1659430379.788142,16670
1659430379.827079,16672
1659430379.866017,16669
1659430379.904954,16673
1659430379.947478,16666
1659430379.990002,16667
1659430380.028256,16665
1659430380.06651,16665
1659430380.104765,16666
1659430380.145751,16661
1659430380.186738,16683
1659430380.226017,16663
1659430380.265296,16670
1659430380.304575,16659
1659430380.342829,16660
1659430380.381084,16662
1659430380.419338,16657
1659430380.461349,16650
1659430380.503361,16652
1659430380.542982,16647
1659430380.582602,16645
1659430380.622223,16642
1659430380.663209,16635
1659430380.704196,16635
1659430380.743134,16641
1659430380.782071,16639
1659430380.821008,16647
1659430380.860287,16642
1659430380.899566,16635
1659430380.938845,16632
1659430380.97932,16636
1659430381.019794,16630
1659430381.05839,16617
1659430381.096986,16624
1659430381.135582,16628
1659430381.176569,16637
1659430381.217555,16620
1659430381.259225,16622
1659430381.300895,16629
1659430381.342565,16628
1659430381.384235,16632
1659430381.425905,16636
1659430381.467575,16637
1659430381.506512,16627
1659430381.545449,16633
1659430381.584387,16629
1659430381.622983,16628
1659430381.661579,16644
1659430381.700175,16640
1659430381.741674,16636
1659430381.783173,16653
1659430381.822452,16654
1659430381.861731,16651
1659430381.90101,16647
1659430381.942509,16648
1659430381.984008,16663
1659430382.022945,16667
1659430382.061883,16676
1659430382.10082,16680
1659430382.145223,16686
1659430382.189625,16687
1659430382.234027,16675
1659430382.266817,16650
1659430382.299606,16645
1659430382.343667,16662
1659430382.387727,16664
1659430382.431788,16667
1659430382.465602,16676
1659430382.499417,16678
1659430382.543477,16679
1659430382.587538,16681
1659430382.631599,16682
1659430382.670878,16676
1659430382.710157,16672
1659430382.749436,16671
1659430382.791447,16680
1659430382.833459,16682
1659430382.872396,16693
1659430382.911334,16680
1659430382.950271,16688
1659430382.99177,16685
1659430383.033269,16681
1659430383.072548,16687
1659430383.111827,16686
1659430383.151106,16690
1659430383.189702,16690
1659430383.228298,16684
1659430383.266894,16688
1659430383.30788,16693
1659430383.348867,16688
1659430383.388146,16677
1659430383.427425,16691
1659430383.466704,16689
1659430383.508203,16692
1659430383.549702,16681
1659430383.587957,16675
1659430383.626211,16688
1659430383.664465,16680
1659430383.705965,16685
1659430383.747463,16680
1659430383.787084,16678
1659430383.826705,16670
1659430383.866325,16676
1659430383.907312,16669
1659430383.948299,16665
1659430383.992701,16674
1659430384.037103,16665
1659430384.081506,16662
1659430384.120443,16667
1659430384.159381,16661
1659430384.198318,16656
1659430384.238792,16656
1659430384.279267,16656
1659430384.318546,16657
1659430384.357825,16663
1659430384.397104,16666
1659430384.438091,16660
1659430384.479077,16649
1659430384.517673,16642
1659430384.556269,16635
1659430384.594865,16639
1659430384.632778,16643
1659430384.670691,16643
1659430384.708603,16638
1659430384.751639,16645
1659430384.794676,16656
1659430384.833271,16642
1659430384.871867,16649
1659430384.910463,16651
1659430384.9494,16653
1659430384.988338,16656
1659430385.027275,16660
1659430385.069287,16656
1659430385.111298,16660
1659430385.149894,16676
1659430385.18849,16663
1659430385.227086,16671
1659430385.268585,16675
1659430385.310084,16682
1659430385.349363,16683
1659430385.388642,16696
1659430385.427921,16693
1659430385.468908,16704
1659430385.509895,16705
1659430385.553955,16697
1659430385.598016,16703
1659430385.642077,16693
1659430385.675891,16694
1659430385.709705,16691
1659430385.754107,16692
1659430385.79851,16691
1659430385.842912,16694
1659430385.880825,16685
1659430385.918738,16678
1659430385.95665,16696
1659430385.999174,16697
1659430386.041698,16694
1659430386.080635,16693
1659430386.119573,16705
1659430386.15851,16699
1659430386.200009,16702
1659430386.241508,16700
1659430386.280787,16697
1659430386.320066,16701
1659430386.359345,16702
1659430386.398283,16707
1659430386.43722,16714
1659430386.476158,16718
1659430386.51571,16733
1659430386.555262,16745
1659430386.594814,16759
1659430386.634367,16778
1659430386.673919,16776
1659430386.715418,16750
1659430386.756917,16751
1659430386.798416,16754
1659430386.839915,16754
1659430386.881927,16761
1659430386.923938,16750
1659430386.962875,16750
1659430387.001813,16749
1659430387.04075,16747
1659430387.079346,16735
1659430387.117942,16743
1659430387.156538,16712
1659430387.198037,16705
1659430387.239536,16695
1659430387.278815,16692
1659430387.318094,16690
1659430387.357373,16698
1659430387.399384,16711
1659430387.441396,16700
1659430387.479992,16695
1659430387.518588,16682
1659430387.557184,16705
1659430387.59817,16714
1659430387.639157,16726
1659430387.677753,16733
1659430387.716349,16740
1659430387.754945,16748
1659430387.796956,16754
1659430387.838968,16742
1659430387.877563,16730
1659430387.916159,16745
1659430387.954755,16733
1659430387.999158,16724
1659430388.04356,16730
1659430388.087962,16742
1659430388.126558,16743
1659430388.165154,16760
1659430388.20375,16766
1659430388.245761,16760
1659430388.287773,16772
1659430388.32671,16767
1659430388.365648,16763
1659430388.404585,16758
1659430388.446596,16765
1659430388.488608,16760
1659430388.527887,16760
1659430388.567166,16743
1659430388.606445,16718
1659430388.645382,16709
1659430388.68432,16702
1659430388.723257,16715
1659430388.763731,16714
1659430388.804206,16719
1659430388.843485,16698
1659430388.882764,16692
1659430388.922043,16669
1659430388.963542,16664
1659430389.005041,16665
1659430389.043637,16661
1659430389.082233,16673
1659430389.120829,16673
1659430389.161815,16682
1659430389.202802,16699
1659430389.242423,16702
1659430389.282043,16706
1659430389.321664,16694
1659430389.363675,16693
1659430389.405687,16689
1659430389.443941,16698
1659430389.482195,16693
1659430389.52045,16697
1659430389.565535,16717
1659430389.61062,16717
1659430389.655706,16715
1659430389.68952,16705
1659430389.723334,16714
1659430389.767736,16710
1659430389.812139,16713
1659430389.856541,16706
1659430389.897528,16701
1659430389.938515,16723
1659430389.977452,16702
1659430390.01639,16707
1659430390.055327,16713
1659430390.09324,16716
1659430390.131153,16719
1659430390.169065,16717
1659430390.208344,16718
1659430390.247623,16709
1659430390.286902,16715
1659430390.328401,16715
1659430390.3699,16726
1659430390.408155,16723
1659430390.446409,16716
1659430390.484663,16713
1659430390.526675,16713
1659430390.568686,16712
1659430390.607624,16705
1659430390.646561,16724
1659430390.685498,16716
1659430390.726998,16724
1659430390.768497,16710
1659430390.807776,16710
1659430390.847055,16719
1659430390.886334,16718
1659430390.92732,16717
1659430390.968307,16724
1659430391.006562,16720
1659430391.044816,16714
1659430391.08307,16722
1659430391.127814,16711
1659430391.172558,16708
1659430391.217302,16713
1659430391.259826,16712
1659430391.302349,16708
1659430391.340262,16701
1659430391.378175,16704
1659430391.416088,16698
1659430391.457587,16703
1659430391.499086,16702
1659430391.538365,16695
1659430391.577644,16707
1659430391.616923,16697
1659430391.655519,16697
1659430391.694115,16696
1659430391.73271,16692
1659430391.773287,16685
1659430391.813864,16677
1659430391.854441,16673
1659430391.895018,16679
1659430391.935595,16686
1659430391.974942,16676
1659430392.01429,16684
1659430392.053637,16673
1659430392.092984,16662
1659430392.132331,16659
1659430392.171952,16656
1659430392.211573,16655
1659430392.251193,16656
1659430392.29218,16657
1659430392.333167,16661
1659430392.371763,16661
1659430392.410358,16653
1659430392.448954,16646
1659430392.490453,16647
1659430392.531952,16646
1659430392.571231,16644
1659430392.61051,16646
1659430392.649789,16646
1659430392.694192,16645
1659430392.738594,16659
1659430392.782996,16666
1659430392.825008,16667
1659430392.867019,16671
1659430392.905615,16673
1659430392.944211,16677
1659430392.982807,16666
1659430393.024306,16668
1659430393.065805,16660
1659430393.105426,16656
1659430393.145046,16654
1659430393.184667,16638
1659430393.222921,16613
1659430393.261175,16609
1659430393.29943,16613
1659430393.339904,16629
1659430393.380378,16646
1659430393.418974,16648
1659430393.45757,16642
1659430393.496166,16639
1659430393.535104,16636
1659430393.574041,16634
1659430393.612978,16623
1659430393.654478,16626
1659430393.695976,16623
1659430393.734572,16632
1659430393.773168,16652
1659430393.811764,16673
1659430393.853776,16673
1659430393.895787,16673
1659430393.934383,16658
1659430393.972979,16652
1659430394.011575,16665
1659430394.053074,16652
1659430394.094573,16659
1659430394.139317,16653
1659430394.184061,16656
1659430394.228805,16647
1659430394.261594,16640
1659430394.294384,16637
1659430394.338444,16626
1659430394.382505,16631
1659430394.426566,16628
1659430394.465503,16630
1659430394.504441,16636
1659430394.543378,16630
1659430394.585389,16633
1659430394.627401,16633
1659430394.665655,16635
1659430394.70391,16641
1659430394.742164,16640
1659430394.784175,16633
1659430394.826187,16647
1659430394.865124,16648
1659430394.904062,16648
1659430394.942999,16647
1659430394.981595,16636
1659430395.020191,16640
1659430395.058787,16644
1659430395.101823,16640
1659430395.144859,16633
1659430395.183796,16644
1659430395.222734,16643
1659430395.261671,16635
1659430395.302145,16633
1659430395.34262,16628
1659430395.381899,16627
1659430395.421178,16635
1659430395.460457,16628
1659430395.499394,16629
1659430395.538332,16642
1659430395.577269,16632
1659430395.618256,16632
1659430395.659243,16627
1659430395.700742,16628
1659430395.742241,16635
1659430395.780837,16624
1659430395.819433,16632
1659430395.858029,16636
1659430395.902089,16634
1659430395.94615,16634
1659430395.990211,16638
1659430396.024537,16626
1659430396.058864,16624
1659430396.103608,16634
1659430396.148351,16632
1659430396.193095,16629
1659430396.225885,16629
1659430396.258674,16646
1659430396.303077,16620
1659430396.347479,16628
1659430396.391881,16626
1659430396.43116,16619
1659430396.470439,16625
1659430396.509718,16621
1659430396.550193,16624
1659430396.590667,16614
1659430396.629263,16607
1659430396.667859,16605
1659430396.706455,16613
1659430396.74505,16608
1659430396.783646,16606
1659430396.822242,16612
1659430396.863741,16615
1659430396.905241,16620
1659430396.943836,16605
1659430396.982432,16609
1659430397.021028,16600
1659430397.06099,16585
1659430397.100952,16590
1659430397.140914,16598
1659430397.180876,16610
1659430397.220839,16611
1659430397.26285,16637
1659430397.304862,16619
1659430397.343799,16610
1659430397.382736,16614
1659430397.421674,16609
1659430397.463685,16617
1659430397.505697,16613
1659430397.543951,16615
1659430397.582205,16619
1659430397.62046,16630
1659430397.662983,16625
1659430397.705507,16619
1659430397.749568,16622
1659430397.793629,16631
1659430397.837689,16631
1659430397.870479,16628
1659430397.903268,16641
1659430397.947671,16629
1659430397.992073,16636
1659430398.036475,16633
1659430398.075413,16625
1659430398.11435,16632
1659430398.153288,16624
1659430398.195299,16631
1659430398.23731,16627
1659430398.276589,16626
1659430398.315868,16636
1659430398.355147,16652
1659430398.394426,16643
1659430398.433705,16639
1659430398.472984,16634
1659430398.514483,16635
1659430398.555983,16643
1659430398.594579,16631
1659430398.633174,16631
1659430398.67177,16640
1659430398.711049,16632
1659430398.750328,16635
1659430398.789607,16638
1659430398.831106,16639
1659430398.872605,16636
1659430398.911201,16652
1659430398.949797,16651
1659430398.988393,16650
1659430399.030404,16655
1659430399.072416,16654
1659430399.110328,16646
1659430399.148241,16643
1659430399.186154,16637
1659430399.227653,16648
1659430399.269152,16653
1659430399.313896,16654
1659430399.35864,16651
1659430399.403384,16664
1659430399.436686,16664
1659430399.469987,16652
1659430399.51439,16636
1659430399.558792,16645
1659430399.603194,16645
1659430399.642132,16640
1659430399.681069,16636
1659430399.720007,16652
1659430399.762018,16640
1659430399.804029,16643
1659430399.841942,16639
1659430399.879855,16643
1659430399.917768,16641
1659430399.957047,16638
1659430399.996326,16646
1659430400.035605,16636
1659430400.076079,16646
1659430400.116554,16638
1659430400.155491,16628
1659430400.194428,16626
1659430400.233366,16620
1659430400.274865,16614
1659430400.316364,16620
1659430400.35496,16610
1659430400.393556,16602
1659430400.432152,16608
1659430400.470748,16605
1659430400.509344,16615
1659430400.547939,16597
1659430400.590463,16597
1659430400.632987,16605
1659430400.673974,16606
1659430400.714961,16609
1659430400.753556,16610
1659430400.792152,16618
1659430400.830748,16622
1659430400.87515,16627
1659430400.919553,16624
1659430400.963955,16619
1659430400.997769,16636
1659430401.031583,16631
1659430401.075302,16640
1659430401.119022,16630
1659430401.162741,16643
1659430401.196043,16629
1659430401.229344,16642
1659430401.273747,16632
1659430401.318149,16632
1659430401.362551,16638
1659430401.401489,16633
1659430401.440426,16639
1659430401.479364,16640
1659430401.521888,16634
1659430401.564411,16625
1659430401.60369,16627
1659430401.642969,16630
1659430401.682248,16629
1659430401.723235,16628
1659430401.764222,16624
1659430401.803501,16635
1659430401.84278,16629
1659430401.882059,16623
1659430401.920655,16622
1659430401.95925,16637
1659430401.997846,16628
1659430402.039858,16632
1659430402.081869,16633
1659430402.120123,16623
1659430402.158378,16630
1659430402.196632,16621
1659430402.238131,16622
1659430402.27963,16630
1659430402.319387,16631
1659430402.359145,16628
1659430402.398902,16625
1659430402.438659,16632
1659430402.478416,16636
1659430402.517012,16645
1659430402.555608,16631
1659430402.594204,16622
1659430402.636215,16631
1659430402.678227,16624
1659430402.716822,16629
1659430402.755418,16643
1659430402.794014,16645
1659430402.836026,16631
1659430402.878037,16629
1659430402.922439,16622
1659430402.966842,16623
1659430403.011244,16615
1659430403.044546,16598
1659430403.077847,16573
1659430403.121908,16543
1659430403.165969,16538
1659430403.21003,16539
1659430403.248626,16491
1659430403.287222,16396
1659430403.325818,16199
1659430403.367317,15830
1659430403.408816,15343
1659430403.447412,14775
1659430403.486007,14047
1659430403.524603,13269
1659430403.56559,12516
1659430403.606577,11759
1659430403.645514,11081
1659430403.684452,10501
1659430403.723389,9955
1659430403.761985,9439
1659430403.800581,8862
1659430403.839177,8116
1659430403.882213,7348
1659430403.925249,6900
1659430403.963845,6674
1659430404.002441,6518
1659430404.041037,6411
1659430404.080316,6342
1659430404.119595,6206
1659430404.158874,6230
