LocalTimestamp,PG
1659514493.985645,9896
1659514494.024945,9956
1659514494.064246,10076
1659514494.103546,10208
1659514494.14558,10364
1659514494.187614,10509
1659514494.226231,10662
1659514494.264848,10779
1659514494.303464,10871
1659514494.345499,10955
1659514494.387533,11021
1659514494.426491,11106
1659514494.46545,11186
1659514494.504408,11272
1659514494.544904,11329
1659514494.585401,11398
1659514494.629827,11461
1659514494.674253,11524
1659514494.718679,11585
1659514494.757638,11608
1659514494.796596,11640
1659514494.835555,11680
1659514494.877076,11707
1659514494.918598,11734
1659514494.957556,11748
1659514494.996515,11761
1659514495.035473,11780
1659514495.077507,11808
1659514495.119541,11835
1659514495.158158,11861
1659514495.196775,11870
1659514495.235392,11894
1659514495.274692,11911
1659514495.313992,11936
1659514495.353292,11966
1659514495.395326,12018
1659514495.437361,12046
1659514495.475636,12075
1659514495.51391,12132
1659514495.552185,12148
1659514495.59046,12166
1659514495.628735,12193
1659514495.66701,12211
1659514495.708532,12227
1659514495.750053,12237
1659514495.789627,12241
1659514495.829201,12263
1659514495.868774,12283
1659514495.908348,12298
1659514495.947921,12310
1659514495.98893,12318
1659514496.029939,12345
1659514496.069581,12378
1659514496.109223,12435
1659514496.148865,12486
1659514496.190386,12522
1659514496.231908,12545
1659514496.270525,12557
1659514496.309141,12561
1659514496.347758,12539
1659514496.392526,12517
1659514496.437294,12524
1659514496.482062,12524
1659514496.515894,12524
1659514496.549727,12500
1659514496.594495,12475
1659514496.639263,12463
1659514496.684031,12468
1659514496.72299,12475
1659514496.761948,12495
1659514496.800906,12520
1659514496.841403,12545
1659514496.881899,12595
1659514496.920516,12637
1659514496.959132,12666
1659514496.997749,12689
1659514497.037049,12721
1659514497.076349,12739
1659514497.11565,12785
1659514497.157171,12804
1659514497.198693,12824
1659514497.237309,12846
1659514497.275926,12868
1659514497.314543,12879
1659514497.35709,12897
1659514497.399636,12936
1659514497.438253,12965
1659514497.47687,13008
1659514497.515486,13028
1659514497.557008,13038
1659514497.598529,13061
1659514497.638171,13059
1659514497.677813,13065
1659514497.717455,13079
1659514497.758464,13098
1659514497.799473,13106
1659514497.837748,13119
1659514497.876023,13119
1659514497.914298,13103
1659514497.959066,13087
1659514498.003834,13072
1659514498.048602,13052
1659514498.081922,12989
1659514498.115242,12973
1659514498.158984,12959
1659514498.202727,12973
1659514498.24647,12993
1659514498.288504,12995
1659514498.330538,13023
1659514498.369497,13037
1659514498.408455,13036
1659514498.447414,13033
1659514498.485689,13037
1659514498.523964,13055
1659514498.562239,13063
1659514498.604785,13082
1659514498.647332,13080
1659514498.686291,13110
1659514498.725249,13101
1659514498.764207,13114
1659514498.802482,13089
1659514498.840757,13067
1659514498.879032,13068
1659514498.920554,13078
1659514498.962075,13108
1659514499.001034,13111
1659514499.039992,13132
1659514499.078951,13139
1659514499.119447,13147
1659514499.159943,13145
1659514499.198902,13156
1659514499.23786,13153
1659514499.276819,13160
1659514499.31834,13172
1659514499.359862,13168
1659514499.39882,13175
1659514499.437779,13185
1659514499.476737,13181
1659514499.521847,13137
1659514499.566957,13131
1659514499.612067,13152
1659514499.653588,13157
1659514499.695109,13166
1659514499.733726,13171
1659514499.772343,13186
1659514499.81096,13191
1659514499.852994,13190
1659514499.895028,13201
1659514499.93467,13203
1659514499.974312,13213
1659514500.013954,13215
1659514500.052229,13236
1659514500.090504,13227
1659514500.128778,13223
1659514500.169787,13226
1659514500.210796,13185
1659514500.249755,13131
1659514500.288713,13115
1659514500.327672,13144
1659514500.369706,13156
1659514500.41174,13193
1659514500.450357,13210
1659514500.488973,13221
1659514500.52759,13234
1659514500.56689,13246
1659514500.60619,13252
1659514500.645491,13262
1659514500.685474,13273
1659514500.725458,13281
1659514500.765442,13297
1659514500.805425,13326
1659514500.845409,13364
1659514500.887443,13389
1659514500.929477,13387
1659514500.971511,13367
1659514501.013546,13323
1659514501.054042,13295
1659514501.094538,13276
1659514501.133838,13259
1659514501.173139,13273
1659514501.212439,13263
1659514501.253448,13268
1659514501.294456,13272
1659514501.333073,13273
1659514501.37169,13293
1659514501.410307,13300
1659514501.44824,13311
1659514501.486173,13320
1659514501.524106,13319
1659514501.566653,13324
1659514501.6092,13329
1659514501.647817,13276
1659514501.686433,13172
1659514501.72505,13118
1659514501.766059,13108
1659514501.807068,13138
1659514501.851836,13163
1659514501.896604,13196
1659514501.941372,13203
1659514501.980672,13218
1659514502.019972,13223
1659514502.059273,13240
1659514502.100794,13241
1659514502.142316,13252
1659514502.181274,13275
1659514502.220232,13274
1659514502.259191,13283
1659514502.3002,13295
1659514502.341209,13295
1659514502.379142,13292
1659514502.417075,13295
1659514502.455009,13174
1659514502.494308,13120
1659514502.533609,13137
1659514502.572909,13153
1659514502.614943,13172
1659514502.656977,13211
1659514502.694911,13242
1659514502.732844,13252
1659514502.770777,13256
1659514502.813324,13261
1659514502.85587,13276
1659514502.894829,13284
1659514502.933787,13290
1659514502.972746,13313
1659514503.011704,13304
1659514503.050663,13316
1659514503.089621,13315
1659514503.131655,13322
1659514503.173689,13337
1659514503.212648,13307
1659514503.251606,13211
1659514503.290565,13179
1659514503.331061,13206
1659514503.371557,13216
1659514503.416325,13240
1659514503.461093,13277
1659514503.505862,13276
1659514503.539694,13275
1659514503.573526,13283
1659514503.617269,13287
1659514503.661012,13298
1659514503.704755,13321
1659514503.737562,13322
1659514503.770369,13337
1659514503.815479,13346
1659514503.860588,13351
1659514503.905698,13361
1659514503.943973,13361
1659514503.982248,13368
1659514504.020523,13321
1659514504.06307,13227
1659514504.105617,13210
1659514504.144575,13231
1659514504.183533,13248
1659514504.222492,13269
1659514504.261109,13288
1659514504.299725,13302
1659514504.338342,13312
1659514504.378838,13319
1659514504.419335,13335
1659514504.458977,13351
1659514504.498619,13350
1659514504.53826,13375
1659514504.578757,13384
1659514504.619253,13397
1659514504.65787,13398
1659514504.696486,13406
1659514504.735103,13410
1659514504.776112,13414
1659514504.817121,13381
1659514504.85608,13346
1659514504.895038,13310
1659514504.933996,13311
1659514504.975005,13329
1659514505.016014,13344
1659514505.054973,13359
1659514505.093931,13372
1659514505.13289,13382
1659514505.177316,13387
1659514505.221742,13396
1659514505.266168,13403
1659514505.300001,13419
1659514505.333833,13442
1659514505.378601,13434
1659514505.423369,13441
1659514505.468137,13458
1659514505.506754,13454
1659514505.545371,13458
1659514505.583987,13468
1659514505.624484,13479
1659514505.66498,13449
1659514505.703938,13431
1659514505.742897,13423
1659514505.781855,13424
1659514505.823889,13437
1659514505.865924,13456
1659514505.902832,13481
1659514505.93974,13473
1659514505.976648,13484
1659514506.013556,13491
1659514506.058324,13496
1659514506.103092,13500
1659514506.14786,13512
1659514506.182205,13524
1659514506.21655,13530
1659514506.260634,13540
1659514506.304719,13542
1659514506.348804,13545
1659514506.388104,13555
1659514506.427404,13562
1659514506.466704,13584
1659514506.508225,13616
1659514506.549747,13639
1659514506.589047,13652
1659514506.628347,13683
1659514506.667648,13675
1659514506.708657,13683
1659514506.749665,13700
1659514506.788624,13703
1659514506.827582,13712
1659514506.866541,13726
1659514506.904474,13747
1659514506.942407,13751
1659514506.98034,13766
1659514507.022887,13771
1659514507.065434,13782
1659514507.104392,13798
1659514507.143351,13795
1659514507.182309,13804
1659514507.223318,13805
1659514507.264327,13803
1659514507.303286,13778
1659514507.342244,13776
1659514507.381202,13774
1659514507.423749,13781
1659514507.466296,13787
1659514507.504571,13786
1659514507.542846,13798
1659514507.581121,13791
1659514507.625547,13792
1659514507.669973,13796
1659514507.7144,13797
1659514507.755921,13790
1659514507.797443,13806
1659514507.835718,13802
1659514507.873993,13804
1659514507.912268,13808
1659514507.950884,13805
1659514507.989501,13807
1659514508.028118,13804
1659514508.070665,13817
1659514508.113211,13818
1659514508.151145,13828
1659514508.189078,13822
1659514508.227011,13830
1659514508.268533,13846
1659514508.310054,13852
1659514508.349354,13863
1659514508.388654,13874
1659514508.427955,13882
1659514508.466571,13893
1659514508.505188,13905
1659514508.543805,13902
1659514508.586351,13910
1659514508.628898,13914
1659514508.668198,13919
1659514508.707499,13937
1659514508.746799,13957
1659514508.787808,13966
1659514508.828817,13979
1659514508.867433,13977
1659514508.90605,13977
1659514508.944667,13980
1659514508.987213,13970
1659514509.02976,13950
1659514509.073845,13936
1659514509.117929,13932
1659514509.162014,13930
1659514509.194309,13937
1659514509.226603,13942
1659514509.271371,13931
1659514509.316139,13910
1659514509.360907,13922
1659514509.399866,13938
1659514509.438824,13947
1659514509.477782,13987
1659514509.519817,14050
1659514509.561851,14088
1659514509.601151,14116
1659514509.640451,14146
1659514509.679751,14173
1659514509.721785,14181
1659514509.763819,14173
1659514509.802436,14171
1659514509.841053,14173
1659514509.87967,14174
1659514509.922216,14171
1659514509.964763,14181
1659514510.00338,14179
1659514510.041996,14171
1659514510.080613,14177
1659514510.118888,14170
1659514510.157163,14175
1659514510.195438,14166
1659514510.236447,14187
1659514510.277456,14201
1659514510.316756,14210
1659514510.356056,14245
1659514510.395357,14252
1659514510.433973,14271
1659514510.47259,14265
1659514510.511207,14285
1659514510.552728,14295
1659514510.59425,14308
1659514510.635259,14316
1659514510.676268,14316
1659514510.715568,14314
1659514510.754868,14322
1659514510.794168,14328
1659514510.838253,14346
1659514510.882337,14342
1659514510.926422,14326
1659514510.960254,14331
1659514510.994087,14349
1659514511.037829,14361
1659514511.081572,14367
1659514511.125315,14366
1659514511.162736,14377
1659514511.200156,14369
1659514511.237577,14372
1659514511.274997,14381
1659514511.316519,14387
1659514511.358041,14388
1659514511.396316,14390
1659514511.43459,14402
1659514511.472865,14415
1659514511.514899,14430
1659514511.556934,14432
1659514511.596575,14437
1659514511.636218,14445
1659514511.675859,14458
1659514511.716868,14457
1659514511.757877,14458
1659514511.796152,14466
1659514511.834427,14473
1659514511.872702,14483
1659514511.918154,14480
1659514511.963605,14504
1659514512.009057,14509
1659514512.051091,14528
1659514512.093125,14549
1659514512.1314,14556
1659514512.169675,14568
1659514512.20795,14581
1659514512.249471,14599
1659514512.290993,14597
1659514512.32961,14602
1659514512.368226,14624
1659514512.406843,14632
1659514512.445801,14642
1659514512.48476,14640
1659514512.523718,14646
1659514512.565753,14651
1659514512.607787,14671
1659514512.646403,14666
1659514512.68502,14682
1659514512.723637,14694
1659514512.764646,14711
1659514512.805655,14713
1659514512.845638,14722
1659514512.885622,14731
1659514512.925606,14730
1659514512.964222,14720
1659514513.002839,14708
1659514513.041456,14691
1659514513.082465,14692
1659514513.123474,14689
1659514513.162774,14695
1659514513.202074,14691
1659514513.241374,14704
1659514513.283408,14714
1659514513.325443,14710
1659514513.363717,14711
1659514513.401992,14718
1659514513.440267,14723
1659514513.481276,14731
1659514513.522285,14728
1659514513.566711,14732
1659514513.611138,14744
1659514513.655564,14748
1659514513.693497,14743
1659514513.731431,14735
1659514513.769364,14744
1659514513.811911,14748
1659514513.854457,14749
1659514513.893416,14748
1659514513.932374,14752
1659514513.971333,14756
1659514514.012341,14758
1659514514.05335,14763
1659514514.092309,14763
1659514514.131267,14764
1659514514.170226,14763
1659514514.209184,14766
1659514514.248143,14764
1659514514.287101,14766
1659514514.328623,14771
1659514514.370144,14769
1659514514.408761,14765
1659514514.447378,14766
1659514514.485994,14755
1659514514.527516,14768
1659514514.569037,14771
1659514514.607312,14773
1659514514.645587,14774
1659514514.683862,14785
1659514514.722137,14785
1659514514.760412,14790
1659514514.798687,14785
1659514514.840721,14789
1659514514.882756,14806
1659514514.924277,14794
1659514514.965798,14808
1659514515.004757,14795
1659514515.043715,14812
1659514515.082674,14809
1659514515.127784,14827
1659514515.172893,14815
1659514515.218003,14804
1659514515.251836,14813
1659514515.285668,14818
1659514515.330094,14805
1659514515.374521,14799
1659514515.418947,14809
1659514515.451754,14804
1659514515.484561,14806
1659514515.528987,14794
1659514515.573414,14790
1659514515.61784,14794
1659514515.656457,14781
1659514515.695073,14780
1659514515.73369,14776
1659514515.776237,14784
1659514515.818784,14785
1659514515.8574,14795
1659514515.896017,14807
1659514515.934634,14817
1659514515.972909,14847
1659514516.011184,14852
1659514516.049459,14873
1659514516.09098,14878
1659514516.132502,14877
1659514516.172143,14876
1659514516.211786,14890
1659514516.251427,14907
1659514516.289702,14908
1659514516.327977,14917
1659514516.366252,14916
1659514516.411021,14930
1659514516.455788,14925
1659514516.500556,14936
1659514516.542078,14957
1659514516.5836,14946
1659514516.621875,14947
1659514516.66015,14954
1659514516.698424,14961
1659514516.737383,14957
1659514516.776341,14967
1659514516.8153,14971
1659514516.857334,14972
1659514516.899368,14985
1659514516.937301,14976
1659514516.975235,14980
1659514517.013168,14985
1659514517.052126,14989
1659514517.091085,14985
1659514517.130043,14995
1659514517.171565,15002
1659514517.213086,14989
1659514517.251361,14995
1659514517.289636,14997
1659514517.327911,14985
1659514517.370458,14989
1659514517.413005,14987
1659514517.451963,14986
1659514517.490921,14992
1659514517.52988,14986
1659514517.570889,14993
1659514517.611898,14998
1659514517.650514,14988
1659514517.689131,15004
1659514517.727748,14993
1659514517.770295,14995
1659514517.812841,14994
1659514517.856926,14986
1659514517.901011,14981
1659514517.945095,14973
1659514517.984053,14967
1659514518.023012,14967
1659514518.06197,14976
1659514518.103492,14969
1659514518.145013,14965
1659514518.183288,14966
1659514518.221563,14968
1659514518.259838,14965
1659514518.29948,14955
1659514518.339122,14956
1659514518.378764,14956
1659514518.420798,14964
1659514518.462832,14956
1659514518.501449,14961
1659514518.540066,14961
1659514518.578682,14967
1659514518.620717,14965
1659514518.662751,14971
1659514518.702393,14966
1659514518.742035,14968
1659514518.781677,14981
1659514518.820293,14986
1659514518.85891,14983
1659514518.897527,14982
1659514518.938023,14983
1659514518.978519,14985
1659514519.017478,14974
1659514519.056436,14980
1659514519.095395,14974
1659514519.137429,14986
1659514519.179463,14995
1659514519.21808,14983
1659514519.256696,14991
1659514519.295313,14988
1659514519.336322,14999
1659514519.377331,14982
1659514519.422099,14983
1659514519.466867,14994
1659514519.511635,14987
1659514519.544955,14988
1659514519.578274,14996
1659514519.623043,14988
1659514519.66781,14987
1659514519.712579,15002
1659514519.751195,14993
1659514519.789812,14993
1659514519.828429,14993
1659514519.86995,14997
1659514519.911472,14995
1659514519.950089,15004
1659514519.988705,15000
1659514520.027322,14991
1659514520.065939,14999
1659514520.104555,15000
1659514520.143172,15001
1659514520.181447,14993
1659514520.219722,14998
1659514520.257997,14998
1659514520.300031,14996
1659514520.342065,14999
1659514520.381024,15000
1659514520.419982,15010
1659514520.458941,15005
1659514520.499949,15015
1659514520.540958,15022
1659514520.579575,15021
1659514520.618192,15037
1659514520.656808,15039
1659514520.699355,15044
1659514520.741902,15041
1659514520.785986,15047
1659514520.830071,15047
1659514520.874156,15054
1659514520.907475,15049
1659514520.940795,15055
1659514520.985221,15057
1659514521.029648,15050
1659514521.074074,15054
1659514521.113033,15048
1659514521.151991,15052
1659514521.190949,15052
1659514521.232471,15061
1659514521.273993,15052
1659514521.313293,15054
1659514521.352593,15063
1659514521.391893,15051
1659514521.430168,15058
1659514521.468443,15054
1659514521.506718,15061
1659514521.548239,15060
1659514521.589761,15061
1659514521.63036,15062
1659514521.670959,15058
1659514521.711557,15054
1659514521.752156,15053
1659514521.792755,15072
1659514521.83103,15056
1659514521.869305,15055
1659514521.90758,15054
1659514521.950127,15061
1659514521.992673,15062
1659514522.031974,15061
1659514522.071274,15066
1659514522.110574,15059
1659514522.15107,15076
1659514522.191566,15075
1659514522.230525,15065
1659514522.269484,15071
1659514522.308442,15069
1659514522.349451,15078
1659514522.39046,15070
1659514522.429076,15074
1659514522.467693,15076
1659514522.50631,15088
1659514522.547831,15080
1659514522.589353,15089
1659514522.62797,15089
1659514522.666586,15083
1659514522.705203,15086
1659514522.749288,15091
1659514522.793372,15091
1659514522.837457,15085
1659514522.871289,15097
1659514522.905121,15091
1659514522.949889,15106
1659514522.994658,15094
1659514523.039426,15084
1659514523.077701,15097
1659514523.115976,15098
1659514523.15425,15094
1659514523.196285,15089
1659514523.238319,15098
1659514523.276935,15084
1659514523.315552,15101
1659514523.354169,15090
1659514523.39569,15096
1659514523.437212,15102
1659514523.475829,15101
1659514523.514445,15096
1659514523.553062,15099
1659514523.592021,15107
1659514523.630979,15108
1659514523.669937,15096
1659514523.710434,15107
1659514523.75093,15113
1659514523.789888,15112
1659514523.828847,15099
1659514523.867805,15106
1659514523.910352,15100
1659514523.952899,15100
1659514523.991515,15105
1659514524.030132,15110
1659514524.068749,15115
1659514524.109758,15106
1659514524.150767,15110
1659514524.190067,15109
1659514524.229367,15118
1659514524.268667,15111
1659514524.310701,15105
1659514524.352736,15116
1659514524.397162,15110
1659514524.441588,15119
1659514524.486015,15112
1659514524.524973,15111
1659514524.563931,15111
1659514524.60289,15125
1659514524.643899,15107
1659514524.684908,15113
1659514524.723183,15122
1659514524.761458,15115
1659514524.799733,15110
1659514524.842279,15113
1659514524.884826,15119
1659514524.923784,15116
1659514524.962743,15137
1659514525.001701,15140
1659514525.04066,15127
1659514525.079618,15128
1659514525.118577,15137
1659514525.160098,15135
1659514525.20162,15147
1659514525.24092,15149
1659514525.28022,15148
1659514525.31952,15152
1659514525.361042,15151
1659514525.402563,15154
1659514525.44118,15162
1659514525.479797,15160
1659514525.518414,15173
1659514525.557372,15169
1659514525.59633,15164
1659514525.635289,15167
1659514525.675785,15177
1659514525.716281,15171
1659514525.75524,15164
1659514525.794199,15178
1659514525.833157,15178
1659514525.874678,15179
1659514525.9162,15171
1659514525.959943,15174
1659514526.003685,15176
1659514526.047428,15169
1659514526.080235,15173
1659514526.113043,15174
1659514526.157811,15181
1659514526.202579,15180
1659514526.247347,15187
1659514526.286647,15180
1659514526.325947,15180
1659514526.365247,15185
1659514526.406256,15183
1659514526.447265,15180
1659514526.486223,15184
1659514526.525182,15186
1659514526.564141,15186
1659514526.605149,15184
1659514526.646158,15189
1659514526.684775,15191
1659514526.723392,15194
1659514526.762008,15193
1659514526.801309,15190
1659514526.840609,15186
1659514526.879909,15185
1659514526.918184,15191
1659514526.956459,15197
1659514526.994734,15187
1659514527.03523,15187
1659514527.075727,15197
1659514527.115368,15200
1659514527.15501,15193
1659514527.194652,15200
1659514527.239079,15190
1659514527.283505,15201
1659514527.327931,15205
1659514527.369965,15185
1659514527.411999,15200
1659514527.451641,15197
1659514527.491283,15202
1659514527.530925,15212
1659514527.572447,15194
1659514527.613968,15201
1659514527.651901,15195
1659514527.689835,15210
1659514527.727768,15196
1659514527.767068,15206
1659514527.806368,15202
1659514527.845669,15208
1659514527.887703,15206
1659514527.929737,15206
1659514527.968354,15219
1659514528.00697,15209
1659514528.045587,15212
1659514528.084204,15204
1659514528.12282,15220
1659514528.161437,15213
1659514528.202446,15223
1659514528.243455,15221
1659514528.282413,15215
1659514528.321372,15238
1659514528.36033,15220
1659514528.402364,15219
1659514528.444399,15215
1659514528.483357,15218
1659514528.522316,15221
1659514528.561274,15229
1659514528.602795,15223
1659514528.644317,15228
1659514528.688743,15231
1659514528.73317,15230
1659514528.777596,15224
1659514528.811428,15228
1659514528.845261,15228
1659514528.889003,15224
1659514528.932746,15224
1659514528.976489,15227
1659514529.015447,15226
1659514529.054406,15224
1659514529.093364,15220
1659514529.134373,15235
1659514529.175382,15223
1659514529.214341,15217
1659514529.253299,15220
1659514529.292258,15229
1659514529.332754,15228
1659514529.37325,15221
1659514529.41255,15226
1659514529.45185,15222
1659514529.491151,15235
1659514529.529768,15227
1659514529.568384,15220
1659514529.607001,15232
1659514529.649035,15228
1659514529.691069,15231
1659514529.730027,15230
1659514529.768986,15233
1659514529.807945,15221
1659514529.849466,15246
1659514529.890987,15226
1659514529.929262,15223
1659514529.967537,15232
1659514530.005812,15240
1659514530.045113,15229
1659514530.084413,15227
1659514530.123713,15233
1659514530.165747,15236
1659514530.207781,15235
1659514530.251866,15229
1659514530.29595,15234
1659514530.340035,15232
1659514530.372842,15227
1659514530.405649,15230
1659514530.450417,15236
1659514530.495185,15243
1659514530.539953,15241
1659514530.573273,15238
1659514530.606593,15238
1659514530.651361,15242
1659514530.696129,15248
1659514530.740897,15244
1659514530.774729,15251
1659514530.808562,15246
1659514530.852646,15244
1659514530.896731,15251
1659514530.940815,15247
1659514530.979432,15246
1659514531.018049,15262
1659514531.056665,15258
1659514531.098443,15246
1659514531.140221,15258
1659514531.181999,15252
1659514531.223777,15246
1659514531.262393,15245
1659514531.30101,15247
1659514531.339627,15249
1659514531.382174,15242
1659514531.42472,15248
1659514531.463337,15247
1659514531.501954,15257
1659514531.54057,15251
1659514531.582092,15263
1659514531.623614,15254
1659514531.662914,15259
1659514531.702214,15266
1659514531.741514,15265
1659514531.780131,15259
1659514531.818748,15265
1659514531.857364,15260
1659514531.898886,15264
1659514531.940407,15265
1659514531.980049,15262
1659514532.019691,15269
1659514532.059333,15264
1659514532.099829,15261
1659514532.140326,15258
1659514532.178259,15273
1659514532.216192,15261
1659514532.254125,15256
1659514532.296672,15270
1659514532.339219,15272
1659514532.377494,15262
1659514532.415769,15266
1659514532.454044,15268
1659514532.497787,15271
1659514532.541529,15269
1659514532.585272,15270
1659514532.618592,15272
1659514532.651912,15270
1659514532.69668,15283
1659514532.741448,15281
1659514532.786216,15276
1659514532.819023,15276
1659514532.85183,15271
1659514532.89694,15280
1659514532.94205,15286
1659514532.987159,15277
1659514533.026118,15283
1659514533.065076,15286
1659514533.104035,15285
1659514533.145044,15286
1659514533.186053,15289
1659514533.225011,15291
1659514533.263969,15290
1659514533.302928,15285
1659514533.344962,15292
1659514533.386996,15286
1659514533.425271,15281
1659514533.463546,15297
1659514533.501821,15292
1659514533.54078,15287
1659514533.579738,15292
1659514533.618696,15284
1659514533.660218,15285
1659514533.70174,15297
1659514533.740698,15290
1659514533.779656,15285
1659514533.818615,15292
1659514533.860136,15287
1659514533.901658,15294
1659514533.940616,15294
1659514533.979575,15293
1659514534.018533,15291
1659514534.060055,15287
1659514534.101576,15292
1659514534.140877,15287
1659514534.180177,15291
1659514534.219477,15303
1659514534.261511,15293
1659514534.303545,15300
1659514534.342162,15291
1659514534.380779,15308
1659514534.419395,15289
1659514534.46348,15291
1659514534.507564,15299
1659514534.551649,15292
1659514534.59317,15293
1659514534.634692,15295
1659514534.673651,15303
1659514534.712609,15304
1659514534.751567,15305
1659514534.792576,15295
1659514534.833585,15292
1659514534.872885,15299
1659514534.912185,15308
1659514534.951486,15299
1659514534.990102,15297
1659514535.028719,15300
1659514535.067336,15297
1659514535.108857,15316
1659514535.150379,15310
1659514535.189337,15308
1659514535.228296,15313
1659514535.267254,15308
1659514535.308776,15299
1659514535.350297,15303
1659514535.388914,15308
1659514535.427531,15301
1659514535.466147,15301
1659514535.504422,15303
1659514535.542697,15304
1659514535.580972,15298
1659514535.623519,15294
1659514535.666066,15302
1659514535.703999,15297
1659514535.741932,15293
1659514535.779866,15294
1659514535.820362,15295
1659514535.860858,15297
1659514535.900158,15300
1659514535.939458,15294
1659514535.978759,15294
1659514536.02028,15301
1659514536.061802,15297
1659514536.106228,15304
1659514536.150654,15294
1659514536.195081,15300
1659514536.234381,15295
1659514536.273681,15313
1659514536.312981,15303
1659514536.354503,15298
1659514536.396024,15312
1659514536.434641,15297
1659514536.473258,15298
1659514536.511874,15303
1659514536.554421,15308
1659514536.596968,15302
1659514536.635585,15308
1659514536.674201,15305
1659514536.712818,15305
1659514536.751093,15294
1659514536.789368,15302
1659514536.827643,15309
1659514536.869677,15300
1659514536.911711,15306
1659514536.950328,15298
1659514536.988945,15307
1659514537.027561,15307
1659514537.066861,15312
1659514537.106162,15312
1659514537.145462,15307
1659514537.187496,15305
1659514537.22953,15314
1659514537.268147,15317
1659514537.306763,15315
1659514537.34538,15304
1659514537.386902,15307
1659514537.428423,15314
1659514537.473533,15304
1659514537.518643,15301
1659514537.563753,15312
1659514537.597072,15305
1659514537.630392,15302
1659514537.674135,15307
1659514537.717878,15302
1659514537.761621,15302
1659514537.79494,15304
1659514537.82826,15307
1659514537.872686,15310
1659514537.917113,15303
1659514537.961539,15310
1659514538.000156,15302
1659514538.038772,15319
1659514538.077389,15315
1659514538.118911,15307
1659514538.160432,15317
1659514538.199391,15311
1659514538.238349,15315
1659514538.277308,15316
1659514538.315924,15311
1659514538.354541,15313
1659514538.393157,15310
1659514538.435192,15315
1659514538.477226,15307
1659514538.516184,15312
1659514538.555143,15323
1659514538.594101,15322
1659514538.63511,15311
1659514538.676119,15313
1659514538.714736,15316
1659514538.753352,15316
1659514538.791969,15309
1659514538.830586,15308
1659514538.869203,15326
1659514538.907819,15315
1659514538.949853,15318
1659514538.991888,15316
1659514539.032897,15304
1659514539.073905,15322
1659514539.112522,15309
1659514539.151139,15305
1659514539.189755,15306
1659514539.23384,15307
1659514539.277925,15306
1659514539.322009,15320
1659514539.355841,15314
1659514539.389674,15312
1659514539.434784,15323
1659514539.479893,15318
1659514539.525003,15311
1659514539.558323,15308
1659514539.591643,15322
1659514539.635727,15307
1659514539.679812,15318
1659514539.723896,15318
1659514539.762855,15306
1659514539.801813,15321
1659514539.840772,15317
1659514539.882806,15319
1659514539.92484,15316
1659514539.963457,15314
1659514540.002074,15315
1659514540.04069,15317
1659514540.082212,15322
1659514540.123733,15309
1659514540.162692,15317
1659514540.20165,15318
1659514540.240608,15327
1659514540.279225,15316
1659514540.317842,15315
1659514540.356459,15322
1659514540.398493,15319
1659514540.440527,15328
1659514540.480169,15317
1659514540.519811,15327
1659514540.559453,15320
1659514540.600462,15338
1659514540.64147,15325
1659514540.680429,15318
1659514540.719388,15331
1659514540.758346,15330
1659514540.801405,15326
1659514540.844465,15317
1659514540.88274,15321
1659514540.921015,15313
1659514540.95929,15330
1659514540.999786,15319
1659514541.040282,15324
1659514541.084708,15325
1659514541.129135,15327
1659514541.173561,15324
1659514541.212178,15326
1659514541.250794,15336
1659514541.289411,15332
1659514541.331445,15328
1659514541.373479,15333
1659514541.412096,15332
1659514541.450713,15336
1659514541.48933,15344
1659514541.527605,15341
1659514541.565879,15339
1659514541.604154,15338
1659514541.645163,15330
1659514541.686172,15332
1659514541.726156,15330
1659514541.76614,15335
1659514541.806123,15336
1659514541.847132,15330
1659514541.888141,15345
1659514541.926758,15335
1659514541.965374,15323
1659514542.003991,15333
1659514542.04295,15339
1659514542.081908,15340
1659514542.120867,15333
1659514542.162901,15338
1659514542.204935,15330
1659514542.243551,15344
1659514542.282168,15340
1659514542.320785,15333
1659514542.362306,15339
1659514542.403828,15344
1659514542.442103,15342
1659514542.480378,15347
1659514542.518653,15343
1659514542.560687,15324
1659514542.602721,15333
1659514542.647147,15340
1659514542.691574,15332
1659514542.736,15342
1659514542.773164,15344
1659514542.810329,15347
1659514542.847493,15340
1659514542.884657,15340
1659514542.924299,15346
1659514542.963941,15343
1659514543.003583,15345
1659514543.045617,15339
1659514543.087651,15354
1659514543.126268,15343
1659514543.164885,15342
1659514543.203501,15336
1659514543.24451,15342
1659514543.285519,15345
1659514543.330287,15339
1659514543.375055,15336
1659514543.419823,15342
1659514543.453143,15343
1659514543.486463,15346
1659514543.530889,15354
1659514543.575315,15340
1659514543.619742,15342
1659514543.652549,15349
1659514543.685356,15357
1659514543.729782,15344
1659514543.774209,15352
1659514543.818635,15355
1659514543.857594,15350
1659514543.896552,15361
1659514543.93551,15350
1659514543.977545,15358
1659514544.019579,15354
1659514544.058195,15355
1659514544.096812,15355
1659514544.135429,15362
1659514544.17695,15359
1659514544.218472,15360
1659514544.257772,15359
1659514544.297072,15360
1659514544.336372,15374
1659514544.374989,15356
1659514544.413606,15354
1659514544.452223,15358
1659514544.492719,15364
1659514544.533215,15373
1659514544.571832,15364
1659514544.610449,15364
1659514544.649065,15360
1659514544.691099,15371
1659514544.733134,15374
1659514544.77175,15366
1659514544.810367,15362
1659514544.848984,15372
1659514544.890505,15368
1659514544.932027,15370
1659514544.970985,15368
1659514545.009943,15374
1659514545.048902,15380
1659514545.092987,15368
1659514545.137071,15375
1659514545.181156,15368
1659514545.214475,15364
1659514545.247795,15356
1659514545.292563,15360
1659514545.337331,15356
1659514545.382099,15355
1659514545.414907,15353
1659514545.447714,15350
1659514545.491456,15358
1659514545.535199,15359
1659514545.578942,15347
1659514545.6179,15353
1659514545.656859,15342
1659514545.695817,15336
1659514545.737852,15338
1659514545.779886,15346
1659514545.818161,15335
1659514545.856436,15348
1659514545.894711,15335
1659514545.936232,15337
1659514545.977754,15334
1659514546.017054,15317
1659514546.056354,15309
1659514546.095654,15307
1659514546.134271,15290
1659514546.172888,15281
1659514546.211504,15289
1659514546.254564,15287
1659514546.297623,15292
1659514546.336581,15293
1659514546.37554,15299
1659514546.414498,15298
1659514546.455507,15314
1659514546.496516,15306
1659514546.535816,15295
1659514546.575117,15303
1659514546.614417,15312
1659514546.656451,15308
1659514546.698485,15321
1659514546.736418,15314
1659514546.774351,15322
1659514546.812285,15318
1659514546.853806,15317
1659514546.895328,15326
1659514546.939754,15319
1659514546.98418,15313
1659514547.028607,15319
1659514547.066882,15317
1659514547.105157,15322
1659514547.143432,15329
1659514547.185466,15327
1659514547.2275,15327
1659514547.2668,15324
1659514547.3061,15329
1659514547.3454,15330
1659514547.383675,15336
1659514547.42195,15327
1659514547.460225,15330
1659514547.502259,15330
1659514547.544294,15336
1659514547.583594,15330
1659514547.622894,15335
1659514547.662194,15333
1659514547.70269,15336
1659514547.743187,15334
1659514547.781803,15343
1659514547.82042,15342
1659514547.859037,15332
1659514547.897654,15328
1659514547.93627,15344
1659514547.974887,15335
1659514548.016408,15338
1659514548.05793,15333
1659514548.096547,15345
1659514548.135164,15338
1659514548.17378,15345
1659514548.215814,15344
1659514548.257849,15351
1659514548.301933,15358
1659514548.346018,15356
1659514548.390102,15359
1659514548.423422,15350
1659514548.456742,15355
1659514548.501851,15357
1659514548.546961,15360
1659514548.592071,15362
1659514548.630688,15368
1659514548.669304,15365
1659514548.707921,15362
1659514548.749443,15375
1659514548.790964,15364
1659514548.829922,15366
1659514548.868881,15363
1659514548.90784,15372
1659514548.949361,15363
1659514548.990882,15371
1659514549.029499,15372
1659514549.068116,15370
1659514549.106733,15381
1659514549.145691,15376
1659514549.184649,15376
1659514549.223608,15380
1659514549.264617,15380
1659514549.305626,15383
1659514549.344584,15374
1659514549.383543,15380
1659514549.422501,15378
1659514549.461801,15386
1659514549.501101,15385
1659514549.540402,15378
1659514549.582948,15385
1659514549.625495,15383
1659514549.664112,15381
1659514549.702729,15375
1659514549.741345,15376
1659514549.782867,15370
1659514549.824388,15380
1659514549.868815,15379
1659514549.913241,15377
1659514549.957667,15383
1659514549.996284,15385
1659514550.034901,15391
1659514550.073517,15383
1659514550.115551,15384
1659514550.157586,15373
1659514550.196544,15390
1659514550.235502,15378
1659514550.274461,15382
1659514550.314957,15389
1659514550.355453,15386
1659514550.394412,15389
1659514550.433371,15382
1659514550.472329,15392
1659514550.511971,15380
1659514550.551613,15382
1659514550.591255,15386
1659514550.632264,15390
1659514550.673273,15399
1659514550.711889,15391
1659514550.750506,15405
1659514550.789123,15390
1659514550.831157,15400
1659514550.873191,15411
1659514550.912149,15400
1659514550.951108,15406
1659514550.990066,15407
1659514551.028683,15405
1659514551.0673,15412
1659514551.105917,15411
1659514551.147438,15407
1659514551.18896,15418
1659514551.229456,15411
1659514551.269952,15406
1659514551.308569,15411
1659514551.347186,15418
1659514551.385802,15420
1659514551.43057,15421
1659514551.475338,15426
1659514551.520106,15430
1659514551.552913,15420
1659514551.585721,15427
1659514551.630147,15425
1659514551.674573,15432
1659514551.719,15428
1659514551.753345,15425
1659514551.787689,15420
1659514551.832458,15416
1659514551.877226,15420
1659514551.921993,15412
1659514551.960268,15404
1659514551.998544,15406
1659514552.036819,15407
1659514552.078853,15414
1659514552.120887,15405
1659514552.159503,15402
1659514552.19812,15402
1659514552.236737,15405
1659514552.275354,15402
1659514552.31397,15403
1659514552.352587,15402
1659514552.395134,15416
1659514552.43768,15399
1659514552.476297,15402
1659514552.514914,15412
1659514552.553531,15406
1659514552.594027,15405
1659514552.634523,15407
1659514552.673823,15417
1659514552.713124,15410
1659514552.752424,15415
1659514552.794971,15411
1659514552.837517,15417
1659514552.876134,15423
1659514552.914751,15419
1659514552.953367,15418
1659514552.994889,15420
1659514553.03641,15423
1659514553.075369,15428
1659514553.114327,15429
1659514553.153286,15423
1659514553.194551,15430
1659514553.235816,15433
1659514553.277081,15433
1659514553.318347,15431
1659514553.359868,15430
1659514553.40139,15442
1659514553.440348,15433
1659514553.479306,15438
1659514553.518265,15431
1659514553.559274,15439
1659514553.600283,15435
1659514553.6389,15429
1659514553.677516,15435
1659514553.716133,15420
1659514553.755091,15427
1659514553.79405,15425
1659514553.833008,15425
1659514553.87453,15429
1659514553.916051,15432
1659514553.95501,15424
1659514553.993968,15421
1659514554.032927,15427
1659514554.074448,15428
1659514554.11597,15435
1659514554.160396,15421
1659514554.204822,15425
1659514554.249249,15428
1659514554.282568,15436
1659514554.315888,15435
1659514554.360656,15434
1659514554.405424,15431
1659514554.450192,15442
1659514554.488467,15442
1659514554.526742,15440
1659514554.565017,15440
1659514554.606026,15448
1659514554.647035,15444
1659514554.685652,15444
1659514554.724268,15452
1659514554.762885,15443
1659514554.801844,15439
1659514554.840802,15453
1659514554.879761,15447
1659514554.921282,15454
1659514554.962804,15453
1659514555.002445,15444
1659514555.042087,15453
1659514555.081729,15458
1659514555.123251,15459
1659514555.164772,15461
1659514555.203389,15457
1659514555.242006,15454
1659514555.280622,15465
1659514555.319923,15459
1659514555.359223,15473
1659514555.398523,15458
1659514555.440557,15463
1659514555.482591,15462
1659514555.520525,15461
1659514555.558458,15467
1659514555.596391,15461
1659514555.638425,15469
1659514555.680459,15469
1659514555.724544,15459
1659514555.768628,15467
1659514555.812713,15465
1659514555.846033,15468
1659514555.879352,15469
1659514555.923779,15471
1659514555.968205,15467
1659514556.012631,15471
1659514556.046464,15472
1659514556.080296,15466
1659514556.124381,15470
1659514556.168465,15469
1659514556.21255,15473
1659514556.25185,15477
1659514556.29115,15474
1659514556.33045,15476
1659514556.372484,15482
1659514556.414519,15483
1659514556.452794,15485
1659514556.491068,15486
1659514556.529343,15479
1659514556.570352,15473
1659514556.611361,15471
1659514556.650661,15461
1659514556.689962,15458
1659514556.729262,15459
1659514556.767879,15453
1659514556.806495,15451
1659514556.845112,15457
1659514556.886633,15462
1659514556.928155,15476
1659514556.966772,15470
1659514557.005388,15473
1659514557.044005,15473
1659514557.085014,15473
1659514557.126023,15475
1659514557.164981,15474
1659514557.20394,15470
1659514557.242898,15473
1659514557.28442,15475
1659514557.325941,15476
1659514557.364558,15463
1659514557.403175,15462
1659514557.441792,15455
1659514557.483313,15448
1659514557.524834,15470
1659514557.564476,15455
1659514557.604118,15449
1659514557.64376,15457
1659514557.687845,15447
1659514557.73193,15451
1659514557.776014,15453
1659514557.81651,15458
1659514557.857007,15448
1659514557.896307,15458
1659514557.935607,15457
1659514557.974907,15462
1659514558.013182,15456
1659514558.051457,15452
1659514558.089732,15461
1659514558.132279,15453
1659514558.174825,15457
1659514558.214126,15453
1659514558.253426,15452
1659514558.292726,15448
1659514558.334248,15457
1659514558.375769,15448
1659514558.414386,15452
1659514558.453003,15462
1659514558.491619,15458
1659514558.53092,15463
1659514558.57022,15463
1659514558.60952,15462
1659514558.651554,15463
1659514558.693588,15467
1659514558.732205,15467
1659514558.770822,15461
1659514558.809438,15463
1659514558.850447,15469
1659514558.891456,15482
1659514558.930414,15464
1659514558.969373,15467
1659514559.008332,15458
1659514559.049853,15465
1659514559.091374,15460
1659514559.129991,15459
1659514559.168608,15463
1659514559.207225,15456
1659514559.251651,15469
1659514559.296077,15455
1659514559.340503,15456
1659514559.382025,15464
1659514559.423547,15464
1659514559.462505,15470
1659514559.501463,15464
1659514559.540422,15470
1659514559.582969,15466
1659514559.625515,15478
1659514559.664132,15470
1659514559.702749,15464
1659514559.741365,15475
1659514559.780324,15473
1659514559.819283,15469
1659514559.858241,15460
1659514559.89925,15475
1659514559.940259,15475
1659514559.978875,15471
1659514560.017492,15472
1659514560.056109,15461
1659514560.094726,15471
1659514560.133342,15466
1659514560.171959,15464
1659514560.213993,15468
1659514560.256027,15469
1659514560.294302,15470
1659514560.332577,15471
1659514560.370852,15463
1659514560.411861,15465
1659514560.45287,15470
1659514560.492854,15468
1659514560.532837,15478
1659514560.572821,15464
1659514560.616905,15470
1659514560.66099,15476
1659514560.705075,15475
1659514560.746083,15476
1659514560.787092,15479
1659514560.826734,15478
1659514560.866376,15485
1659514560.906018,15480
1659514560.944293,15467
1659514560.982568,15453
1659514561.020843,15459
1659514561.062877,15458
1659514561.104911,15461
1659514561.144212,15466
1659514561.183512,15471
1659514561.222812,15461
1659514561.263821,15480
1659514561.30483,15464
1659514561.342763,15474
1659514561.380696,15476
1659514561.418629,15473
1659514561.458272,15473
1659514561.497913,15473
1659514561.537555,15478
1659514561.579589,15478
1659514561.621624,15471
1659514561.660582,15475
1659514561.69954,15484
1659514561.738499,15481
1659514561.78002,15478
1659514561.821542,15470
1659514561.860842,15465
1659514561.900142,15470
1659514561.939443,15471
1659514561.980964,15465
1659514562.022485,15462
1659514562.067254,15475
1659514562.112022,15477
1659514562.15679,15473
1659514562.189597,15471
1659514562.222404,15482
1659514562.266147,15474
1659514562.30989,15474
1659514562.353632,15474
1659514562.392591,15469
1659514562.431549,15483
1659514562.470508,15478
1659514562.513055,15481
1659514562.555601,15478
1659514562.593534,15477
1659514562.631468,15480
1659514562.669401,15484
1659514562.711435,15463
1659514562.753469,15447
1659514562.792428,15455
1659514562.831386,15465
1659514562.870345,15479
1659514562.908961,15459
1659514562.947578,15463
1659514562.986195,15475
1659514563.027716,15476
1659514563.069238,15471
1659514563.108196,15472
1659514563.147155,15477
1659514563.186113,15473
1659514563.224388,15485
1659514563.262663,15479
1659514563.300938,15476
1659514563.341947,15486
1659514563.382956,15479
1659514563.422256,15478
1659514563.461556,15483
1659514563.500856,15482
1659514563.542378,15484
1659514563.583899,15471
1659514563.627984,15453
1659514563.672069,15458
1659514563.716153,15468
1659514563.75383,15467
1659514563.791507,15479
1659514563.829184,15471
1659514563.866861,15469
1659514563.905819,15477
1659514563.944778,15492
1659514563.983736,15484
1659514564.025258,15483
1659514564.066779,15490
1659514564.106079,15490
1659514564.14538,15489
1659514564.18468,15489
1659514564.226714,15489
1659514564.268748,15493
1659514564.312833,15486
1659514564.356917,15489
1659514564.401002,15484
1659514564.433809,15498
1659514564.466616,15492
1659514564.5107,15495
1659514564.554785,15479
1659514564.59887,15487
1659514564.637486,15496
1659514564.676103,15492
1659514564.71472,15493
1659514564.756754,15494
1659514564.798788,15495
1659514564.837747,15493
1659514564.876705,15507
1659514564.915663,15502
1659514564.954622,15498
1659514564.99358,15514
1659514565.032539,15504
1659514565.074573,15507
1659514565.116607,15502
1659514565.155907,15507
1659514565.195207,15507
1659514565.234508,15513
1659514565.276029,15515
1659514565.317551,15519
1659514565.356509,15513
1659514565.395468,15505
1659514565.434426,15509
1659514565.472701,15515
1659514565.510976,15508
1659514565.549251,15506
1659514565.590772,15523
1659514565.632294,15524
1659514565.671594,15517
1659514565.710894,15531
1659514565.750195,15525
1659514565.790691,15534
1659514565.831187,15519
1659514565.87493,15523
1659514565.918673,15540
1659514565.962416,15525
1659514565.996248,15525
1659514566.03008,15534
1659514566.074848,15532
1659514566.119616,15526
1659514566.164384,15547
1659514566.196679,15532
1659514566.228973,15535
1659514566.269162,15521
1659514566.309351,15516
1659514566.34954,15523
1659514566.389728,15515
1659514566.429917,15520
1659514566.474002,15514
1659514566.518086,15522
1659514566.562171,15534
1659514566.600787,15527
1659514566.639404,15533
1659514566.678021,15526
1659514566.719543,15538
1659514566.761064,15542
1659514566.798997,15525
1659514566.83693,15527
1659514566.874864,15531
1659514566.913822,15531
1659514566.95278,15530
1659514566.991739,15536
1659514567.033773,15524
1659514567.075807,15532
1659514567.114424,15530
1659514567.153041,15510
1659514567.191657,15483
1659514567.233691,15489
1659514567.275726,15507
1659514567.315026,15503
1659514567.354326,15519
1659514567.393626,15532
1659514567.435148,15551
1659514567.476669,15542
1659514567.515628,15542
1659514567.554586,15545
1659514567.593544,15552
1659514567.635066,15545
1659514567.676588,15542
1659514567.715204,15548
1659514567.753821,15548
1659514567.792438,15560
1659514567.836864,15554
1659514567.88129,15556
1659514567.925717,15563
1659514567.968263,15561
1659514568.01081,15562
1659514568.049085,15551
1659514568.08736,15535
1659514568.125635,15533
1659514568.167156,15542
1659514568.208678,15549
1659514568.247978,15542
1659514568.287278,15545
1659514568.326579,15541
1659514568.365195,15554
1659514568.403812,15541
1659514568.442429,15542
1659514568.484463,15548
1659514568.526497,15561
1659514568.56443,15547
1659514568.602364,15552
1659514568.640297,15565
1659514568.67823,15559
1659514568.722315,15556
1659514568.766399,15557
1659514568.810484,15561
1659514568.85098,15561
1659514568.891476,15541
1659514568.930435,15520
1659514568.969393,15523
1659514569.008352,15529
1659514569.046627,15542
1659514569.084902,15560
1659514569.123177,15556
1659514569.165211,15565
1659514569.207245,15567
1659514569.24552,15574
1659514569.283795,15579
1659514569.32207,15579
1659514569.364104,15584
1659514569.406138,15581
1659514569.444755,15591
1659514569.483371,15588
1659514569.521988,15590
1659514569.561288,15598
1659514569.600589,15598
1659514569.639889,15586
1659514569.681923,15585
1659514569.723957,15551
1659514569.762232,15523
1659514569.800507,15532
1659514569.838782,15529
1659514569.880303,15534
1659514569.921825,15553
1659514569.960783,15559
1659514569.999742,15565
1659514570.0387,15560
1659514570.080222,15570
1659514570.121743,15572
1659514570.16617,15573
1659514570.210596,15585
1659514570.255022,15593
1659514570.288342,15596
1659514570.321662,15596
1659514570.365746,15599
1659514570.409831,15601
1659514570.453915,15593
1659514570.492874,15596
1659514570.531832,15601
1659514570.570791,15592
1659514570.613338,15562
1659514570.655884,15546
1659514570.694501,15551
1659514570.733118,15562
1659514570.771734,15557
1659514570.813256,15556
1659514570.854777,15551
1659514570.892454,15542
1659514570.930131,15540
1659514570.967808,15534
1659514571.005485,15534
1659514571.047519,15520
1659514571.089553,15528
1659514571.128512,15529
1659514571.16747,15530
1659514571.206429,15535
1659514571.24795,15529
1659514571.289472,15544
1659514571.327747,15540
1659514571.366022,15539
1659514571.404297,15549
1659514571.449065,15557
1659514571.493833,15559
1659514571.538601,15560
1659514571.572946,15564
1659514571.607291,15574
1659514571.651375,15574
1659514571.69546,15568
1659514571.739544,15578
1659514571.780553,15580
1659514571.821562,15571
1659514571.861204,15564
1659514571.900846,15572
1659514571.940488,15574
1659514571.978421,15569
1659514572.016354,15578
1659514572.054288,15579
1659514572.096834,15584
1659514572.139381,15582
1659514572.177656,15594
1659514572.215931,15589
1659514572.254206,15592
1659514572.292139,15595
1659514572.330072,15594
1659514572.368006,15599
1659514572.409015,15601
1659514572.450023,15604
1659514572.488982,15603
1659514572.527941,15607
1659514572.566899,15599
1659514572.60842,15603
1659514572.649942,15599
1659514572.6889,15604
1659514572.727859,15600
1659514572.766817,15600
1659514572.811585,15617
1659514572.856353,15613
1659514572.901121,15599
1659514572.934441,15603
1659514572.967761,15606
1659514573.012187,15604
1659514573.056613,15609
1659514573.10104,15607
1659514573.143587,15603
1659514573.186133,15593
1659514573.224408,15599
1659514573.262683,15597
1659514573.300958,15606
1659514573.339233,15599
1659514573.377508,15611
1659514573.415783,15611
1659514573.457305,15617
1659514573.498826,15618
1659514573.538126,15619
1659514573.577426,15620
1659514573.616727,15623
1659514573.657736,15637
1659514573.698745,15624
1659514573.738045,15627
1659514573.777345,15631
1659514573.816645,15626
1659514573.855945,15617
1659514573.895246,15631
1659514573.934546,15633
1659514573.976067,15636
1659514574.017589,15632
1659514574.056547,15626
1659514574.095506,15633
1659514574.134464,15630
1659514574.177011,15632
1659514574.219558,15622
1659514574.257833,15615
1659514574.296108,15604
1659514574.334383,15603
1659514574.376417,15600
1659514574.418451,15605
1659514574.462877,15602
1659514574.507303,15608
1659514574.55173,15601
1659514574.584537,15612
1659514574.617344,15604
1659514574.661087,15608
1659514574.704829,15609
1659514574.748572,15624
1659514574.787531,15607
1659514574.826489,15615
1659514574.865448,15620
1659514574.907482,15627
1659514574.949516,15623
1659514574.988474,15615
1659514575.027433,15618
1659514575.066391,15623
1659514575.1074,15626
1659514575.148409,15616
1659514575.187709,15629
1659514575.22701,15628
1659514575.26631,15628
1659514575.304243,15634
1659514575.342176,15622
1659514575.380109,15635
1659514575.41941,15634
1659514575.45871,15636
1659514575.49801,15636
1659514575.541753,15640
1659514575.585496,15640
1659514575.629238,15638
1659514575.668197,15646
1659514575.707155,15652
1659514575.746114,15647
1659514575.787635,15631
1659514575.829157,15634
1659514575.867432,15645
1659514575.905707,15637
1659514575.943982,15640
1659514575.98294,15633
1659514576.021899,15641
1659514576.060857,15634
1659514576.103404,15638
1659514576.145951,15639
1659514576.184226,15648
1659514576.222501,15656
1659514576.260776,15648
1659514576.299734,15642
1659514576.338692,15648
1659514576.377651,15651
1659514576.419172,15651
1659514576.460694,15659
1659514576.498969,15653
1659514576.537244,15646
1659514576.575519,15657
1659514576.618066,15639
1659514576.660612,15655
1659514576.70538,15642
1659514576.750148,15646
1659514576.794916,15642
1659514576.827211,15649
1659514576.859505,15640
1659514576.90359,15638
1659514576.947675,15648
1659514576.991759,15652
1659514577.026104,15646
1659514577.060449,15641
1659514577.105217,15639
1659514577.149985,15651
1659514577.194753,15640
1659514577.233712,15631
1659514577.27267,15634
1659514577.311629,15631
1659514577.353663,15630
1659514577.395697,15632
1659514577.434314,15630
1659514577.47293,15627
1659514577.511547,15631
1659514577.553068,15628
1659514577.59459,15626
1659514577.633548,15633
1659514577.672507,15622
1659514577.711465,15627
1659514577.74974,15629
1659514577.788015,15633
1659514577.82629,15625
1659514577.864907,15629
1659514577.903524,15625
1659514577.94214,15637
1659514577.986567,15626
1659514578.030993,15631
1659514578.075419,15630
1659514578.108739,15641
1659514578.142059,15632
1659514578.186143,15631
1659514578.230228,15639
1659514578.274312,15639
1659514578.313613,15643
1659514578.352913,15635
1659514578.392213,15639
1659514578.433222,15640
1659514578.474231,15643
1659514578.513189,15651
1659514578.552148,15642
1659514578.591106,15643
1659514578.629381,15640
1659514578.667656,15641
1659514578.705931,15644
1659514578.748478,15646
1659514578.791025,15649
1659514578.8293,15643
1659514578.867574,15647
1659514578.905849,15650
1659514578.946858,15649
1659514578.987867,15643
1659514579.026826,15644
1659514579.065784,15655
1659514579.104743,15650
1659514579.146264,15658
1659514579.187786,15661
1659514579.226061,15647
1659514579.264336,15653
1659514579.302611,15648
1659514579.347379,15644
1659514579.392147,15656
1659514579.436915,15650
1659514579.470235,15648
1659514579.503554,15660
1659514579.548322,15653
1659514579.59309,15656
1659514579.637858,15667
1659514579.677159,15655
1659514579.716459,15656
1659514579.755759,15661
1659514579.797281,15658
1659514579.838802,15667
1659514579.877419,15658
1659514579.916035,15656
1659514579.954652,15659
1659514579.993952,15676
1659514580.033252,15669
1659514580.072553,15671
1659514580.110486,15664
1659514580.148419,15665
1659514580.186352,15660
1659514580.231121,15662
1659514580.275888,15669
1659514580.320657,15670
1659514580.354489,15668
1659514580.388321,15667
1659514580.432748,15668
1659514580.477174,15661
1659514580.5216,15673
1659514580.563122,15678
1659514580.604643,15677
1659514580.644285,15676
1659514580.683927,15676
1659514580.723569,15673
1659514580.761844,15673
1659514580.800119,15678
1659514580.838394,15668
1659514580.880428,15667
1659514580.922462,15671
1659514580.961762,15678
1659514581.001063,15667
1659514581.040363,15656
1659514581.080859,15666
1659514581.121355,15672
1659514581.159972,15671
1659514581.198589,15673
1659514581.237206,15676
1659514581.275822,15682
1659514581.314439,15679
1659514581.353056,15676
1659514581.394577,15683
1659514581.436099,15681
1659514581.475057,15682
1659514581.514015,15687
1659514581.552974,15688
1659514581.594496,15687
1659514581.636017,15696
1659514581.674634,15702
1659514581.71325,15705
1659514581.751867,15697
1659514581.793901,15703
1659514581.835935,15697
1659514581.881045,15693
1659514581.926155,15700
1659514581.971265,15690
1659514582.003047,15702
1659514582.034829,15697
1659514582.078571,15710
1659514582.122314,15697
1659514582.166057,15695
1659514582.205015,15705
1659514582.243974,15707
1659514582.282933,15700
1659514582.323355,15703
1659514582.363779,15704
1659514582.404202,15693
1659514582.444625,15706
1659514582.485048,15698
1659514582.525471,15692
1659514582.565894,15693
1659514582.605877,15685
1659514582.645861,15697
1659514582.685845,15694
1659514582.725829,15689
1659514582.765812,15681
1659514582.805112,15693
1659514582.844413,15685
1659514582.883713,15693
1659514582.922671,15688
1659514582.96163,15689
1659514583.000588,15704
1659514583.04211,15693
1659514583.083631,15693
1659514583.123273,15684
1659514583.162915,15695
1659514583.202557,15687
1659514583.241515,15684
1659514583.280474,15691
1659514583.319432,15688
1659514583.359929,15698
1659514583.400425,15682
1659514583.441434,15686
1659514583.482443,15694
1659514583.522085,15690
1659514583.561727,15678
1659514583.601368,15686
1659514583.645453,15685
1659514583.689538,15691
1659514583.733622,15695
1659514583.766942,15685
1659514583.800262,15695
1659514583.844688,15697
1659514583.889114,15694
1659514583.933541,15698
1659514583.967373,15706
1659514584.001205,15699
1659514584.04529,15704
1659514584.089375,15702
1659514584.133459,15711
1659514584.172417,15711
1659514584.211376,15710
1659514584.250334,15709
1659514584.291343,15706
1659514584.332352,15713
1659514584.370969,15695
1659514584.409586,15691
1659514584.448202,15705
1659514584.486819,15692
1659514584.525436,15698
1659514584.564053,15694
1659514584.602327,15696
1659514584.640602,15691
1659514584.678877,15684
1659514584.720399,15694
1659514584.76192,15694
1659514584.802109,15703
1659514584.842298,15710
1659514584.882487,15721
1659514584.922675,15722
1659514584.962864,15729
1659514585.004385,15740
1659514585.045907,15747
1659514585.084866,15757
1659514585.123824,15745
1659514585.162782,15665
1659514585.204817,15607
1659514585.246851,15569
1659514585.285126,15524
1659514585.3234,15493
1659514585.361676,15493
1659514585.406102,15499
1659514585.450528,15512
1659514585.494955,15501
1659514585.537501,15505
1659514585.580048,15518
1659514585.617981,15520
1659514585.655914,15524
1659514585.693848,15538
1659514585.734857,15537
1659514585.775866,15544
1659514585.815166,15542
1659514585.854466,15533
1659514585.893766,15536
1659514585.932041,15523
1659514585.970316,15522
1659514586.008591,15484
1659514586.051138,15487
1659514586.093684,15499
1659514586.132985,15507
1659514586.172285,15528
1659514586.211585,15534
1659514586.253107,15533
1659514586.294628,15545
1659514586.333586,15537
1659514586.372545,15543
1659514586.411503,15531
1659514586.451145,15517
1659514586.490787,15515
1659514586.530429,15538
1659514586.570925,15532
1659514586.611422,15546
1659514586.650038,15539
1659514586.688655,15546
1659514586.727272,15551
1659514586.768793,15550
1659514586.810315,15554
1659514586.849273,15547
1659514586.888232,15562
1659514586.92719,15563
1659514586.968199,15562
1659514587.009208,15553
1659514587.054318,15552
1659514587.099428,15558
1659514587.144537,15552
1659514587.176832,15556
1659514587.209126,15553
1659514587.253553,15552
1659514587.297979,15549
1659514587.342405,15556
1659514587.382047,15556
1659514587.421689,15543
1659514587.461331,15555
1659514587.502853,15552
1659514587.544374,15564
1659514587.582649,15558
1659514587.620924,15568
1659514587.659199,15577
1659514587.700721,15588
1659514587.742242,15594
1659514587.781201,15604
1659514587.820159,15627
1659514587.859118,15641
1659514587.897393,15654
1659514587.935668,15656
1659514587.973943,15660
1659514588.014951,15659
1659514588.05596,15665
1659514588.094577,15667
1659514588.133194,15669
1659514588.17181,15684
1659514588.210769,15730
1659514588.249727,15779
1659514588.288686,15855
1659514588.33072,15910
1659514588.372754,15795
1659514588.414276,15739
1659514588.455797,15750
1659514588.495097,15724
1659514588.534397,15693
1659514588.573698,15675
1659514588.615219,15681
1659514588.656741,15695
1659514588.696383,15698
1659514588.736025,15698
1659514588.775666,15717
1659514588.819409,15699
1659514588.863152,15675
1659514588.906895,15651
1659514588.939702,15621
1659514588.972509,15612
1659514589.016936,15575
1659514589.061362,15578
1659514589.105788,15599
1659514589.144405,15590
1659514589.183022,15594
1659514589.221638,15601
1659514589.263672,15613
1659514589.305707,15641
1659514589.345007,15660
1659514589.384307,15651
1659514589.423607,15645
1659514589.465129,15653
1659514589.50665,15649
1659514589.545609,15639
1659514589.584567,15625
1659514589.623525,15609
1659514589.662826,15594
1659514589.702126,15586
1659514589.741426,15592
1659514589.78346,15587
1659514589.825494,15577
1659514589.863427,15561
1659514589.901361,15567
1659514589.939294,15566
1659514589.981328,15559
1659514590.023362,15523
1659514590.063141,15510
1659514590.10292,15510
1659514590.142698,15518
1659514590.182477,15530
1659514590.222255,15548
1659514590.263264,15556
1659514590.304273,15540
1659514590.343915,15542
1659514590.383557,15547
1659514590.423199,15557
1659514590.461474,15559
1659514590.499749,15557
1659514590.538024,15562
1659514590.580571,15563
1659514590.623117,15568
1659514590.665152,15558
1659514590.707186,15565
1659514590.745461,15565
1659514590.783736,15546
1659514590.822011,15537
1659514590.865753,15550
1659514590.909496,15570
1659514590.953239,15557
1659514590.987584,15565
1659514591.021929,15571
1659514591.066014,15573
1659514591.110098,15577
1659514591.154183,15573
1659514591.186477,15576
1659514591.218772,15579
1659514591.26354,15577
1659514591.308308,15587
1659514591.353076,15585
1659514591.391351,15575
1659514591.429626,15580
1659514591.467901,15587
1659514591.509422,15586
1659514591.550944,15579
1659514591.590586,15567
1659514591.630228,15582
1659514591.66987,15594
1659514591.711391,15588
1659514591.752913,15585
1659514591.791871,15592
1659514591.830829,15601
1659514591.869788,15600
1659514591.90943,15600
1659514591.949072,15601
1659514591.988714,15607
1659514592.029723,15613
1659514592.070732,15615
1659514592.109006,15618
1659514592.147281,15623
1659514592.185556,15632
1659514592.227078,15621
1659514592.2686,15616
1659514592.3079,15606
1659514592.3472,15599
1659514592.3865,15625
1659514592.427509,15611
1659514592.468518,15620
1659514592.507135,15613
1659514592.545751,15620
1659514592.584368,15627
1659514592.626402,15624
1659514592.668436,15627
1659514592.707736,15625
1659514592.747037,15638
1659514592.786337,15623
1659514592.831105,15637
1659514592.875873,15628
1659514592.920641,15632
1659514592.962675,15628
1659514593.004709,15635
1659514593.043326,15624
1659514593.081943,15617
1659514593.120559,15623
1659514593.161568,15623
1659514593.202577,15634
1659514593.242219,15631
1659514593.281861,15626
1659514593.321503,15633
1659514593.359778,15628
1659514593.398053,15641
1659514593.436328,15635
1659514593.477337,15646
1659514593.518346,15633
1659514593.556962,15634
1659514593.595579,15643
1659514593.634196,15648
1659514593.673154,15664
1659514593.712113,15649
1659514593.751071,15637
1659514593.792593,15587
1659514593.834114,15596
1659514593.873073,15595
1659514593.912031,15604
1659514593.950989,15607
1659514593.992511,15615
1659514594.034033,15615
1659514594.072308,15614
1659514594.110583,15625
1659514594.148858,15617
1659514594.191404,15613
1659514594.233951,15614
1659514594.278377,15613
1659514594.322803,15606
1659514594.36723,15608
1659514594.399524,15602
1659514594.431819,15595
1659514594.475904,15599
1659514594.519988,15575
1659514594.564073,15554
1659514594.603031,15545
1659514594.641989,15537
1659514594.680948,15519
1659514594.72247,15517
1659514594.763991,15536
1659514594.802949,15545
1659514594.841908,15573
1659514594.880866,15575
1659514594.9229,15596
1659514594.964935,15623
1659514595.003551,15629
1659514595.042168,15666
1659514595.080785,15670
1659514595.120085,15665
1659514595.159385,15645
1659514595.198685,15652
1659514595.241232,15661
1659514595.283779,15673
1659514595.322942,15671
1659514595.362106,15664
1659514595.401269,15650
1659514595.440433,15623
1659514595.479596,15601
1659514595.518555,15582
1659514595.557513,15565
1659514595.596472,15547
1659514595.638506,15553
1659514595.68054,15567
1659514595.719157,15580
1659514595.757773,15607
1659514595.79639,15598
1659514595.837912,15598
1659514595.879433,15603
1659514595.91805,15611
1659514595.956666,15595
1659514595.995283,15590
1659514596.037317,15597
1659514596.079351,15596
1659514596.118652,15606
1659514596.157952,15611
1659514596.197252,15607
1659514596.238774,15609
1659514596.280295,15603
1659514596.318912,15605
1659514596.357528,15599
1659514596.396145,15600
1659514596.440913,15596
1659514596.485681,15594
1659514596.530449,15595
1659514596.571971,15595
1659514596.613492,15606
1659514596.651426,15607
1659514596.689359,15618
1659514596.727292,15613
1659514596.768814,15623
1659514596.810335,15628
1659514596.848952,15623
1659514596.887568,15641
1659514596.926185,15646
1659514596.965144,15640
1659514597.004102,15646
1659514597.043061,15650
1659514597.082019,15628
1659514597.120978,15633
1659514597.159936,15634
1659514597.200945,15648
1659514597.241954,15642
1659514597.280571,15647
1659514597.319187,15649
1659514597.357804,15647
1659514597.399838,15646
1659514597.441872,15645
1659514597.480831,15657
1659514597.519789,15668
1659514597.558748,15681
1659514597.602832,15669
1659514597.646917,15674
1659514597.691001,15671
1659514597.723808,15680
1659514597.756615,15687
1659514597.801042,15679
1659514597.845468,15682
1659514597.889894,15681
1659514597.931416,15683
1659514597.972937,15685
1659514598.011896,15682
1659514598.050854,15689
1659514598.089813,15682
1659514598.128771,15682
1659514598.16773,15683
1659514598.206688,15681
1659514598.24821,15687
1659514598.289731,15690
1659514598.32869,15688
1659514598.367648,15684
1659514598.406606,15690
1659514598.449153,15677
1659514598.4917,15674
1659514598.530658,15682
1659514598.569617,15695
1659514598.608575,15691
1659514598.647192,15688
1659514598.685809,15674
1659514598.724426,15663
1659514598.765947,15659
1659514598.807468,15659
1659514598.846085,15659
1659514598.884702,15668
1659514598.923319,15662
1659514598.965353,15661
1659514599.007387,15667
1659514599.046345,15668
1659514599.085304,15648
1659514599.124262,15647
1659514599.165784,15641
1659514599.207305,15655
1659514599.24558,15637
1659514599.283855,15651
1659514599.32213,15649
1659514599.364677,15658
1659514599.407224,15650
1659514599.451992,15653
1659514599.49676,15660
1659514599.541528,15661
1659514599.580145,15662
1659514599.618761,15659
1659514599.657378,15666
1659514599.6989,15671
1659514599.740421,15688
1659514599.779379,15677
1659514599.818338,15673
1659514599.857296,15691
1659514599.898818,15697
1659514599.940339,15698
1659514599.978614,15703
1659514600.016889,15709
1659514600.055164,15703
1659514600.094123,15711
1659514600.133081,15716
1659514600.17204,15710
1659514600.212536,15720
1659514600.253032,15715
1659514600.292332,15719
1659514600.331633,15712
1659514600.370933,15710
1659514600.412967,15710
1659514600.455001,15722
1659514600.493276,15714
1659514600.531551,15713
1659514600.569826,15719
1659514600.61022,15713
1659514600.650614,15727
1659514600.691007,15718
1659514600.731401,15714
1659514600.771795,15733
1659514600.813316,15728
1659514600.854838,15731
1659514600.893455,15721
1659514600.932071,15718
1659514600.970688,15722
1659514601.012209,15726
1659514601.053731,15719
1659514601.09269,15718
1659514601.131648,15720
1659514601.170606,15718
1659514601.214691,15719
1659514601.258775,15722
1659514601.30286,15719
1659514601.33618,15711
1659514601.369499,15731
1659514601.413926,15727
1659514601.458352,15721
1659514601.502779,15723
1659514601.543787,15722
1659514601.584796,15730
1659514601.62478,15721
1659514601.664764,15722
1659514601.704747,15720
1659514601.743706,15717
1659514601.782664,15731
1659514601.821623,15729
1659514601.863144,15729
1659514601.904666,15736
1659514601.943966,15731
1659514601.983266,15733
1659514602.022566,15742
1659514602.065113,15736
1659514602.10766,15728
1659514602.145935,15732
1659514602.18421,15733
1659514602.222485,15744
1659514602.261443,15728
1659514602.300401,15737
1659514602.33936,15731
1659514602.380369,15735
1659514602.421378,15735
1659514602.459653,15738
1659514602.497928,15739
1659514602.536203,15733
1659514602.578237,15727
1659514602.620271,15728
1659514602.65923,15736
1659514602.698188,15727
1659514602.737146,15733
1659514602.781573,15733
1659514602.825999,15742
1659514602.870425,15736
1659514602.903745,15742
1659514602.937065,15751
1659514602.981149,15741
1659514603.025234,15738
1659514603.069319,15741
1659514603.11084,15747
1659514603.152361,15746
1659514603.190978,15762
1659514603.229595,15759
1659514603.268212,15763
1659514603.306828,15771
1659514603.345445,15786
1659514603.384062,15772
1659514603.425071,15764
1659514603.466079,15770
1659514603.504696,15775
1659514603.543313,15776
1659514603.58193,15775
1659514603.623964,15777
1659514603.665998,15786
1659514603.705298,15784
1659514603.744598,15793
1659514603.783899,15800
1659514603.822173,15812
1659514603.860448,15814
1659514603.898723,15806
1659514603.940758,15805
1659514603.982792,15799
1659514604.022092,15799
1659514604.061392,15799
1659514604.100692,15782
1659514604.141701,15767
1659514604.18271,15761
1659514604.221668,15750
1659514604.260627,15739
1659514604.299585,15718
1659514604.344012,15709
1659514604.388438,15711
1659514604.432864,15709
1659514604.473361,15727
1659514604.513857,15727
1659514604.553499,15743
1659514604.593141,15752
1659514604.632783,15756
1659514604.674304,15736
1659514604.715826,15732
1659514604.754442,15748
1659514604.793059,15739
1659514604.831676,15734
1659514604.870976,15740
1659514604.910276,15750
1659514604.949576,15744
1659514604.992123,15762
1659514605.03467,15754
1659514605.072945,15754
1659514605.11122,15767
1659514605.149495,15779
1659514605.191529,15789
1659514605.233563,15779
1659514605.272521,15769
1659514605.31148,15771
1659514605.350438,15783
1659514605.388372,15780
1659514605.426305,15783
1659514605.464238,15776
1659514605.506785,15773
1659514605.549332,15788
1659514605.587948,15781
1659514605.626565,15774
1659514605.665182,15768
1659514605.705678,15770
1659514605.746174,15764
1659514605.784791,15751
1659514605.823408,15767
1659514605.862025,15771
1659514605.903802,15795
1659514605.94558,15784
1659514605.987358,15781
1659514606.029136,15787
1659514606.067752,15788
1659514606.106369,15794
1659514606.144986,15798
1659514606.190096,15786
1659514606.235205,15783
1659514606.280315,15793
1659514606.31859,15787
1659514606.356865,15793
1659514606.39514,15794
1659514606.437174,15786
1659514606.479208,15779
1659514606.517825,15792
1659514606.556442,15792
1659514606.595059,15781
1659514606.633333,15787
1659514606.671608,15782
1659514606.709883,15795
1659514606.750892,15792
1659514606.791901,15789
1659514606.83086,15784
1659514606.869818,15783
1659514606.908777,15776
1659514606.947735,15784
1659514606.986694,15774
1659514607.025652,15761
1659514607.066661,15770
1659514607.10767,15775
1659514607.146628,15788
1659514607.185587,15787
1659514607.224545,15780
1659514607.266067,15778
1659514607.307588,15781
1659514607.349622,15765
1659514607.391656,15762
1659514607.430957,15776
1659514607.470257,15774
1659514607.509557,15780
1659514607.553983,15771
1659514607.59841,15777
1659514607.642836,15781
1659514607.675643,15789
1659514607.70845,15792
1659514607.752877,15780
1659514607.797303,15783
1659514607.841729,15782
1659514607.876074,15780
1659514607.910419,15779
1659514607.954162,15769
1659514607.997905,15785
1659514608.041647,15775
1659514608.080948,15768
1659514608.120248,15768
1659514608.159548,15777
1659514608.20107,15771
1659514608.242591,15797
1659514608.281549,15781
1659514608.320508,15786
1659514608.359467,15788
1659514608.400988,15785
1659514608.442509,15782
1659514608.48181,15793
1659514608.52111,15794
1659514608.56041,15787
1659514608.599027,15791
1659514608.637644,15784
1659514608.67626,15784
1659514608.718294,15793
1659514608.760329,15793
1659514608.799287,15797
1659514608.838245,15793
1659514608.877204,15793
1659514608.9177,15791
1659514608.958196,15799
1659514608.99613,15807
1659514609.034063,15798
1659514609.071996,15802
1659514609.115056,15794
1659514609.158115,15806
1659514609.197483,15793
1659514609.236852,15791
1659514609.27622,15790
1659514609.315589,15794
1659514609.354958,15799
1659514609.396479,15807
1659514609.438,15806
1659514609.477643,15801
1659514609.517284,15812
1659514609.556926,15807
1659514609.597935,15801
1659514609.638944,15810
1659514609.677903,15797
1659514609.716861,15799
1659514609.75582,15801
1659514609.797341,15793
1659514609.838862,15791
1659514609.877479,15807
1659514609.916096,15795
1659514609.954713,15792
1659514609.998797,15787
1659514610.042882,15783
1659514610.086966,15786
1659514610.120286,15785
1659514610.153606,15787
1659514610.19769,15782
1659514610.241775,15787
1659514610.28586,15789
1659514610.32516,15802
1659514610.36446,15788
1659514610.40376,15782
1659514610.446307,15779
1659514610.488854,15778
1659514610.527128,15783
1659514610.565403,15790
1659514610.603678,15788
1659514610.6452,15775
1659514610.686722,15785
1659514610.726363,15784
1659514610.766006,15795
1659514610.805647,15783
1659514610.843922,15776
1659514610.882197,15780
1659514610.920472,15782
1659514610.963019,15789
1659514611.005566,15798
1659514611.044524,15807
1659514611.083483,15814
1659514611.122441,15810
1659514611.163706,15823
1659514611.204972,15810
1659514611.246237,15808
1659514611.287502,15800
1659514611.32646,15797
1659514611.365419,15790
1659514611.404377,15808
1659514611.443336,15798
1659514611.482294,15808
1659514611.521253,15805
1659514611.562774,15778
1659514611.604296,15779
1659514611.649064,15770
1659514611.693832,15775
1659514611.7386,15772
1659514611.772432,15786
1659514611.806264,15785
1659514611.850349,15800
1659514611.894434,15798
1659514611.938518,15811
1659514611.977477,15806
1659514612.016435,15801
1659514612.055393,15789
1659514612.096402,15788
1659514612.137411,15777
1659514612.175686,15774
1659514612.213961,15789
1659514612.252236,15779
1659514612.290853,15768
1659514612.32947,15778
1659514612.368086,15771
1659514612.41012,15770
1659514612.452155,15775
1659514612.49043,15773
1659514612.528705,15759
1659514612.56698,15767
1659514612.605938,15775
1659514612.644897,15778
1659514612.683855,15786
1659514612.725376,15795
1659514612.766898,15800
1659514612.806198,15807
1659514612.845498,15811
1659514612.884799,15819
1659514612.925807,15835
1659514612.966816,15844
1659514613.006117,15855
1659514613.045417,15862
1659514613.084717,15861
1659514613.125726,15861
1659514613.166735,15868
1659514613.210478,15867
1659514613.25422,15869
1659514613.297963,15855
1659514613.331795,15848
1659514613.365628,15846
1659514613.410054,15838
1659514613.45448,15830
1659514613.498907,15829
1659514613.537182,15832
1659514613.575457,15836
1659514613.613732,15833
1659514613.655766,15847
1659514613.6978,15844
1659514613.737442,15855
1659514613.777084,15862
1659514613.816726,15857
1659514613.857735,15844
1659514613.898744,15837
1659514613.938044,15843
1659514613.977344,15839
1659514614.016644,15837
1659514614.055944,15834
1659514614.095245,15827
1659514614.134545,15827
1659514614.176066,15830
1659514614.217588,15833
1659514614.256546,15823
1659514614.295505,15823
1659514614.334463,15822
1659514614.375985,15830
1659514614.417506,15816
1659514614.455439,15808
1659514614.493373,15812
1659514614.531306,15821
1659514614.57334,15825
1659514614.615374,15830
1659514614.654333,15827
1659514614.693291,15823
1659514614.732249,15827
1659514614.773258,15823
1659514614.814267,15823
1659514614.853226,15830
1659514614.892184,15824
1659514614.931143,15822
1659514614.975911,15820
1659514615.020679,15832
1659514615.065447,15832
1659514615.103722,15826
1659514615.141997,15826
1659514615.180272,15829
1659514615.222306,15829
1659514615.26434,15825
1659514615.303298,15826
1659514615.342257,15829
1659514615.381215,15834
1659514615.419148,15830
1659514615.457082,15840
1659514615.495015,15834
1659514615.536536,15850
1659514615.578058,15853
1659514615.616675,15839
1659514615.655292,15840
1659514615.693908,15837
1659514615.732867,15834
1659514615.771825,15835
1659514615.810784,15840
1659514615.85128,15830
1659514615.891776,15833
1659514615.93381,15832
1659514615.975844,15830
1659514616.014461,15839
1659514616.053078,15830
1659514616.091695,15826
1659514616.136462,15820
1659514616.181231,15837
1659514616.225999,15833
1659514616.259831,15831
1659514616.293663,15835
1659514616.335014,15834
1659514616.376365,15837
1659514616.417715,15832
1659514616.459066,15841
1659514616.500417,15849
1659514616.541767,15849
1659514616.580726,15843
1659514616.619684,15847
1659514616.658643,15843
1659514616.696918,15845
1659514616.735193,15837
1659514616.773468,15823
1659514616.816014,15822
1659514616.858561,15822
1659514616.897178,15820
1659514616.935794,15821
1659514616.974411,15827
1659514617.016445,15819
1659514617.058479,15828
1659514617.097096,15825
1659514617.135713,15836
1659514617.17433,15827
1659514617.216876,15835
1659514617.259423,15836
1659514617.298381,15841
1659514617.33734,15868
1659514617.376298,15865
1659514617.41782,15873
1659514617.459341,15865
1659514617.503768,15850
1659514617.548194,15869
1659514617.59262,15865
1659514617.630895,15866
1659514617.66917,15869
1659514617.707445,15868
1659514617.749479,15865
1659514617.791513,15875
1659514617.830472,15861
1659514617.86943,15866
1659514617.908389,15873
1659514617.947006,15857
1659514617.985622,15859
1659514618.024239,15857
1659514618.06576,15865
1659514618.107282,15873
1659514618.14624,15865
1659514618.185199,15866
1659514618.224157,15860
1659514618.266704,15870
1659514618.309251,15872
1659514618.348038,15867
1659514618.386826,15875
1659514618.425613,15865
1659514618.464401,15855
1659514618.503189,15857
1659514618.541976,15856
1659514618.583156,15857
1659514618.624336,15856
1659514618.665516,15850
1659514618.706695,15864
1659514618.747875,15848
1659514618.789055,15847
1659514618.827672,15855
1659514618.866288,15843
1659514618.904905,15848
1659514618.94617,15838
1659514618.987435,15846
1659514619.028701,15839
1659514619.069966,15855
1659514619.110975,15841
1659514619.151984,15843
1659514619.191626,15851
1659514619.231267,15851
1659514619.27091,15851
1659514619.309526,15846
1659514619.348143,15850
1659514619.38676,15845
1659514619.428281,15869
1659514619.469803,15853
1659514619.509444,15855
1659514619.549087,15855
1659514619.588728,15854
1659514619.63025,15860
1659514619.671772,15859
1659514619.71073,15854
1659514619.749688,15850
1659514619.788647,15854
1659514619.830681,15841
1659514619.872715,15848
1659514619.91099,15846
1659514619.949265,15850
1659514619.98754,15854
1659514620.026157,15855
1659514620.064773,15850
1659514620.10339,15840
1659514620.145937,15849
1659514620.188483,15847
1659514620.226758,15845
1659514620.265033,15852
1659514620.303308,15847
1659514620.345343,15852
1659514620.387377,15850
1659514620.432145,15840
1659514620.476913,15838
1659514620.521681,15834
1659514620.555001,15828
1659514620.58832,15835
1659514620.632405,15827
1659514620.67649,15829
1659514620.720574,15839
1659514620.754406,15829
1659514620.788239,15837
1659514620.832665,15859
1659514620.877091,15855
1659514620.921518,15862
1659514620.959793,15868
1659514620.998068,15859
1659514621.036343,15846
1659514621.078889,15842
1659514621.121436,15839
1659514621.160053,15851
1659514621.198669,15843
1659514621.237286,15849
1659514621.275561,15855
1659514621.313836,15861
1659514621.352111,15861
1659514621.394145,15852
1659514621.436179,15858
1659514621.474796,15854
1659514621.513413,15865
1659514621.552029,15847
1659514621.592013,15850
1659514621.631997,15845
1659514621.671981,15845
1659514621.711964,15845
1659514621.751948,15848
1659514621.796716,15849
1659514621.841484,15857
1659514621.886252,15859
1659514621.924527,15853
1659514621.962802,15854
1659514622.001077,15859
1659514622.042598,15847
1659514622.08412,15855
1659514622.123078,15848
1659514622.162037,15851
1659514622.200995,15859
1659514622.241492,15868
1659514622.281988,15876
1659514622.320946,15870
1659514622.359905,15869
1659514622.398863,15860
1659514622.43748,15868
1659514622.476097,15867
1659514622.514714,15864
1659514622.556747,15858
1659514622.598782,15871
1659514622.63774,15865
1659514622.676698,15875
1659514622.715657,15870
1659514622.757179,15864
1659514622.7987,15876
1659514622.838,15869
1659514622.877301,15869
1659514622.916601,15862
1659514622.955217,15872
1659514622.993834,15873
1659514623.032451,15876
1659514623.074997,15867
1659514623.117544,15869
1659514623.159066,15883
1659514623.200587,15886
1659514623.238862,15878
1659514623.277137,15879
1659514623.315412,15877
1659514623.359838,15871
1659514623.404265,15868
1659514623.448691,15867
1659514623.483036,15872
1659514623.517381,15867
1659514623.561124,15865
1659514623.604867,15872
1659514623.648609,15867
1659514623.682442,15860
1659514623.716274,15851
1659514623.7607,15862
1659514623.805127,15865
1659514623.849553,15863
1659514623.888512,15857
1659514623.92747,15853
1659514623.966429,15863
1659514624.008463,15848
1659514624.050497,15846
1659514624.089797,15854
1659514624.129097,15861
1659514624.168397,15860
1659514624.208894,15862
1659514624.24939,15858
1659514624.288007,15856
1659514624.326623,15858
1659514624.36524,15855
1659514624.403857,15844
1659514624.442473,15860
1659514624.48109,15861
1659514624.522612,15848
1659514624.564133,15856
1659514624.60275,15855
1659514624.641366,15859
1659514624.679983,15848
1659514624.721505,15848
1659514624.763026,15857
1659514624.801301,15859
1659514624.839576,15850
1659514624.877851,15849
1659514624.920398,15854
1659514624.962945,15854
1659514625.001561,15850
1659514625.040178,15852
1659514625.078795,15859
1659514625.123221,15863
1659514625.167647,15864
1659514625.212074,15853
1659514625.244368,15855
1659514625.276663,15856
1659514625.321431,15850
1659514625.366199,15853
1659514625.410967,15846
1659514625.449584,15844
1659514625.4882,15849
1659514625.526817,15839
1659514625.567826,15846
1659514625.608835,15850
1659514625.647793,15844
1659514625.686752,15848
1659514625.72571,15851
1659514625.766719,15852
1659514625.807728,15846
1659514625.847028,15855
1659514625.886328,15855
1659514625.925629,15855
1659514625.964929,15845
1659514626.004229,15848
1659514626.043529,15858
1659514626.084538,15852
1659514626.125547,15849
1659514626.164505,15847
1659514626.203464,15856
1659514626.242422,15857
1659514626.284969,15850
1659514626.327516,15842
1659514626.366132,15850
1659514626.404749,15857
1659514626.443366,15858
1659514626.484375,15860
1659514626.525384,15858
1659514626.564342,15861
1659514626.603301,15859
1659514626.642259,15878
1659514626.684293,15869
1659514626.726327,15865
1659514626.770412,15870
1659514626.814497,15871
1659514626.858581,15872
1659514626.896002,15857
1659514626.933422,15861
1659514626.970843,15857
1659514627.008264,15867
1659514627.047564,15873
1659514627.086864,15864
1659514627.126164,15872
1659514627.170932,15871
1659514627.2157,15867
1659514627.260468,15865
1659514627.293788,15860
1659514627.327108,15860
1659514627.371534,15869
1659514627.41596,15868
1659514627.460387,15856
1659514627.498662,15860
1659514627.536937,15859
1659514627.575212,15870
1659514627.617758,15863
1659514627.660305,15851
1659514627.69858,15852
1659514627.736855,15852
1659514627.77513,15856
1659514627.816139,15855
1659514627.857148,15851
1659514627.895423,15851
1659514627.933698,15858
1659514627.971973,15852
1659514628.010931,15844
1659514628.04989,15851
1659514628.088848,15860
1659514628.13037,15855
1659514628.171891,15851
1659514628.211191,15854
1659514628.250492,15850
1659514628.289792,15847
1659514628.331313,15831
1659514628.372835,15833
1659514628.41111,15830
1659514628.449385,15824
1659514628.48766,15826
1659514628.530206,15822
1659514628.572753,15822
1659514628.611712,15816
1659514628.65067,15820
1659514628.689628,15824
1659514628.730125,15819
1659514628.770621,15830
1659514628.80958,15824
1659514628.848538,15839
1659514628.887496,15839
1659514628.931923,15831
1659514628.976349,15843
1659514629.020775,15842
1659514629.062297,15843
1659514629.103818,15827
1659514629.142435,15829
1659514629.181052,15824
1659514629.219668,15823
1659514629.262215,15808
1659514629.304762,15804
1659514629.343379,15801
1659514629.381995,15800
1659514629.420612,15799
1659514629.459912,15795
1659514629.499213,15801
1659514629.538513,15794
1659514629.581059,15812
1659514629.623606,15805
1659514629.661881,15804
1659514629.700156,15823
1659514629.738431,15826
1659514629.77739,15834
1659514629.816348,15826
1659514629.855306,15818
1659514629.896828,15822
1659514629.938349,15838
1659514629.977308,15839
1659514630.016266,15829
1659514630.055225,15842
1659514630.096746,15840
1659514630.138268,15851
1659514630.177226,15833
1659514630.216185,15831
1659514630.255143,15832
1659514630.296152,15842
1659514630.337161,15835
1659514630.376119,15834
1659514630.415078,15839
1659514630.454036,15843
1659514630.49607,15837
1659514630.538105,15827
1659514630.582531,15822
1659514630.626957,15827
1659514630.671384,15824
1659514630.710342,15823
1659514630.7493,15818
1659514630.788259,15814
1659514630.829268,15811
1659514630.870277,15820
1659514630.909235,15811
1659514630.948194,15806
1659514630.987152,15810
1659514631.027648,15810
1659514631.068145,15813
1659514631.107103,15794
1659514631.146062,15798
1659514631.18502,15799
1659514631.223295,15806
1659514631.26157,15798
1659514631.299845,15803
1659514631.341879,15816
1659514631.383913,15819
1659514631.423213,15811
1659514631.462514,15808
1659514631.501814,15818
1659514631.543335,15809
1659514631.584857,15823
1659514631.623473,15824
1659514631.66209,15833
1659514631.700707,15847
1659514631.739665,15848
1659514631.778624,15850
1659514631.817582,15848
1659514631.859617,15838
1659514631.90165,15845
1659514631.942659,15841
1659514631.983668,15846
1659514632.021943,15858
1659514632.060218,15834
1659514632.098493,15831
1659514632.139844,15813
1659514632.181195,15826
1659514632.222545,15819
1659514632.263896,15818
1659514632.305246,15827
1659514632.346597,15831
1659514632.385556,15835
1659514632.424514,15837
1659514632.463472,15840
1659514632.505507,15852
1659514632.547541,15837
1659514632.586841,15846
1659514632.626141,15839
1659514632.665441,15838
1659514632.706963,15834
1659514632.748484,15838
1659514632.788126,15831
1659514632.827768,15830
1659514632.86741,15833
1659514632.908932,15836
1659514632.950453,15853
1659514632.989412,15841
1659514633.02837,15848
1659514633.067328,15836
1659514633.106629,15840
1659514633.145929,15838
1659514633.185229,15830
1659514633.225725,15825
1659514633.266222,15818
1659514633.307743,15831
1659514633.349265,15822
1659514633.388223,15824
1659514633.427182,15817
1659514633.46614,15822
1659514633.509883,15814
1659514633.553626,15817
1659514633.597368,15806
1659514633.630176,15802
1659514633.662983,15808
1659514633.707409,15800
1659514633.751835,15805
1659514633.796262,15809
1659514633.830094,15795
1659514633.863926,15805
1659514633.908011,15801
1659514633.952096,15799
1659514633.99618,15800
1659514634.03548,15805
1659514634.07478,15801
1659514634.114081,15822
1659514634.15509,15795
1659514634.196099,15797
1659514634.234715,15799
1659514634.273332,15810
1659514634.311949,15802
1659514634.350907,15796
1659514634.389866,15799
1659514634.428824,15798
1659514634.469833,15806
1659514634.510842,15788
1659514634.548775,15791
1659514634.586708,15803
1659514634.624641,15791
1659514634.663942,15792
1659514634.703242,15790
1659514634.742542,15791
1659514634.784576,15806
1659514634.82661,15802
1659514634.867619,15799
1659514634.908628,15796
1659514634.947587,15797
1659514634.986545,15800
1659514635.025503,15801
1659514635.06805,15792
1659514635.110597,15794
1659514635.149214,15794
1659514635.18783,15794
1659514635.226447,15802
1659514635.271215,15796
1659514635.315983,15798
1659514635.360751,15801
1659514635.393558,15806
1659514635.426365,15794
1659514635.470108,15790
1659514635.513851,15806
1659514635.557594,15797
1659514635.596552,15796
1659514635.635511,15794
1659514635.674469,15813
1659514635.717016,15818
1659514635.759563,15822
1659514635.797838,15811
1659514635.836113,15814
1659514635.874388,15830
1659514635.916422,15819
1659514635.958456,15814
1659514635.997756,15812
1659514636.037056,15823
1659514636.076356,15820
1659514636.114973,15824
1659514636.15359,15811
1659514636.192207,15809
1659514636.233728,15810
1659514636.27525,15810
1659514636.31455,15809
1659514636.35385,15803
1659514636.39315,15801
1659514636.434159,15804
1659514636.475168,15818
1659514636.513785,15806
1659514636.552402,15813
1659514636.591018,15817
1659514636.633052,15810
1659514636.675086,15816
1659514636.714045,15804
1659514636.753003,15799
1659514636.791962,15800
1659514636.832458,15794
1659514636.872954,15797
1659514636.911913,15793
1659514636.950871,15804
1659514636.98983,15801
1659514637.034256,15792
1659514637.078682,15797
1659514637.123109,15798
1659514637.165143,15811
1659514637.207177,15815
1659514637.246135,15812
1659514637.285094,15804
1659514637.324052,15808
1659514637.365574,15801
1659514637.407095,15821
1659514637.445883,15798
1659514637.48467,15804
1659514637.523458,15807
1659514637.562246,15810
1659514637.601033,15801
1659514637.639821,15800
1659514637.68083,15798
1659514637.721839,15800
1659514637.760455,15795
1659514637.799072,15792
1659514637.837689,15791
1659514637.875964,15803
1659514637.914239,15787
1659514637.952514,15792
1659514637.99506,15792
1659514638.037607,15794
1659514638.076224,15793
1659514638.114841,15795
1659514638.153457,15790
1659514638.194979,15794
1659514638.2365,15803
1659514638.276142,15796
1659514638.315784,15814
1659514638.355426,15799
1659514638.39746,15785
1659514638.439494,15790
1659514638.483921,15788
1659514638.528347,15780
1659514638.572773,15783
1659514638.606093,15776
1659514638.639413,15792
1659514638.680934,15790
1659514638.722456,15781
1659514638.763977,15784
1659514638.805499,15794
1659514638.846508,15781
1659514638.887516,15780
1659514638.926817,15773
1659514638.966117,15784
1659514639.005417,15780
1659514639.043692,15777
1659514639.081967,15780
1659514639.120242,15780
1659514639.161764,15781
1659514639.203285,15787
1659514639.242927,15778
1659514639.282569,15782
1659514639.322211,15779
1659514639.363732,15781
1659514639.405254,15784
1659514639.444212,15786
1659514639.483171,15791
1659514639.522129,15787
1659514639.566897,15789
1659514639.611665,15796
1659514639.656433,15790
1659514639.689241,15785
1659514639.722048,15787
1659514639.76579,15769
1659514639.809533,15761
1659514639.853276,15760
1659514639.89531,15767
1659514639.937344,15758
1659514639.975619,15760
1659514640.013894,15768
1659514640.052169,15766
1659514640.091128,15779
1659514640.130086,15780
1659514640.169045,15762
1659514640.210566,15769
1659514640.252088,15758
1659514640.290704,15763
1659514640.329321,15764
1659514640.367938,15752
1659514640.406554,15757
1659514640.445171,15757
1659514640.483788,15758
1659514640.526335,15763
1659514640.568882,15761
1659514640.607498,15754
1659514640.646115,15763
1659514640.684732,15767
1659514640.726253,15752
1659514640.767775,15769
1659514640.806391,15768
1659514640.845008,15770
1659514640.883625,15761
1659514640.926172,15756
1659514640.968718,15758
1659514641.006993,15767
1659514641.045268,15755
1659514641.083543,15755
1659514641.124552,15770
1659514641.165561,15765
1659514641.204178,15763
1659514641.242794,15760
1659514641.281411,15761
1659514641.325496,15762
1659514641.36958,15769
1659514641.413665,15774
1659514641.456212,15771
1659514641.498758,15768
1659514641.538059,15762
1659514641.577359,15767
1659514641.616659,15779
1659514641.655276,15762
1659514641.693892,15764
1659514641.732509,15767
1659514641.774543,15783
1659514641.816577,15774
1659514641.855536,15772
1659514641.894494,15772
1659514641.933453,15788
1659514641.975999,15771
1659514642.018546,15768
1659514642.056821,15780
1659514642.095096,15785
1659514642.133371,15779
1659514642.172329,15773
1659514642.211288,15783
1659514642.250246,15777
1659514642.291255,15784
1659514642.332264,15780
1659514642.370881,15766
1659514642.409497,15781
1659514642.448114,15775
1659514642.490148,15777
1659514642.532182,15776
1659514642.571483,15786
1659514642.610783,15782
1659514642.650083,15791
1659514642.693347,15790
1659514642.736612,15787
1659514642.779876,15784
1659514642.823141,15784
1659514642.866405,15789
1659514642.905022,15786
1659514642.943639,15780
1659514642.982255,15771
1659514643.021555,15788
1659514643.060856,15792
1659514643.100156,15780
1659514643.140652,15800
1659514643.181148,15795
1659514643.220107,15804
1659514643.259065,15790
1659514643.298024,15783
1659514643.335957,15781
1659514643.37389,15791
1659514643.411824,15785
1659514643.45437,15783
1659514643.496917,15786
1659514643.535534,15787
1659514643.57415,15799
1659514643.612767,15789
1659514643.653776,15787
1659514643.694785,15799
1659514643.733743,15789
1659514643.772702,15790
1659514643.81166,15790
1659514643.853694,15798
1659514643.895728,15782
1659514643.934003,15794
1659514643.972278,15794
1659514644.010553,15791
1659514644.052588,15804
1659514644.094622,15805
1659514644.133238,15801
1659514644.171855,15793
1659514644.210472,15787
1659514644.254556,15781
1659514644.298641,15788
1659514644.342726,15794
1659514644.38476,15790
1659514644.426794,15790
1659514644.466094,15785
1659514644.505394,15790
1659514644.544694,15791
1659514644.585191,15785
1659514644.625687,15782
1659514644.664645,15786
1659514644.703604,15792
1659514644.742562,15784
1659514644.781862,15794
1659514644.821163,15787
1659514644.860463,15803
1659514644.902497,15797
1659514644.944531,15797
1659514644.98349,15794
1659514645.022448,15798
1659514645.061406,15797
1659514645.100707,15805
1659514645.140007,15806
1659514645.179307,15802
1659514645.219803,15807
1659514645.2603,15802
1659514645.298916,15789
1659514645.337533,15800
1659514645.37615,15794
1659514645.418696,15793
1659514645.461243,15799
1659514645.499177,15792
1659514645.53711,15785
1659514645.575043,15795
1659514645.616052,15790
1659514645.657061,15803
1659514645.701829,15803
1659514645.746597,15801
1659514645.791365,15794
1659514645.829982,15804
1659514645.868598,15796
1659514645.907215,15805
1659514645.949249,15794
1659514645.991283,15791
1659514646.030583,15800
1659514646.069884,15802
1659514646.109184,15794
1659514646.150705,15793
1659514646.192227,15799
1659514646.230844,15800
1659514646.26946,15800
1659514646.308077,15796
1659514646.347719,15795
1659514646.387361,15805
1659514646.427003,15797
1659514646.467499,15795
1659514646.507995,15791
1659514646.54627,15797
1659514646.584545,15796
1659514646.62282,15803
1659514646.661437,15796
1659514646.700054,15801
1659514646.73867,15806
1659514646.780704,15801
1659514646.822739,15808
1659514646.861355,15813
1659514646.899972,15798
1659514646.938589,15793
1659514646.98011,15792
1659514647.021632,15802
1659514647.060932,15796
1659514647.100232,15803
1659514647.139532,15797
1659514647.181054,15805
1659514647.222575,15796
1659514647.267002,15792
1659514647.311428,15813
1659514647.355854,15810
1659514647.389687,15809
1659514647.423519,15817
1659514647.467262,15820
1659514647.511005,15824
1659514647.554748,15843
1659514647.593706,15826
1659514647.632664,15827
1659514647.671623,15841
1659514647.713657,15834
1659514647.755691,15830
1659514647.794308,15822
1659514647.832925,15834
1659514647.871541,15832
1659514647.911525,15830
1659514647.951509,15834
1659514647.991492,15827
1659514648.031476,15835
1659514648.07146,15836
1659514648.110418,15842
1659514648.149377,15849
1659514648.188335,15839
1659514648.226952,15827
1659514648.265568,15837
1659514648.304185,15850
1659514648.347245,15837
1659514648.390304,15843
1659514648.429262,15837
1659514648.468221,15859
1659514648.507179,15841
1659514648.551264,15840
1659514648.595348,15847
1659514648.639433,15841
1659514648.680954,15844
1659514648.722476,15839
1659514648.761093,15833
1659514648.799709,15830
1659514648.838326,15842
1659514648.88036,15827
1659514648.922394,15827
1659514648.961353,15834
1659514649.000311,15823
1659514649.03927,15824
1659514649.077545,15825
1659514649.11582,15834
1659514649.154095,15821
1659514649.195103,15834
1659514649.236112,15828
1659514649.276096,15831
1659514649.31608,15831
1659514649.356063,15827
1659514649.394338,15822
1659514649.432613,15824
1659514649.470888,15825
1659514649.511897,15825
1659514649.552906,15834
1659514649.591865,15838
1659514649.630823,15826
1659514649.669781,15833
1659514649.711816,15825
1659514649.75385,15835
1659514649.792125,15830
1659514649.8304,15827
1659514649.868675,15821
1659514649.910196,15818
1659514649.951718,15828
1659514649.990335,15816
1659514650.028951,15830
1659514650.067568,15826
1659514650.111311,15825
1659514650.155054,15828
1659514650.198796,15818
1659514650.241856,15830
1659514650.284915,15828
1659514650.323874,15824
1659514650.362832,15825
1659514650.40179,15825
1659514650.440407,15828
1659514650.479024,15842
1659514650.517641,15836
1659514650.559675,15834
1659514650.601709,15838
1659514650.640667,15836
1659514650.679626,15830
1659514650.718584,15838
1659514650.760106,15833
1659514650.801627,15825
1659514650.840586,15822
1659514650.879544,15815
1659514650.918503,15826
1659514650.957119,15828
1659514650.995736,15824
1659514651.034353,15821
1659514651.075361,15823
1659514651.11637,15826
1659514651.154987,15822
1659514651.193604,15821
1659514651.232221,15816
1659514651.274255,15811
1659514651.316289,15830
1659514651.355247,15810
1659514651.394206,15821
1659514651.433164,15808
1659514651.474686,15817
1659514651.516207,15817
1659514651.561317,15819
1659514651.606427,15814
1659514651.651537,15810
1659514651.684856,15816
1659514651.718176,15822
1659514651.762602,15832
1659514651.807029,15828
1659514651.851455,15824
1659514651.890755,15819
1659514651.930055,15818
1659514651.969356,15826
1659514652.009852,15826
1659514652.050348,15828
1659514652.088965,15823
1659514652.127582,15833
1659514652.166198,15829
1659514652.208745,15829
1659514652.251292,15838
1659514652.289567,15837
1659514652.327842,15831
1659514652.366117,15835
1659514652.404392,15851
1659514652.442667,15846
1659514652.480942,15851
1659514652.522463,15860
1659514652.563985,15866
1659514652.603626,15853
1659514652.643269,15857
1659514652.68291,15857
1659514652.721185,15853
1659514652.75946,15857
1659514652.797735,15856
1659514652.839257,15859
1659514652.880778,15867
1659514652.922812,15871
1659514652.964847,15872
1659514653.003463,15862
1659514653.04208,15859
1659514653.080697,15863
1659514653.124781,15866
1659514653.168866,15868
1659514653.21295,15876
1659514653.249858,15864
1659514653.286767,15866
1659514653.323674,15869
1659514653.360583,15883
1659514653.399541,15879
1659514653.438499,15877
1659514653.477458,15873
1659514653.522226,15879
1659514653.566994,15874
1659514653.611762,15873
1659514653.644569,15880
1659514653.677376,15883
1659514653.721802,15873
1659514653.766229,15873
1659514653.810655,15869
1659514653.852689,15883
1659514653.894723,15875
1659514653.934024,15866
1659514653.973324,15862
1659514654.012624,15866
1659514654.051241,15868
1659514654.089857,15880
1659514654.128474,15871
1659514654.170508,15867
1659514654.212542,15873
1659514654.251159,15867
1659514654.289776,15871
1659514654.328393,15863
1659514654.369914,15863
1659514654.411436,15859
1659514654.450736,15864
1659514654.490036,15871
1659514654.529336,15859
1659514654.567611,15858
1659514654.605886,15854
1659514654.644161,15844
1659514654.685683,15841
1659514654.727204,15829
1659514654.766504,15828
1659514654.805804,15835
1659514654.845105,15827
1659514654.887139,15822
1659514654.929173,15828
1659514654.96779,15823
1659514655.006406,15830
1659514655.045023,15823
1659514655.087057,15830
1659514655.129091,15848
1659514655.173518,15849
1659514655.217944,15865
1659514655.26237,15858
1659514655.29569,15871
1659514655.32901,15872
1659514655.373094,15876
1659514655.417179,15876
1659514655.461263,15870
1659514655.49988,15872
1659514655.538497,15859
1659514655.577114,15860
1659514655.61761,15852
1659514655.658106,15859
1659514655.696723,15850
1659514655.735339,15865
1659514655.773956,15842
1659514655.812915,15833
1659514655.851873,15841
1659514655.890832,15842
1659514655.932353,15838
1659514655.973875,15834
1659514656.012833,15834
1659514656.051791,15835
1659514656.09075,15844
1659514656.132784,15841
1659514656.174818,15843
1659514656.213435,15853
1659514656.252052,15859
1659514656.290668,15862
1659514656.329968,15859
1659514656.369269,15841
1659514656.408569,15834
1659514656.449578,15839
1659514656.490587,15829
1659514656.529545,15819
1659514656.568504,15820
1659514656.607462,15820
1659514656.647959,15847
1659514656.688455,15831
1659514656.733223,15819
1659514656.777991,15831
1659514656.822759,15837
1659514656.856591,15836
1659514656.890424,15825
1659514656.934508,15828
1659514656.978593,15823
1659514657.022677,15823
1659514657.055997,15817
1659514657.089317,15815
1659514657.133743,15813
1659514657.178169,15813
1659514657.222596,15810
1659514657.261896,15803
1659514657.301196,15819
1659514657.340496,15823
1659514657.38253,15826
1659514657.424564,15836
1659514657.463523,15829
1659514657.502481,15843
1659514657.54144,15857
1659514657.582449,15863
1659514657.623458,15877
1659514657.662758,15865
1659514657.702058,15860
1659514657.741358,15861
1659514657.780658,15867
1659514657.819959,15862
1659514657.859259,15855
1659514657.899755,15856
1659514657.940251,15864
1659514657.97921,15847
1659514658.018168,15847
1659514658.057127,15857
1659514658.100186,15866
1659514658.143245,15860
1659514658.18152,15853
1659514658.219795,15857
1659514658.25807,15854
1659514658.299079,15874
1659514658.340088,15860
1659514658.37973,15863
1659514658.419372,15862
1659514658.459014,15857
1659514658.500023,15849
1659514658.541032,15836
1659514658.582041,15827
1659514658.623049,15819
1659514658.662008,15824
1659514658.700966,15830
1659514658.739925,15822
1659514658.780421,15822
1659514658.820917,15822
1659514658.859534,15820
1659514658.898151,15804
1659514658.936768,15801
1659514658.978289,15795
1659514659.019811,15809
1659514659.058427,15803
1659514659.097044,15804
1659514659.135661,15821
1659514659.179745,15814
1659514659.22383,15821
1659514659.267915,15814
1659514659.302259,15823
1659514659.336604,15828
1659514659.381372,15830
1659514659.426141,15841
1659514659.470909,15836
1659514659.509183,15844
1659514659.547458,15838
1659514659.585733,15835
1659514659.62828,15835
1659514659.670827,15841
1659514659.709444,15852
1659514659.74806,15867
1659514659.786677,15874
1659514659.828199,15855
1659514659.86972,15824
1659514659.908337,15817
1659514659.946954,15840
1659514659.98557,15833
1659514660.024529,15843
1659514660.063487,15861
1659514660.102446,15868
1659514660.142942,15854
1659514660.183438,15853
1659514660.222738,15842
1659514660.262038,15851
1659514660.301339,15858
1659514660.343885,15848
1659514660.386432,15853
1659514660.425049,15860
1659514660.463666,15846
1659514660.502282,15837
1659514660.543804,15838
1659514660.585325,15825
1659514660.624626,15826
1659514660.663926,15828
1659514660.703226,15826
1659514660.74526,15824
1659514660.787294,15819
1659514660.825911,15817
1659514660.864528,15827
1659514660.903144,15833
1659514660.944666,15824
1659514660.986187,15840
1659514661.030272,15849
1659514661.074357,15852
1659514661.118441,15847
1659514661.156716,15853
1659514661.194991,15855
1659514661.233266,15860
1659514661.275813,15846
1659514661.318359,15852
1659514661.356976,15850
1659514661.395593,15849
1659514661.43421,15847
1659514661.473168,15845
1659514661.512126,15852
1659514661.551085,15852
1659514661.592607,15860
1659514661.634128,15857
1659514661.673086,15863
1659514661.712045,15851
1659514661.751003,15857
1659514661.792525,15853
1659514661.834046,15864
1659514661.873005,15868
1659514661.911963,15868
1659514661.950922,15862
1659514661.98988,15864
1659514662.028839,15871
1659514662.067797,15860
1659514662.108293,15862
1659514662.14879,15859
1659514662.187748,15859
1659514662.226707,15856
1659514662.265665,15863
1659514662.307187,15857
1659514662.348708,15860
1659514662.392451,15868
1659514662.436194,15862
1659514662.479937,15864
1659514662.518895,15862
1659514662.557853,15872
1659514662.596812,15862
1659514662.636112,15865
1659514662.675412,15866
1659514662.714712,15869
1659514662.756234,15886
1659514662.797755,15883
1659514662.836372,15885
1659514662.874989,15873
1659514662.913606,15873
1659514662.95564,15873
1659514662.997674,15872
1659514663.035949,15875
1659514663.074224,15874
1659514663.112499,15879
1659514663.151457,15875
1659514663.190416,15887
1659514663.229374,15879
1659514663.271921,15880
1659514663.314468,15880
1659514663.352743,15881
1659514663.391018,15885
1659514663.429293,15880
1659514663.470301,15879
1659514663.51131,15877
1659514663.550952,15886
1659514663.590594,15887
1659514663.630236,15887
1659514663.67227,15881
1659514663.714304,15880
1659514663.754493,15876
1659514663.794682,15866
1659514663.834871,15874
1659514663.875059,15871
1659514663.915248,15869
1659514663.957282,15867
1659514663.999316,15865
1659514664.037591,15883
1659514664.075866,15870
1659514664.114141,15868
1659514664.158909,15872
1659514664.203677,15866
1659514664.248445,15857
1659514664.28074,15858
1659514664.313034,15860
1659514664.356777,15850
1659514664.40052,15856
1659514664.444263,15862
1659514664.478095,15871
1659514664.511928,15860
1659514664.556354,15848
1659514664.60078,15857
1659514664.645206,15853
1659514664.683481,15851
1659514664.721756,15851
1659514664.760031,15853
1659514664.802065,15857
1659514664.8441,15864
1659514664.883058,15859
1659514664.922017,15860
1659514664.960975,15860
1659514664.999592,15857
1659514665.038208,15854
1659514665.076825,15855
1659514665.118859,15866
1659514665.160893,15856
1659514665.19951,15869
1659514665.238127,15866
1659514665.276743,15860
1659514665.31724,15867
1659514665.357736,15865
1659514665.396353,15869
1659514665.434969,15861
1659514665.473586,15866
1659514665.516133,15854
1659514665.55868,15862
1659514665.596955,15849
1659514665.63523,15846
1659514665.673505,15851
1659514665.717589,15846
1659514665.761674,15861
1659514665.805758,15851
1659514665.839078,15841
1659514665.872398,15841
1659514665.916824,15850
1659514665.96125,15849
1659514666.005677,15859
1659514666.039509,15853
1659514666.073341,15851
1659514666.118451,15858
1659514666.163561,15861
1659514666.208671,15854
1659514666.247288,15858
1659514666.285904,15859
1659514666.324521,15856
1659514666.36553,15852
1659514666.406539,15852
1659514666.446181,15843
1659514666.485823,15858
1659514666.525465,15839
1659514666.566473,15832
1659514666.607482,15836
1659514666.646099,15829
1659514666.684716,15822
1659514666.723332,15822
1659514666.762291,15829
1659514666.801249,15824
1659514666.840208,15832
1659514666.882755,15831
1659514666.925301,15832
1659514666.963918,15837
1659514667.002535,15843
1659514667.041152,15850
1659514667.082673,15868
1659514667.124194,15872
1659514667.163836,15873
1659514667.203478,15881
1659514667.24312,15881
1659514667.284642,15855
1659514667.326163,15853
1659514667.36478,15852
1659514667.403397,15866
1659514667.442014,15859
1659514667.484047,15866
1659514667.526082,15874
1659514667.569824,15876
1659514667.613567,15863
1659514667.65731,15873
1659514667.695927,15878
1659514667.734544,15887
1659514667.77316,15895
1659514667.815194,15887
1659514667.857229,15884
1659514667.895845,15889
1659514667.934462,15886
1659514667.973079,15886
1659514668.0146,15876
1659514668.056122,15883
1659514668.09508,15874
1659514668.134039,15893
1659514668.172997,15895
1659514668.211614,15878
1659514668.250231,15880
1659514668.288847,15884
1659514668.330369,15879
1659514668.37189,15879
1659514668.411532,15876
1659514668.451174,15875
1659514668.490816,15893
1659514668.531312,15884
1659514668.571809,15885
1659514668.609742,15883
1659514668.647675,15881
1659514668.685608,15872
1659514668.724567,15869
1659514668.763525,15870
1659514668.802484,15884
1659514668.844518,15873
1659514668.886552,15866
1659514668.927048,15875
1659514668.967545,15871
1659514669.007938,15873
1659514669.048332,15883
1659514669.088726,15875
1659514669.12912,15881
1659514669.169513,15885
1659514669.20813,15893
1659514669.246747,15896
1659514669.285363,15892
1659514669.327398,15891
1659514669.369432,15897
1659514669.408732,15892
1659514669.448032,15880
1659514669.487332,15884
1659514669.528854,15878
1659514669.570375,15887
1659514669.609675,15873
1659514669.648976,15880
1659514669.688276,15879
1659514669.732702,15884
1659514669.777128,15873
1659514669.821555,15876
1659514669.862564,15880
1659514669.903573,15878
1659514669.942189,15884
1659514669.980806,15885
1659514670.019423,15895
1659514670.06197,15895
1659514670.104516,15903
1659514670.142791,15892
1659514670.181066,15893
1659514670.219341,15892
1659514670.2583,15886
1659514670.297258,15888
1659514670.336216,15884
1659514670.378251,15899
1659514670.420285,15884
1659514670.45856,15895
1659514670.496835,15896
1659514670.53511,15899
1659514670.577144,15892
1659514670.619178,15893
1659514670.658478,15894
1659514670.697778,15889
1659514670.737078,15878
1659514670.775353,15873
1659514670.813628,15880
1659514670.851903,15877
1659514670.892912,15878
1659514670.933921,15890
1659514670.97288,15892
1659514671.011838,15904
1659514671.050797,15889
1659514671.092318,15880
1659514671.13384,15884
1659514671.177583,15878
1659514671.221325,15871
1659514671.265068,15888
1659514671.298388,15879
1659514671.331707,15879
1659514671.376134,15885
1659514671.42056,15878
1659514671.464987,15885
1659514671.503945,15875
1659514671.542903,15881
1659514671.581862,15878
1659514671.623896,15892
1659514671.66593,15888
1659514671.704889,15888
1659514671.743847,15899
1659514671.782805,15886
1659514671.823814,15885
1659514671.864823,15879
1659514671.904124,15891
1659514671.943424,15901
1659514671.982724,15892
1659514672.021682,15893
1659514672.060641,15888
1659514672.099599,15888
1659514672.140095,15877
1659514672.180592,15873
1659514672.218867,15867
1659514672.257142,15866
1659514672.295417,15868
1659514672.338476,15870
1659514672.381535,15873
1659514672.41981,15872
1659514672.458085,15870
1659514672.49636,15872
1659514672.535319,15877
1659514672.574277,15870
1659514672.613236,15859
1659514672.655782,15864
1659514672.698329,15872
1659514672.740363,15878
1659514672.782397,15882
1659514672.820672,15896
1659514672.858947,15903
1659514672.897222,15909
1659514672.942332,15897
1659514672.987442,15906
1659514673.032552,15911
1659514673.065359,15894
1659514673.098166,15899
1659514673.142251,15899
1659514673.186335,15901
1659514673.23042,15909
1659514673.269378,15895
1659514673.308336,15902
1659514673.347295,15896
1659514673.389329,15892
1659514673.431363,15894
1659514673.469296,15911
1659514673.50723,15893
1659514673.545163,15889
1659514673.58771,15896
1659514673.630256,15908
1659514673.668873,15903
1659514673.70749,15913
1659514673.746106,15906
1659514673.784723,15915
1659514673.82334,15933
1659514673.861957,15931
1659514673.904503,15936
1659514673.94705,15927
1659514673.986009,15929
1659514674.024967,15919
1659514674.063926,15920
1659514674.104422,15922
1659514674.144918,15906
1659514674.183877,15907
1659514674.222835,15898
1659514674.261793,15902
1659514674.301572,15909
1659514674.341351,15905
1659514674.381129,15912
1659514674.420908,15928
1659514674.460687,15934
1659514674.501952,15941
1659514674.543217,15949
1659514674.584482,15931
1659514674.625747,15941
1659514674.667269,15937
1659514674.70879,15960
1659514674.747407,15964
1659514674.786024,15960
1659514674.824641,15961
1659514674.863941,15952
1659514674.903241,15963
1659514674.942541,15954
1659514674.984575,15969
1659514675.026609,15956
1659514675.065226,15957
1659514675.103843,15962
1659514675.14246,15960
1659514675.184494,15963
1659514675.226528,15953
1659514675.265145,15958
1659514675.303761,15964
1659514675.342378,15977
1659514675.384412,15967
1659514675.426446,15958
1659514675.471214,15950
1659514675.515982,15952
1659514675.56075,15956
1659514675.593045,15958
1659514675.625339,15976
1659514675.669424,15951
1659514675.713508,15965
1659514675.757593,15960
1659514675.796893,15959
1659514675.836193,15963
1659514675.875494,15966
1659514675.91804,15970
1659514675.960587,15967
1659514675.999204,15962
1659514676.037821,15957
1659514676.076437,15960
1659514676.117959,15949
1659514676.15948,15942
1659514676.198439,15946
1659514676.237397,15955
1659514676.276356,15971
1659514676.314972,15955
1659514676.353589,15964
1659514676.392206,15977
1659514676.43424,15982
1659514676.476274,15985
1659514676.515233,15982
1659514676.554191,15971
1659514676.593149,15947
1659514676.634158,15962
1659514676.675167,15954
1659514676.713784,15957
1659514676.752401,15961
1659514676.791017,15961
1659514676.830659,15957
1659514676.870301,15954
1659514676.909943,15942
1659514676.951465,15933
1659514676.992986,15942
1659514677.033995,15944
1659514677.075004,15936
1659514677.113962,15940
1659514677.152921,15946
1659514677.191879,15949
1659514677.236306,15928
1659514677.280732,15912
1659514677.325158,15895
1659514677.364117,15878
1659514677.403075,15855
1659514677.442034,15822
1659514677.483042,15799
1659514677.524051,15791
1659514677.56301,15797
1659514677.601968,15789
1659514677.640927,15791
1659514677.67886,15791
1659514677.716793,15798
1659514677.754726,15792
1659514677.797273,15812
1659514677.83982,15826
1659514677.878437,15833
1659514677.917053,15831
1659514677.95567,15823
1659514677.993945,15833
1659514678.03222,15828
1659514678.070495,15822
1659514678.113042,15819
1659514678.155588,15838
1659514678.194547,15831
1659514678.233505,15832
1659514678.272464,15831
1659514678.313985,15819
1659514678.355507,15828
1659514678.397541,15817
1659514678.439575,15816
1659514678.478534,15817
1659514678.517492,15820
1659514678.55645,15823
1659514678.600535,15817
1659514678.644619,15800
1659514678.688704,15801
1659514678.722537,15801
1659514678.756369,15802
1659514678.801137,15811
1659514678.845905,15800
1659514678.890673,15806
1659514678.928606,15807
1659514678.966539,15819
1659514679.004473,15813
1659514679.045481,15809
1659514679.08649,15818
1659514679.126132,15826
1659514679.165774,15824
1659514679.205416,15831
1659514679.24745,15840
1659514679.289485,15858
1659514679.328443,15863
1659514679.367401,15878
1659514679.40636,15890
1659514679.44566,15893
1659514679.48496,15890
1659514679.524261,15876
1659514679.565782,15884
1659514679.607303,15877
1659514679.648825,15883
1659514679.690346,15893
1659514679.729305,15889
1659514679.768263,15885
1659514679.807222,15893
1659514679.845497,15898
1659514679.883772,15908
1659514679.922047,15917
1659514679.963056,15914
1659514680.004065,15921
1659514680.043023,15911
1659514680.081981,15913
1659514680.12094,15910
1659514680.165025,15918
1659514680.209109,15937
1659514680.253194,15937
1659514680.286513,15942
1659514680.319833,15944
1659514680.364259,15954
1659514680.408686,15941
1659514680.453112,15950
1659514680.485919,15948
1659514680.518726,15952
1659514680.563153,15958
1659514680.607579,15962
1659514680.652005,15967
1659514680.691647,15956
1659514680.731289,15970
1659514680.770931,15984
1659514680.81194,15983
1659514680.852949,15987
1659514680.891224,15980
1659514680.929499,15979
1659514680.967774,15982
1659514681.008783,15970
1659514681.049792,15974
1659514681.089092,15977
1659514681.128392,15970
1659514681.167692,15962
1659514681.206309,15964
1659514681.244925,15956
1659514681.283542,15962
1659514681.325064,15965
1659514681.366585,15962
1659514681.405885,15964
1659514681.445186,15977
1659514681.484486,15965
1659514681.52652,15962
1659514681.568554,15971
1659514681.607171,15966
1659514681.645787,15977
1659514681.684404,15975
1659514681.726438,15969
1659514681.768472,15970
1659514681.807431,15961
1659514681.846389,15960
1659514681.885348,15957
1659514681.927382,15947
1659514681.969416,15941
1659514682.008374,15942
1659514682.047333,15946
1659514682.086292,15943
1659514682.130034,15937
1659514682.173777,15926
1659514682.21752,15931
1659514682.258529,15942
1659514682.299538,15940
1659514682.338496,15940
1659514682.377455,15946
1659514682.416413,15945
1659514682.458447,15932
1659514682.500481,15934
1659514682.53944,15922
1659514682.578398,15922
1659514682.617357,15912
1659514682.656657,15903
1659514682.695957,15896
1659514682.735257,15902
1659514682.776779,15907
1659514682.8183,15902
1659514682.856575,15884
1659514682.89485,15885
1659514682.933125,15891
1659514682.975672,15893
1659514683.018219,15896
1659514683.056835,15892
1659514683.095452,15892
1659514683.134069,15889
1659514683.172002,15914
1659514683.209935,15905
1659514683.247869,15894
1659514683.28939,15902
1659514683.330912,15904
1659514683.369528,15901
1659514683.408145,15894
1659514683.446762,15894
1659514683.488283,15893
1659514683.529805,15892
1659514683.574231,15888
1659514683.618657,15871
1659514683.663084,15871
1659514683.696404,15865
1659514683.729723,15864
1659514683.773808,15865
1659514683.817892,15867
1659514683.861977,15872
1659514683.900935,15885
1659514683.939894,15882
1659514683.978852,15877
1659514684.018152,15879
1659514684.057453,15882
1659514684.096753,15889
1659514684.137249,15885
1659514684.177745,15881
1659514684.216704,15890
1659514684.255662,15884
1659514684.294621,15888
1659514684.333237,15877
1659514684.371854,15882
1659514684.410471,15883
1659514684.451992,15896
1659514684.493514,15884
1659514684.532472,15883
1659514684.571431,15890
1659514684.610389,15888
1659514684.652423,15892
1659514684.694458,15896
1659514684.73615,15894
1659514684.777842,15896
1659514684.819535,15901
1659514684.861227,15890
1659514684.902919,15895
1659514684.944612,15898
1659514684.983912,15900
1659514685.023212,15888
1659514685.062512,15885
1659514685.101129,15890
1659514685.139746,15882
1659514685.178363,15885
1659514685.220909,15895
1659514685.263456,15879
1659514685.302073,15886
1659514685.340689,15875
1659514685.379306,15888
1659514685.417923,15881
1659514685.45654,15874
1659514685.495156,15870
1659514685.536165,15881
1659514685.577174,15879
1659514685.617158,15872
1659514685.657141,15877
1659514685.697125,15877
1659514685.737621,15880
1659514685.778118,15873
1659514685.822886,15871
1659514685.867654,15883
1659514685.912422,15886
1659514685.945741,15877
1659514685.979061,15871
1659514686.023488,15873
1659514686.067914,15874
1659514686.11234,15894
1659514686.14566,15892
1659514686.17898,15890
1659514686.223748,15905
1659514686.268516,15904
1659514686.313284,15907
1659514686.351559,15895
1659514686.389834,15896
1659514686.428109,15881
1659514686.469118,15887
1659514686.510127,15894
1659514686.549085,15888
1659514686.588043,15897
1659514686.627002,15894
1659514686.668523,15895
1659514686.710045,15887
1659514686.74832,15891
1659514686.786595,15888
1659514686.82487,15899
1659514686.86417,15887
1659514686.90347,15890
1659514686.94277,15899
1659514686.984805,15898
1659514687.026839,15910
1659514687.065114,15907
1659514687.103389,15903
1659514687.141664,15911
1659514687.183698,15910
1659514687.225732,15905
1659514687.265032,15893
1659514687.304332,15891
1659514687.343632,15880
