LocalTimestamp,PG
1659435067.29926,8813
1659435067.341804,8844
1659435067.384348,8902
1659435067.422962,8905
1659435067.461576,8813
1659435067.500191,9203
1659435067.540684,9359
1659435067.581178,9287
1659435067.620476,9284
1659435067.659773,9368
1659435067.699071,9509
1659435067.741102,9521
1659435067.783134,9471
1659435067.821748,9484
1659435067.860362,9391
1659435067.898976,9319
1659435067.943399,9161
1659435067.987823,8892
1659435068.032246,8559
1659435068.065051,8383
1659435068.097856,8512
1659435068.141596,8632
1659435068.185336,8657
1659435068.229076,8688
1659435068.262906,8832
1659435068.296736,9035
1659435068.34116,9318
1659435068.385583,9643
1659435068.430006,9742
1659435068.468279,9713
1659435068.506551,9696
1659435068.544824,9669
1659435068.58583,9718
1659435068.626836,9782
1659435068.665792,9815
1659435068.704748,9826
1659435068.743704,9704
1659435068.78266,9736
1659435068.821615,9982
1659435068.860571,10016
1659435068.90209,10005
1659435068.943609,10041
1659435068.982565,10225
1659435069.021521,10401
1659435069.060477,10472
1659435069.102508,10525
1659435069.144539,10755
1659435069.183495,10941
1659435069.222451,11047
1659435069.261407,11065
1659435069.303438,11173
1659435069.34547,11237
1659435069.384426,11267
1659435069.423382,11285
1659435069.462337,11280
1659435069.502831,11265
1659435069.543325,11238
1659435069.582622,11120
1659435069.62192,11089
1659435069.661217,11099
1659435069.705299,11126
1659435069.749381,11185
1659435069.793463,11255
1659435069.826267,11268
1659435069.859072,11295
1659435069.903837,11342
1659435069.948603,11318
1659435069.993368,11393
1659435070.034887,11443
1659435070.076405,11493
1659435070.115703,11540
1659435070.155,11554
1659435070.194298,11551
1659435070.233254,11584
1659435070.27221,11624
1659435070.311166,11633
1659435070.353197,11652
1659435070.395229,11665
1659435070.433501,11583
1659435070.471773,11565
1659435070.510046,11588
1659435070.552077,11598
1659435070.594109,11618
1659435070.633065,11663
1659435070.67202,11678
1659435070.710976,11690
1659435070.748907,11674
1659435070.786838,11684
1659435070.824769,11715
1659435070.865262,11797
1659435070.905756,11842
1659435070.945395,11858
1659435070.985034,11867
1659435071.024674,11882
1659435071.066192,11868
1659435071.107711,11871
1659435071.146667,11825
1659435071.185623,11773
1659435071.224579,11757
1659435071.266098,11729
1659435071.307616,11712
1659435071.35204,11753
1659435071.396463,11730
1659435071.440887,11724
1659435071.478817,11682
1659435071.516748,11710
1659435071.554679,11748
1659435071.597735,11785
1659435071.640792,11791
1659435071.679064,11796
1659435071.717337,11804
1659435071.755609,11783
1659435071.796103,11789
1659435071.836596,11771
1659435071.875894,11727
1659435071.915192,11726
1659435071.954489,11699
1659435071.99406,11679
1659435072.033631,11684
1659435072.073202,11679
1659435072.112773,11682
1659435072.152344,11697
1659435072.194888,11712
1659435072.237432,11721
1659435072.276046,11716
1659435072.314661,11720
1659435072.353275,11751
1659435072.392231,11779
1659435072.431186,11792
1659435072.470142,11799
1659435072.512174,11770
1659435072.554205,11716
1659435072.593503,11681
1659435072.6328,11671
1659435072.672098,11683
1659435072.712591,11706
1659435072.753085,11734
1659435072.792041,11759
1659435072.830997,11773
1659435072.869953,11796
1659435072.912497,11787
1659435072.955041,11794
1659435072.993313,11811
1659435073.031586,11848
1659435073.069858,11895
1659435073.110864,11937
1659435073.15187,11974
1659435073.191168,12003
1659435073.230466,12050
1659435073.269763,12068
1659435073.311795,12091
1659435073.353826,12117
1659435073.392782,12137
1659435073.431738,12177
1659435073.470694,12196
1659435073.5158,12218
1659435073.560907,12240
1659435073.606014,12221
1659435073.638819,12225
1659435073.671624,12223
1659435073.715364,12240
1659435073.759104,12229
1659435073.802844,12226
1659435073.845388,12252
1659435073.887932,12245
1659435073.925863,12228
1659435073.963793,12212
1659435074.001724,12217
1659435074.040338,12197
1659435074.078952,12208
1659435074.117567,12221
1659435074.158573,12209
1659435074.199579,12215
1659435074.238877,12204
1659435074.278174,12202
1659435074.317472,12200
1659435074.356086,12199
1659435074.3947,12206
1659435074.433314,12189
1659435074.474833,12158
1659435074.516352,12109
1659435074.55565,12079
1659435074.594947,12062
1659435074.634245,12047
1659435074.675763,12061
1659435074.717282,12050
1659435074.756238,12035
1659435074.795194,12037
1659435074.83415,12019
1659435074.875669,12008
1659435074.917187,11995
1659435074.95546,11996
1659435074.993732,12003
1659435075.032005,12036
1659435075.074036,11993
1659435075.116068,12005
1659435075.160491,12026
1659435075.204914,12027
1659435075.249338,12003
1659435075.287952,11997
1659435075.326566,12019
1659435075.36518,12008
1659435075.406186,11999
1659435075.447193,11997
1659435075.486832,11994
1659435075.526471,12023
1659435075.566111,12024
1659435075.607629,12009
1659435075.649148,12015
1659435075.687762,12000
1659435075.726377,11981
1659435075.764991,11968
1659435075.80463,11932
1659435075.844269,11927
1659435075.883909,11939
1659435075.925427,11945
1659435075.966946,11926
1659435076.005219,11944
1659435076.043491,11959
1659435076.081764,11964
1659435076.12482,12000
1659435076.167877,11993
1659435076.206491,11991
1659435076.245105,11983
1659435076.283719,11954
1659435076.322333,11931
1659435076.360948,11920
1659435076.399562,11904
1659435076.441081,11874
1659435076.482599,11867
1659435076.521213,11863
1659435076.559828,11846
1659435076.598442,11850
1659435076.639961,11844
1659435076.681479,11837
1659435076.726586,11836
1659435076.771693,11851
1659435076.8168,11861
1659435076.849605,11894
1659435076.88241,11913
1659435076.926491,11923
1659435076.970573,11937
1659435077.014655,11947
1659435077.052073,11954
1659435077.089491,11977
1659435077.126909,11963
1659435077.164327,11957
1659435077.2026,11919
1659435077.240872,11880
1659435077.279145,11855
1659435077.323568,11817
1659435077.367991,11809
1659435077.412415,11791
1659435077.446245,11794
1659435077.480075,11769
1659435077.523815,11773
1659435077.567555,11767
1659435077.611295,11744
1659435077.652814,11738
1659435077.694333,11733
1659435077.73363,11733
1659435077.772928,11745
1659435077.812225,11762
1659435077.85084,11771
1659435077.889454,11785
1659435077.928068,11807
1659435077.970612,11815
1659435078.013156,11831
1659435078.052112,11805
1659435078.091068,11764
1659435078.130023,11731
1659435078.170517,11700
1659435078.211011,11643
1659435078.249283,11629
1659435078.287555,11652
1659435078.325828,11657
1659435078.365467,11632
1659435078.405107,11637
1659435078.444746,11618
1659435078.485752,11599
1659435078.526758,11540
1659435078.565373,11514
1659435078.603987,11487
1659435078.642601,11485
1659435078.68412,11453
1659435078.725638,11419
1659435078.765278,11402
1659435078.804917,11405
1659435078.844557,11425
1659435078.886075,11460
1659435078.927594,11496
1659435078.972359,11511
1659435079.017124,11488
1659435079.061889,11434
1659435079.09572,11407
1659435079.12955,11390
1659435079.173631,11360
1659435079.217713,11351
1659435079.261795,11363
1659435079.301434,11377
1659435079.341073,11390
1659435079.380713,11384
1659435079.421719,11377
1659435079.462725,11343
1659435079.500998,11328
1659435079.53927,11323
1659435079.577542,11302
1659435079.616157,11300
1659435079.654771,11272
1659435079.693385,11267
1659435079.734904,11250
1659435079.776423,11253
1659435079.815037,11248
1659435079.853651,11227
1659435079.892265,11231
1659435079.933784,11215
1659435079.975302,11179
1659435080.014258,11143
1659435080.053214,11142
1659435080.09217,11135
1659435080.130784,11125
1659435080.169399,11106
1659435080.208013,11086
1659435080.249532,11089
1659435080.29105,11048
1659435080.33069,11032
1659435080.370329,11030
1659435080.409968,11038
1659435080.450462,11028
1659435080.490956,11019
1659435080.535037,11050
1659435080.579119,11093
1659435080.6232,11143
1659435080.657031,11184
1659435080.690861,11183
1659435080.734942,11165
1659435080.779024,11102
1659435080.823106,11034
1659435080.861037,11002
1659435080.898967,10953
1659435080.936898,10917
1659435080.978929,10878
1659435081.020961,10837
1659435081.059916,10784
1659435081.098872,10759
1659435081.137828,10734
1659435081.179347,10741
1659435081.220866,10744
1659435081.260164,10738
1659435081.299461,10737
1659435081.338759,10773
1659435081.377373,10815
1659435081.415987,10876
1659435081.454601,10918
1659435081.495095,10963
1659435081.535589,10983
1659435081.574886,11015
1659435081.614184,11026
1659435081.653481,11003
1659435081.695513,10947
1659435081.737544,10941
1659435081.776158,10916
1659435081.814772,10892
1659435081.853387,10862
1659435081.892343,10826
1659435081.931298,10814
1659435081.970254,10814
1659435082.011773,10800
1659435082.053292,10777
1659435082.09481,10741
1659435082.136329,10756
1659435082.175627,10768
1659435082.214925,10756
1659435082.254222,10757
1659435082.298987,10768
1659435082.343752,10778
1659435082.388518,10807
1659435082.421323,10828
1659435082.454128,10855
1659435082.494313,10864
1659435082.5345,10847
1659435082.574686,10813
1659435082.614872,10749
1659435082.655058,10741
1659435082.698798,10701
1659435082.742538,10686
1659435082.786278,10714
1659435082.827796,10722
1659435082.869315,10748
1659435082.907929,10740
1659435082.946544,10734
1659435082.985158,10742
1659435083.024114,10717
1659435083.06307,10681
1659435083.102026,10656
1659435083.143032,10629
1659435083.184038,10612
1659435083.223336,10617
1659435083.262633,10593
1659435083.301931,10603
1659435083.342937,10631
1659435083.383943,10685
1659435083.423241,10733
1659435083.462538,10769
1659435083.501836,10777
1659435083.54045,10782
1659435083.579064,10770
1659435083.617678,10738
1659435083.65971,10704
1659435083.701741,10693
1659435083.740014,10678
1659435083.778286,10651
1659435083.816559,10621
1659435083.858077,10625
1659435083.899596,10657
1659435083.938552,10681
1659435083.977508,10730
1659435084.016464,10743
1659435084.056957,10760
1659435084.097451,10762
1659435084.135723,10740
1659435084.173996,10734
1659435084.212268,10740
1659435084.257033,10754
1659435084.301799,10758
1659435084.346564,10775
1659435084.388595,10800
1659435084.430626,10819
1659435084.469924,10816
1659435084.509222,10825
1659435084.548519,10825
1659435084.590038,10799
1659435084.631557,10778
1659435084.670854,10748
1659435084.710152,10711
1659435084.749449,10705
1659435084.788064,10683
1659435084.826678,10690
1659435084.865292,10691
1659435084.908349,10707
1659435084.951405,10704
1659435084.989678,10710
1659435085.02795,10736
1659435085.066222,10750
1659435085.107229,10767
1659435085.148235,10735
1659435085.187532,10671
1659435085.22683,10628
1659435085.266128,10597
1659435085.304059,10584
1659435085.341989,10563
1659435085.37992,10611
1659435085.421439,10649
1659435085.462958,10672
1659435085.502255,10704
1659435085.541553,10734
1659435085.58085,10749
1659435085.622369,10737
1659435085.663888,10723
1659435085.702844,10700
1659435085.7418,10703
1659435085.780756,10684
1659435085.822787,10670
1659435085.864818,10680
1659435085.909583,10692
1659435085.954349,10737
1659435085.999114,10744
1659435086.030893,10757
1659435086.062673,10752
1659435086.107438,10718
1659435086.152203,10682
1659435086.196969,10650
1659435086.235241,10599
1659435086.273514,10583
1659435086.311786,10568
1659435086.353305,10562
1659435086.394824,10577
1659435086.433779,10581
1659435086.472735,10582
1659435086.511691,10575
1659435086.553722,10587
1659435086.595754,10624
1659435086.634026,10606
1659435086.672299,10587
1659435086.710571,10552
1659435086.750211,10513
1659435086.78985,10492
1659435086.829489,10482
1659435086.871008,10499
1659435086.912527,10502
1659435086.951141,10513
1659435086.989755,10518
1659435087.028369,10520
1659435087.069376,10507
1659435087.110382,10485
1659435087.149679,10462
1659435087.188977,10422
1659435087.228275,10398
1659435087.268768,10364
1659435087.309262,10355
1659435087.348218,10353
1659435087.387174,10361
1659435087.426129,10394
1659435087.467648,10418
1659435087.509167,10442
1659435087.548465,10472
1659435087.587762,10460
1659435087.62706,10471
1659435087.671825,10458
1659435087.71659,10444
1659435087.761355,10395
1659435087.798773,10359
1659435087.836191,10328
1659435087.87361,10355
1659435087.911028,10361
1659435087.953059,10394
1659435087.99509,10405
1659435088.034388,10411
1659435088.073686,10405
1659435088.112983,10379
1659435088.15399,10348
1659435088.194996,10336
1659435088.23361,10315
1659435088.272224,10349
1659435088.310838,10355
1659435088.35287,10378
1659435088.394901,10422
1659435088.433857,10481
1659435088.472813,10558
1659435088.511769,10600
1659435088.55585,10620
1659435088.599932,10578
1659435088.644014,10522
1659435088.676819,10475
1659435088.709624,10441
1659435088.754389,10393
1659435088.799154,10384
1659435088.843919,10358
1659435088.885438,10353
1659435088.926956,10369
1659435088.965571,10383
1659435089.004185,10409
1659435089.042799,10435
1659435089.081755,10449
1659435089.120711,10489
1659435089.159667,10486
1659435089.201185,10468
1659435089.242704,10427
1659435089.282002,10436
1659435089.321299,10436
1659435089.360597,10426
1659435089.401091,10421
1659435089.441584,10427
1659435089.48054,10434
1659435089.519496,10412
1659435089.558452,10365
1659435089.596383,10334
1659435089.634313,10305
1659435089.672244,10269
1659435089.714276,10195
1659435089.756307,10165
1659435089.794921,10147
1659435089.833535,10143
1659435089.872149,10155
1659435089.913156,10170
1659435089.954162,10216
1659435089.993459,10251
1659435090.032757,10262
1659435090.072055,10283
1659435090.114599,10289
1659435090.157143,10280
1659435090.195415,10261
1659435090.233687,10214
1659435090.27196,10212
1659435090.316725,10204
1659435090.36149,10184
1659435090.406255,10157
1659435090.447774,10170
1659435090.489293,10159
1659435090.527565,10170
1659435090.565838,10202
1659435090.60411,10210
1659435090.646142,10227
1659435090.688173,10212
1659435090.72747,10168
1659435090.766768,10114
1659435090.806066,10098
1659435090.843997,10124
1659435090.881927,10142
1659435090.919858,10159
1659435090.961889,10197
1659435091.003921,10227
1659435091.043218,10258
1659435091.082516,10290
1659435091.121814,10343
1659435091.163845,10379
1659435091.205876,10446
1659435091.244832,10432
1659435091.283788,10407
1659435091.322744,10344
1659435091.3617,10305
1659435091.400656,10313
1659435091.439611,10311
1659435091.480618,10312
1659435091.521624,10318
1659435091.560238,10345
1659435091.598852,10379
1659435091.637466,10391
1659435091.68001,10381
1659435091.722554,10372
1659435091.760827,10377
1659435091.799099,10395
1659435091.837372,10369
1659435091.878378,10379
1659435091.919384,10393
1659435091.964149,10412
1659435092.008914,10439
1659435092.053679,10469
1659435092.086484,10502
1659435092.119289,10510
1659435092.163713,10522
1659435092.208136,10483
1659435092.252559,10458
1659435092.291515,10397
1659435092.330471,10384
1659435092.369427,10385
1659435092.410946,10407
1659435092.452465,10432
1659435092.491079,10453
1659435092.529693,10448
1659435092.568307,10439
1659435092.610851,10441
1659435092.653395,10448
1659435092.691668,10471
1659435092.72994,10467
1659435092.768213,10462
1659435092.806485,10457
1659435092.844757,10468
1659435092.88303,10444
1659435092.924036,10481
1659435092.965042,10518
1659435093.003998,10584
1659435093.042954,10626
1659435093.08191,10684
1659435093.120524,10721
1659435093.159138,10693
1659435093.197752,10665
1659435093.239271,10604
1659435093.28079,10547
1659435093.325555,10498
1659435093.37032,10482
1659435093.415085,10462
1659435093.453699,10481
1659435093.492314,10483
1659435093.530928,10486
1659435093.573472,10512
1659435093.616016,10518
1659435093.654972,10544
1659435093.693928,10534
1659435093.732883,10535
1659435093.77389,10532
1659435093.814896,10501
1659435093.853852,10481
1659435093.892807,10486
1659435093.931763,10505
1659435093.971061,10524
1659435094.010359,10542
1659435094.049656,10529
1659435094.091175,10512
1659435094.132694,10483
1659435094.171308,10459
1659435094.209922,10432
1659435094.248536,10393
1659435094.288176,10372
1659435094.327815,10350
1659435094.367454,10349
1659435094.408461,10348
1659435094.449467,10380
1659435094.488081,10401
1659435094.526695,10436
1659435094.565309,10453
1659435094.608366,10488
1659435094.651422,10504
1659435094.690037,10496
1659435094.728651,10499
1659435094.767265,10473
1659435094.807758,10465
1659435094.848252,10459
1659435094.892675,10472
1659435094.937099,10477
1659435094.981522,10492
1659435095.015352,10474
1659435095.049182,10441
1659435095.093264,10434
1659435095.137346,10397
1659435095.181427,10374
1659435095.220383,10362
1659435095.259339,10362
1659435095.298295,10347
1659435095.339301,10358
1659435095.380307,10377
1659435095.41858,10380
1659435095.456852,10415
1659435095.495125,10440
1659435095.534764,10451
1659435095.574404,10473
1659435095.614043,10476
1659435095.655049,10485
1659435095.696055,10469
1659435095.734328,10451
1659435095.7726,10448
1659435095.810873,10464
1659435095.852904,10469
1659435095.894935,10470
1659435095.934233,10480
1659435095.973531,10447
1659435096.012828,10426
1659435096.051101,10408
1659435096.089373,10387
1659435096.127645,10378
1659435096.169164,10379
1659435096.210683,10386
1659435096.249297,10402
1659435096.287911,10409
1659435096.326526,10443
1659435096.368044,10455
1659435096.409563,10470
1659435096.454328,10476
1659435096.499093,10494
1659435096.543859,10502
1659435096.577176,10506
1659435096.610494,10471
1659435096.654575,10466
1659435096.698657,10466
1659435096.742738,10496
1659435096.777081,10496
1659435096.811424,10481
1659435096.856189,10457
1659435096.900954,10408
1659435096.945719,10382
1659435096.984334,10357
1659435097.022948,10335
1659435097.061562,10321
1659435097.103081,10302
1659435097.144599,10298
1659435097.183213,10309
1659435097.221828,10312
1659435097.260442,10319
1659435097.301961,10330
1659435097.343479,10320
1659435097.382094,10333
1659435097.420708,10323
1659435097.459322,10325
1659435097.498278,10321
1659435097.537234,10316
1659435097.57619,10329
1659435097.617708,10328
1659435097.659227,10330
1659435097.698183,10343
1659435097.737139,10346
1659435097.776095,10345
1659435097.818639,10320
1659435097.861183,10297
1659435097.900139,10267
1659435097.939095,10246
1659435097.97805,10219
1659435098.019569,10197
1659435098.061088,10194
1659435098.100044,10196
1659435098.139,10198
1659435098.177956,10191
1659435098.219475,10194
1659435098.260993,10191
1659435098.302512,10226
1659435098.344031,10264
1659435098.385037,10263
1659435098.426043,10281
1659435098.465341,10277
1659435098.504638,10300
1659435098.543936,10323
1659435098.584942,10344
1659435098.625948,10363
1659435098.664221,10385
1659435098.702493,10397
1659435098.740766,10406
1659435098.780063,10398
1659435098.819361,10380
1659435098.858659,10358
1659435098.900177,10341
1659435098.941696,10317
1659435098.979969,10330
1659435099.018241,10337
1659435099.056514,10332
1659435099.098545,10347
1659435099.140576,10351
1659435099.179874,10359
1659435099.219172,10359
1659435099.258469,10378
1659435099.299988,10385
1659435099.341507,10377
1659435099.38593,10389
1659435099.430353,10375
1659435099.474777,10366
1659435099.508094,10362
1659435099.541412,10351
1659435099.585152,10349
1659435099.628892,10347
1659435099.672632,10339
1659435099.711588,10323
1659435099.750544,10312
1659435099.7895,10274
1659435099.832043,10250
1659435099.874587,10231
1659435099.913202,10201
1659435099.951816,10193
1659435099.99043,10184
1659435100.029727,10175
1659435100.069025,10167
1659435100.108323,10170
1659435100.150354,10179
1659435100.192385,10194
1659435100.230658,10201
1659435100.26893,10231
1659435100.307203,10233
1659435100.349234,10244
1659435100.391265,10233
1659435100.430563,10230
1659435100.469861,10242
1659435100.509158,10240
1659435100.547089,10248
1659435100.58502,10279
1659435100.622951,10296
1659435100.664469,10311
1659435100.705988,10292
1659435100.744944,10268
1659435100.7839,10228
1659435100.822856,10228
1659435100.864374,10211
1659435100.905893,10209
1659435100.950317,10201
1659435100.99474,10188
1659435101.039163,10180
1659435101.072994,10174
1659435101.106824,10181
1659435101.151247,10177
1659435101.19567,10174
1659435101.240094,10172
1659435101.273411,10163
1659435101.306729,10178
1659435101.351836,10172
1659435101.396943,10191
1659435101.442049,10187
1659435101.47998,10187
1659435101.517911,10193
1659435101.555842,10211
1659435101.596335,10223
1659435101.636829,10221
1659435101.675785,10230
1659435101.714741,10212
1659435101.753696,10199
1659435101.795728,10169
1659435101.837759,10130
1659435101.876032,10136
1659435101.914304,10119
1659435101.952577,10122
1659435101.991533,10120
1659435102.030488,10127
1659435102.069444,10145
1659435102.110963,10145
1659435102.152482,10149
1659435102.191438,10156
1659435102.230394,10162
1659435102.26935,10172
1659435102.308306,10194
1659435102.347261,10197
1659435102.386217,10189
1659435102.427736,10193
1659435102.469255,10207
1659435102.510773,10221
1659435102.552292,10242
1659435102.59159,10275
1659435102.630888,10302
1659435102.670185,10305
1659435102.711191,10302
1659435102.752198,10256
1659435102.791153,10229
1659435102.830109,10208
1659435102.869065,10206
1659435102.913147,10193
1659435102.957229,10185
1659435103.00131,10195
1659435103.034628,10179
1659435103.067945,10204
1659435103.112027,10194
1659435103.156109,10216
1659435103.20019,10229
1659435103.239146,10244
1659435103.278102,10251
1659435103.317058,10254
1659435103.359089,10256
1659435103.401121,10261
1659435103.440077,10267
1659435103.479033,10262
1659435103.517988,10273
1659435103.56002,10286
1659435103.602051,10297
1659435103.641349,10296
1659435103.680646,10308
1659435103.719944,10268
1659435103.758558,10246
1659435103.797172,10228
1659435103.835786,10202
1659435103.876793,10191
1659435103.917799,10178
1659435103.956755,10173
1659435103.995711,10176
1659435104.034667,10171
1659435104.076698,10179
1659435104.118729,10183
1659435104.15666,10179
1659435104.194591,10178
1659435104.232522,10196
1659435104.274553,10205
1659435104.316584,10227
1659435104.35554,10236
1659435104.394496,10241
1659435104.433452,10258
1659435104.477534,10273
1659435104.521615,10309
1659435104.565697,10320
1659435104.604995,10331
1659435104.644292,10309
1659435104.68359,10278
1659435104.725108,10254
1659435104.766627,10219
1659435104.804558,10205
1659435104.842489,10181
1659435104.880419,10160
1659435104.921426,10151
1659435104.962432,10141
1659435105.001388,10123
1659435105.040344,10113
1659435105.079299,10107
1659435105.117914,10102
1659435105.156528,10114
1659435105.195142,10136
1659435105.236661,10151
1659435105.27818,10177
1659435105.316794,10194
1659435105.355408,10219
1659435105.394022,10231
1659435105.432636,10238
1659435105.471251,10247
1659435105.509865,10240
1659435105.552408,10249
1659435105.594953,10212
1659435105.639718,10170
1659435105.684483,10139
1659435105.729248,10105
1659435105.76154,10085
1659435105.793833,10072
1659435105.838939,10061
1659435105.884046,10054
1659435105.929153,10071
1659435105.962983,10067
1659435105.996813,10085
1659435106.040553,10092
1659435106.084293,10107
1659435106.128033,10119
1659435106.166989,10146
1659435106.205945,10175
1659435106.244901,10173
1659435106.28642,10181
1659435106.327938,10183
1659435106.365869,10184
1659435106.4038,10214
1659435106.44173,10230
1659435106.481028,10249
1659435106.520326,10243
1659435106.559623,10235
1659435106.602167,10227
1659435106.644711,10211
1659435106.683326,10182
1659435106.72194,10187
1659435106.760554,10186
1659435106.802073,10165
1659435106.843591,10159
1659435106.882889,10163
1659435106.922187,10164
1659435106.961484,10171
1659435107.003003,10165
1659435107.044522,10163
1659435107.083136,10158
1659435107.12175,10170
1659435107.160364,10184
1659435107.201883,10190
1659435107.243402,10189
1659435107.282016,10186
1659435107.32063,10190
1659435107.359244,10207
1659435107.402984,10219
1659435107.446724,10238
1659435107.490464,10225
1659435107.524294,10203
1659435107.558125,10165
1659435107.602548,10124
1659435107.646971,10102
1659435107.691395,10081
1659435107.724712,10074
1659435107.75803,10073
1659435107.802453,10080
1659435107.846876,10079
1659435107.8913,10073
1659435107.930256,10086
1659435107.969212,10094
1659435108.008168,10108
1659435108.049686,10111
1659435108.091205,10123
1659435108.129819,10118
1659435108.168433,10119
1659435108.207048,10130
1659435108.248054,10144
1659435108.28906,10152
1659435108.327674,10164
1659435108.366288,10184
1659435108.404902,10202
1659435108.4442,10179
1659435108.483498,10142
1659435108.522795,10118
1659435108.564314,10094
1659435108.605833,10074
1659435108.644105,10061
1659435108.682378,10057
1659435108.72065,10046
1659435108.765074,10042
1659435108.809497,10035
1659435108.85392,10025
1659435108.888263,10028
1659435108.922606,10018
1659435108.966687,10016
1659435109.010769,10030
1659435109.054851,10028
1659435109.087656,10046
1659435109.120461,10060
1659435109.165909,10081
1659435109.211358,10097
1659435109.256806,10115
1659435109.295079,10139
1659435109.333351,10140
1659435109.371624,10149
1659435109.413655,10111
1659435109.455686,10062
1659435109.494984,10040
1659435109.534282,10008
1659435109.573579,9991
1659435109.614585,9983
1659435109.655592,9980
1659435109.693864,9984
1659435109.732136,10009
1659435109.770409,10007
1659435109.810048,10014
1659435109.849688,10032
1659435109.889327,10042
1659435109.931358,10049
1659435109.97339,10070
1659435110.012346,10084
1659435110.051301,10093
1659435110.090257,10114
1659435110.132289,10128
1659435110.17432,10149
1659435110.212934,10146
1659435110.251549,10165
1659435110.290163,10174
1659435110.333903,10170
1659435110.377643,10141
1659435110.421382,10115
1659435110.455725,10088
1659435110.490068,10075
1659435110.533808,10057
1659435110.577548,10039
1659435110.621288,10030
1659435110.659902,10027
1659435110.698516,10039
1659435110.73713,10038
1659435110.778136,10040
1659435110.819143,10058
1659435110.857757,10056
1659435110.896371,10060
1659435110.934985,10061
1659435110.976504,10067
1659435111.018023,10074
1659435111.05732,10098
1659435111.096618,10120
1659435111.135916,10130
1659435111.17453,10154
1659435111.213144,10164
1659435111.251758,10152
1659435111.293277,10111
1659435111.334796,10070
1659435111.374435,10043
1659435111.414074,10029
1659435111.453714,10010
1659435111.492328,9978
1659435111.530942,9968
1659435111.569556,9973
1659435111.61005,9977
1659435111.650543,10000
1659435111.692062,10021
1659435111.733581,10054
1659435111.772879,10051
1659435111.812176,10047
1659435111.851474,10042
1659435111.895555,10050
1659435111.939637,10060
1659435111.983719,10075
1659435112.016011,10101
1659435112.048304,10120
1659435112.093069,10127
1659435112.137834,10145
1659435112.182599,10135
1659435112.216429,10119
1659435112.250259,10079
1659435112.291949,10045
1659435112.333638,10021
1659435112.375328,10005
1659435112.417018,9991
1659435112.458707,9980
1659435112.500397,9982
1659435112.542428,9980
1659435112.58446,9982
1659435112.623074,9968
1659435112.661688,9971
1659435112.700302,9991
1659435112.742846,9996
1659435112.78539,10011
1659435112.824004,10014
1659435112.862618,10028
1659435112.901232,10039
1659435112.939847,10045
1659435112.978461,10038
1659435113.017075,10052
1659435113.058594,10056
1659435113.100113,10062
1659435113.139069,10055
1659435113.178025,10014
1659435113.21698,9977
1659435113.258499,9951
1659435113.300018,9946
1659435113.339315,9942
1659435113.378613,9952
1659435113.417911,9960
1659435113.45943,9977
1659435113.500948,9973
1659435113.539221,9980
1659435113.577493,9974
1659435113.615766,9967
1659435113.657797,9969
1659435113.699828,9961
1659435113.738784,9960
1659435113.77774,9970
1659435113.816696,9997
1659435113.860436,10010
1659435113.904176,10016
1659435113.947916,10006
1659435113.98559,10005
1659435114.023265,10016
1659435114.060939,10025
1659435114.098614,10031
1659435114.142354,10015
1659435114.186094,9992
1659435114.229834,9984
1659435114.262639,9967
1659435114.295444,9957
1659435114.34055,9964
1659435114.385657,9973
1659435114.430764,9981
1659435114.469378,9992
1659435114.507992,9990
1659435114.546607,9986
1659435114.588125,9999
1659435114.629644,9989
1659435114.668941,9988
1659435114.708239,9998
1659435114.747537,10006
1659435114.788543,10000
1659435114.829549,10029
1659435114.86748,10050
1659435114.905411,10072
1659435114.943341,10084
1659435114.982639,10103
1659435115.021937,10111
1659435115.061234,10108
1659435115.103266,10108
1659435115.145297,10090
1659435115.183911,10054
1659435115.222525,10021
1659435115.26114,10004
1659435115.300095,10000
1659435115.339051,10014
1659435115.378007,10027
1659435115.419526,10047
1659435115.461045,10056
1659435115.503076,10067
1659435115.545107,10073
1659435115.584405,10059
1659435115.623703,10057
1659435115.663,10060
1659435115.705032,10066
1659435115.747063,10069
1659435115.785677,10080
1659435115.824291,10110
1659435115.862906,10109
1659435115.907671,10109
1659435115.952436,10125
1659435115.997201,10157
1659435116.030518,10194
1659435116.063836,10213
1659435116.107576,10221
1659435116.151316,10231
1659435116.195056,10218
1659435116.236575,10216
1659435116.278093,10206
1659435116.316366,10193
1659435116.354638,10163
1659435116.392911,10163
1659435116.431867,10130
1659435116.470823,10127
1659435116.509778,10146
1659435116.551297,10166
1659435116.592816,10186
1659435116.631772,10201
1659435116.670728,10198
1659435116.709684,10193
1659435116.748298,10193
1659435116.786912,10194
1659435116.825526,10191
1659435116.867558,10194
1659435116.909589,10182
1659435116.948545,10162
1659435116.987501,10137
1659435117.026457,10129
1659435117.067463,10129
1659435117.108469,10135
1659435117.147083,10128
1659435117.185697,10120
1659435117.224311,10106
1659435117.26583,10091
1659435117.307349,10090
1659435117.346305,10088
1659435117.385261,10081
1659435117.424217,10059
1659435117.46471,10045
1659435117.505204,10045
1659435117.54416,10059
1659435117.583116,10085
1659435117.622072,10121
1659435117.666495,10157
1659435117.710918,10179
1659435117.755342,10196
1659435117.79686,10197
1659435117.838379,10217
1659435117.877677,10229
1659435117.916975,10242
1659435117.956272,10243
1659435117.997278,10180
1659435118.038285,10146
1659435118.076899,10111
1659435118.115513,10086
1659435118.154127,10084
1659435118.193083,10106
1659435118.232039,10162
1659435118.270995,10197
1659435118.313539,10219
1659435118.356083,10219
1659435118.394697,10215
1659435118.433311,10216
1659435118.471925,10215
1659435118.510881,10188
1659435118.549837,10187
1659435118.588793,10177
1659435118.630312,10159
1659435118.67183,10165
1659435118.710103,10155
1659435118.748375,10162
1659435118.786648,10168
1659435118.829192,10163
1659435118.871736,10161
1659435118.911033,10153
1659435118.950331,10159
1659435118.989629,10180
1659435119.030635,10173
1659435119.071641,10160
1659435119.110597,10135
1659435119.149553,10101
1659435119.188509,10063
1659435119.233274,10071
1659435119.278039,10071
1659435119.322804,10103
1659435119.361418,10155
1659435119.400032,10183
1659435119.438646,10191
1659435119.479653,10169
1659435119.520659,10172
1659435119.559956,10167
1659435119.599254,10164
1659435119.638552,10145
1659435119.676482,10117
1659435119.714413,10099
1659435119.752344,10068
1659435119.794888,10046
1659435119.837432,10049
1659435119.876388,10043
1659435119.915344,10042
1659435119.954299,10048
1659435119.995306,10060
1659435120.036312,10065
1659435120.075268,10077
1659435120.114223,10058
1659435120.153179,10049
1659435120.195723,10060
1659435120.238267,10057
1659435120.276881,10072
1659435120.315496,10083
1659435120.35411,10109
1659435120.395116,10122
1659435120.436122,10147
1659435120.474736,10171
1659435120.51335,10174
1659435120.551965,10198
1659435120.595705,10181
1659435120.639445,10144
1659435120.683185,10125
1659435120.724703,10100
1659435120.766222,10084
1659435120.80552,10092
1659435120.844817,10088
1659435120.884115,10110
1659435120.925634,10116
1659435120.967153,10116
1659435121.006109,10113
1659435121.045064,10130
1659435121.08402,10132
1659435121.123318,10128
1659435121.162616,10151
1659435121.201913,10143
1659435121.243944,10160
1659435121.285976,10162
1659435121.324932,10158
1659435121.363888,10153
1659435121.402843,10142
1659435121.444362,10141
1659435121.485881,10108
1659435121.524495,10076
1659435121.563109,10056
1659435121.601723,10042
1659435121.640338,10053
1659435121.678952,10048
1659435121.717566,10055
1659435121.76011,10046
1659435121.802654,10044
1659435121.84161,10039
1659435121.880566,10042
1659435121.919522,10041
1659435121.960015,10041
1659435122.000509,10062
1659435122.039465,10077
1659435122.078421,10088
1659435122.117377,10115
1659435122.159408,10137
1659435122.201439,10168
1659435122.245863,10167
1659435122.290286,10171
1659435122.334709,10159
1659435122.368027,10130
1659435122.401345,10109
1659435122.44611,10079
1659435122.490875,10049
1659435122.53564,10028
1659435122.573912,10004
1659435122.612185,10001
1659435122.650457,10008
1659435122.692488,10045
1659435122.73452,10051
1659435122.773134,10084
1659435122.811748,10115
1659435122.850362,10141
1659435122.891369,10158
1659435122.932375,10167
1659435122.970989,10170
1659435123.009603,10146
1659435123.048217,10148
1659435123.087515,10141
1659435123.126812,10130
1659435123.16611,10136
1659435123.207629,10110
1659435123.249148,10088
1659435123.28742,10056
1659435123.325693,10032
1659435123.363965,10015
1659435123.403605,10011
1659435123.443244,10022
1659435123.482883,10027
1659435123.524402,10042
1659435123.565921,10052
1659435123.604193,10064
1659435123.642466,10073
1659435123.680738,10057
1659435123.722769,10059
1659435123.764801,10058
1659435123.808882,10047
1659435123.852964,10061
1659435123.897046,10078
1659435123.929851,10111
1659435123.962656,10120
1659435124.007421,10131
1659435124.052186,10151
1659435124.096951,10149
1659435124.129756,10150
1659435124.162561,10137
1659435124.206984,10110
1659435124.251408,10099
1659435124.295831,10085
1659435124.335129,10062
1659435124.374426,10071
1659435124.413724,10052
1659435124.456268,10036
1659435124.498812,10034
1659435124.535974,10036
1659435124.573135,10035
1659435124.610297,10050
1659435124.647459,10041
1659435124.690003,10033
1659435124.732547,10048
1659435124.771503,10046
1659435124.810459,10055
1659435124.849415,10056
1659435124.893155,10070
1659435124.936895,10074
1659435124.980635,10106
1659435125.013952,10107
1659435125.04727,10100
1659435125.091693,10108
1659435125.136117,10077
1659435125.18054,10062
1659435125.213857,10041
1659435125.247175,10027
1659435125.291598,10018
1659435125.336022,10016
1659435125.380445,10022
1659435125.419401,10031
1659435125.458357,10029
1659435125.497313,10043
1659435125.538319,10066
1659435125.579325,10084
1659435125.618964,10088
1659435125.658604,10090
1659435125.698243,10096
1659435125.739762,10083
1659435125.781281,10084
1659435125.819895,10093
1659435125.858509,10100
1659435125.897123,10112
1659435125.935737,10131
1659435125.974352,10132
1659435126.012966,10140
1659435126.054997,10156
1659435126.097028,10142
1659435126.135301,10124
1659435126.173573,10094
1659435126.211846,10076
1659435126.252852,10061
1659435126.293858,10058
1659435126.332131,10056
1659435126.370403,10066
1659435126.408676,10085
1659435126.450707,10092
1659435126.492738,10114
1659435126.531353,10124
1659435126.569967,10117
1659435126.608581,10109
1659435126.6501,10109
1659435126.691618,10118
1659435126.730916,10129
1659435126.770214,10141
1659435126.809511,10175
1659435126.853593,10192
1659435126.897675,10209
1659435126.941756,10209
1659435126.9843,10222
1659435127.026844,10252
1659435127.065458,10250
1659435127.104072,10260
1659435127.142687,10251
1659435127.180959,10242
1659435127.219232,10244
1659435127.257504,10237
1659435127.299023,10236
1659435127.340542,10231
1659435127.379498,10244
1659435127.418453,10251
1659435127.457409,10260
1659435127.498928,10256
1659435127.540447,10260
1659435127.579744,10272
1659435127.619042,10297
1659435127.65834,10305
1659435127.697637,10312
1659435127.736935,10327
1659435127.776232,10330
1659435127.817239,10322
1659435127.858245,10338
1659435127.897542,10352
1659435127.93684,10370
1659435127.976138,10388
1659435128.018169,10394
1659435128.0602,10404
1659435128.098131,10390
1659435128.136062,10369
1659435128.173993,10341
1659435128.214999,10325
1659435128.256005,10323
1659435128.295303,10310
1659435128.3346,10302
1659435128.373898,10294
1659435128.415417,10287
1659435128.456935,10273
1659435128.501017,10276
1659435128.545099,10273
1659435128.58918,10269
1659435128.628136,10278
1659435128.667092,10282
1659435128.706048,10297
1659435128.747054,10322
1659435128.78806,10336
1659435128.826675,10349
1659435128.865289,10365
1659435128.903903,10370
1659435128.946959,10361
1659435128.990016,10362
1659435129.02863,10349
1659435129.067244,10331
1659435129.105859,10306
1659435129.144814,10306
1659435129.18377,10301
1659435129.222726,10299
1659435129.264245,10304
1659435129.305764,10297
1659435129.34472,10285
1659435129.383676,10301
1659435129.422632,10286
1659435129.460904,10289
1659435129.499176,10290
1659435129.537449,10290
1659435129.578968,10284
1659435129.620486,10281
1659435129.658417,10294
1659435129.696348,10307
1659435129.734279,10328
1659435129.77631,10331
1659435129.818341,10327
1659435129.857639,10341
1659435129.896936,10324
1659435129.936234,10275
1659435129.977753,10246
1659435130.019272,10210
1659435130.063353,10203
1659435130.107435,10208
1659435130.151517,10204
1659435130.185859,10199
1659435130.220202,10184
1659435130.264967,10180
1659435130.309732,10177
1659435130.354497,10193
1659435130.393111,10180
1659435130.431726,10175
1659435130.47034,10168
1659435130.511859,10148
1659435130.553377,10136
1659435130.591992,10121
1659435130.630606,10114
1659435130.66922,10090
1659435130.710739,10054
1659435130.752258,10029
1659435130.791214,9984
1659435130.830169,9957
1659435130.869125,9925
1659435130.908081,9919
1659435130.947037,9924
1659435130.985993,9917
1659435131.027512,9911
1659435131.069031,9918
1659435131.107986,9903
1659435131.146942,9902
1659435131.185898,9908
1659435131.228442,9895
1659435131.270986,9878
1659435131.3096,9885
1659435131.348214,9873
1659435131.386829,9890
1659435131.427835,9923
1659435131.468841,9920
1659435131.507797,9904
1659435131.546753,9901
1659435131.585709,9909
1659435131.62979,9899
1659435131.673872,9903
1659435131.717954,9901
1659435131.751784,9908
1659435131.785614,9924
1659435131.830037,9912
1659435131.874461,9909
1659435131.918884,9906
1659435131.951689,9916
1659435131.984494,9932
1659435132.028576,9968
1659435132.072657,9993
1659435132.116739,10001
1659435132.155695,10035
1659435132.194651,10067
1659435132.233607,10068
1659435132.275638,10070
1659435132.317669,10056
1659435132.356283,10060
1659435132.394898,10057
1659435132.433512,10062
1659435132.475031,10071
1659435132.516549,10069
1659435132.555505,10084
1659435132.594461,10085
1659435132.633417,10078
1659435132.672031,10082
1659435132.710645,10078
1659435132.74926,10097
1659435132.790778,10107
1659435132.832297,10135
1659435132.871253,10119
1659435132.910209,10117
1659435132.949165,10109
1659435132.989658,10085
1659435133.030152,10071
1659435133.069791,10046
1659435133.109431,10054
1659435133.14907,10057
1659435133.191102,10055
1659435133.233133,10069
1659435133.271405,10071
1659435133.309678,10087
1659435133.34795,10113
1659435133.389982,10108
1659435133.432013,10121
1659435133.471994,10114
1659435133.511975,10106
1659435133.551956,10087
1659435133.59638,10085
1659435133.640803,10086
1659435133.685226,10078
1659435133.718031,10067
1659435133.750836,10069
1659435133.795259,10052
1659435133.839683,10047
1659435133.884106,10036
1659435133.922037,10058
1659435133.959968,10060
1659435133.997899,10079
1659435134.03993,10088
1659435134.081961,10094
1659435134.121259,10104
1659435134.160556,10109
1659435134.199854,10126
1659435134.241373,10138
1659435134.282892,10147
1659435134.321847,10160
1659435134.360803,10176
1659435134.399759,10194
1659435134.442303,10194
1659435134.484847,10206
1659435134.523461,10217
1659435134.562075,10209
1659435134.60069,10206
1659435134.639646,10197
1659435134.678602,10205
1659435134.717557,10213
1659435134.759076,10231
1659435134.800595,10240
1659435134.838867,10246
1659435134.87714,10259
1659435134.915412,10253
1659435134.957444,10248
1659435134.999475,10267
1659435135.040737,10263
1659435135.082,10271
1659435135.123262,10272
1659435135.164525,10293
1659435135.203481,10302
1659435135.242437,10299
1659435135.281393,10297
1659435135.321886,10300
1659435135.36238,10303
1659435135.401336,10292
1659435135.440292,10285
1659435135.479248,10288
1659435135.517862,10287
1659435135.556476,10293
1659435135.59509,10293
1659435135.637121,10285
1659435135.679153,10283
1659435135.718109,10286
1659435135.757065,10268
1659435135.796021,10273
1659435135.838052,10288
1659435135.880083,10296
1659435135.918356,10322
1659435135.956628,10329
1659435135.9949,10351
1659435136.036932,10342
1659435136.078963,10342
1659435136.123045,10340
1659435136.167127,10350
1659435136.211208,10358
1659435136.249822,10361
1659435136.288437,10370
1659435136.327051,10379
1659435136.36857,10369
1659435136.410088,10375
1659435136.449044,10382
1659435136.488,10399
1659435136.526956,10410
1659435136.56557,10434
1659435136.604184,10448
1659435136.642798,10456
1659435136.685343,10470
1659435136.727886,10459
1659435136.767184,10469
1659435136.806482,10488
1659435136.845779,10485
1659435136.884393,10486
1659435136.923007,10461
1659435136.961622,10453
1659435137.002628,10436
1659435137.043634,10445
1659435137.08259,10425
1659435137.121546,10423
1659435137.160502,10438
1659435137.202021,10426
1659435137.243539,10421
1659435137.282495,10396
1659435137.321451,10386
1659435137.360407,10368
1659435137.401926,10348
1659435137.443445,10351
1659435137.481717,10337
1659435137.519989,10331
1659435137.558262,10321
1659435137.600293,10310
1659435137.642325,10308
1659435137.687432,10308
1659435137.732538,10304
1659435137.777645,10304
1659435137.816259,10305
1659435137.854873,10292
1659435137.893488,10270
1659435137.935006,10277
1659435137.976525,10274
1659435138.015481,10283
1659435138.054437,10282
1659435138.093393,10283
1659435138.132007,10273
1659435138.170621,10253
1659435138.209235,10247
1659435138.249729,10247
1659435138.290223,10232
1659435138.32952,10234
1659435138.368818,10229
1659435138.408116,10221
1659435138.448609,10207
1659435138.489103,10208
1659435138.5284,10197
1659435138.567698,10192
1659435138.606996,10198
1659435138.645268,10206
1659435138.683541,10206
1659435138.721813,10199
1659435138.763332,10208
1659435138.804851,10226
1659435138.843465,10217
1659435138.882079,10222
1659435138.920693,10225
1659435138.963237,10235
1659435139.005781,10222
1659435139.044395,10209
1659435139.083009,10207
1659435139.121624,10185
1659435139.163142,10185
1659435139.204661,10161
1659435139.249426,10154
1659435139.294191,10174
1659435139.338956,10166
1659435139.372274,10161
1659435139.405591,10160
1659435139.449331,10164
1659435139.493071,10177
1659435139.536811,10192
1659435139.575767,10198
1659435139.614723,10192
1659435139.653679,10208
1659435139.694685,10221
1659435139.735691,10244
1659435139.774647,10258
1659435139.813603,10254
1659435139.852559,10257
1659435139.891515,10261
1659435139.930471,10259
1659435139.969427,10238
1659435140.011971,10230
1659435140.054515,10210
1659435140.093129,10203
1659435140.131743,10202
1659435140.170357,10180
1659435140.212389,10167
1659435140.25442,10173
1659435140.293034,10159
1659435140.331648,10141
1659435140.370262,10129
1659435140.408876,10116
1659435140.447491,10121
1659435140.486105,10119
1659435140.528136,10124
1659435140.570168,10124
1659435140.611686,10123
1659435140.653205,10131
1659435140.691478,10136
1659435140.72975,10133
1659435140.768023,10145
1659435140.812788,10130
1659435140.857553,10137
1659435140.902318,10112
1659435140.936148,10086
1659435140.969978,10077
1659435141.014401,10042
1659435141.058825,10038
1659435141.103248,10051
1659435141.136053,10026
1659435141.168858,10021
1659435141.213281,10010
1659435141.257705,9989
1659435141.302128,9993
1659435141.340742,10000
1659435141.379357,10006
1659435141.417971,10022
1659435141.460002,10032
1659435141.502033,10043
1659435141.540306,10046
1659435141.578578,10073
1659435141.616851,10075
1659435141.65837,10078
1659435141.699888,10079
1659435141.738161,10054
1659435141.776433,10036
1659435141.814706,10023
1659435141.854345,9994
1659435141.893984,9982
1659435141.933624,9979
1659435141.97463,9964
1659435142.015636,9973
1659435142.053909,9957
1659435142.092181,9951
1659435142.130454,9958
1659435142.172485,9957
1659435142.214516,9944
1659435142.254156,9938
1659435142.293795,9951
1659435142.333434,9944
1659435142.377516,9941
1659435142.421597,9938
1659435142.465679,9930
1659435142.499509,9942
1659435142.53334,9946
1659435142.577763,9942
1659435142.622186,9951
1659435142.66661,9922
1659435142.699927,9917
1659435142.733245,9911
1659435142.777668,9887
1659435142.822092,9894
1659435142.866515,9882
1659435142.905471,9895
1659435142.944427,9889
1659435142.983382,9897
1659435143.023876,9902
1659435143.06437,9896
1659435143.103667,9906
1659435143.142965,9909
1659435143.182263,9924
1659435143.221219,9929
1659435143.260175,9941
1659435143.29913,9940
1659435143.341162,9950
1659435143.383193,9938
1659435143.422491,9934
1659435143.461788,9945
1659435143.501086,9939
1659435143.543117,9942
1659435143.585149,9942
1659435143.623421,9920
1659435143.661694,9922
1659435143.699966,9920
1659435143.74251,9908
1659435143.785054,9910
1659435143.82401,9906
1659435143.862966,9912
1659435143.901922,9896
1659435143.942928,9891
1659435143.983934,9884
1659435144.022206,9870
1659435144.060479,9875
1659435144.098751,9876
1659435144.141295,9863
1659435144.183839,9864
1659435144.222453,9868
1659435144.261067,9853
1659435144.299682,9870
1659435144.344447,9867
1659435144.389212,9856
1659435144.433977,9865
1659435144.466782,9853
1659435144.499587,9838
1659435144.54401,9826
1659435144.588434,9832
1659435144.632857,9844
1659435144.671129,9838
1659435144.709402,9844
1659435144.747674,9845
1659435144.790218,9838
1659435144.832762,9827
1659435144.871035,9819
1659435144.909307,9831
1659435144.94758,9821
1659435144.988586,9823
1659435145.029592,9835
1659435145.068548,9834
1659435145.107504,9834
1659435145.14646,9834
1659435145.186099,9833
1659435145.225738,9823
1659435145.265378,9815
1659435145.305871,9806
1659435145.346365,9778
1659435145.385321,9758
1659435145.424277,9755
1659435145.463233,9742
1659435145.507656,9751
1659435145.552079,9755
1659435145.596503,9767
1659435145.635117,9766
1659435145.673731,9770
1659435145.712345,9763
1659435145.754889,9762
1659435145.797433,9769
1659435145.836389,9773
1659435145.875345,9781
1659435145.914301,9791
1659435145.955307,9793
1659435145.996313,9797
1659435146.035269,9792
1659435146.074225,9806
1659435146.113181,9793
1659435146.152137,9792
1659435146.191093,9782
1659435146.230049,9776
1659435146.27208,9760
1659435146.314111,9759
1659435146.352726,9766
1659435146.39134,9763
1659435146.429954,9783
1659435146.472498,9788
1659435146.515042,9801
1659435146.553656,9798
1659435146.59227,9820
1659435146.630884,9833
1659435146.66984,9834
1659435146.708796,9841
1659435146.747752,9843
1659435146.790808,9852
1659435146.833865,9842
1659435146.874871,9833
1659435146.915877,9841
1659435146.953808,9830
1659435146.991739,9796
1659435147.02967,9786
1659435147.073751,9760
1659435147.117833,9753
1659435147.161915,9744
1659435147.195745,9734
1659435147.229575,9723
1659435147.273656,9723
1659435147.317738,9730
1659435147.36182,9722
1659435147.394625,9726
1659435147.42743,9738
1659435147.471853,9741
1659435147.516276,9752
1659435147.5607,9768
1659435147.598972,9781
1659435147.637245,9796
1659435147.675517,9805
1659435147.717805,9793
1659435147.760092,9808
1659435147.80238,9776
1659435147.844668,9763
1659435147.88294,9767
1659435147.921213,9747
1659435147.959485,9746
1659435148.001517,9748
1659435148.043548,9743
1659435148.082504,9747
1659435148.12146,9739
1659435148.160416,9756
1659435148.198346,9753
1659435148.236277,9745
1659435148.274208,9758
1659435148.315727,9754
1659435148.357245,9773
1659435148.395859,9763
1659435148.434474,9769
1659435148.473088,9775
1659435148.514607,9766
1659435148.556125,9752
1659435148.59474,9747
1659435148.633354,9762
1659435148.671968,9784
1659435148.710924,9808
1659435148.74988,9820
1659435148.788836,9827
1659435148.829842,9852
1659435148.870848,9870
1659435148.910487,9890
1659435148.950127,9922
1659435148.989766,9948
1659435149.031797,9983
1659435149.073829,10031
1659435149.118252,10075
1659435149.162675,10128
1659435149.207099,10156
1659435149.239904,10190
1659435149.272709,10210
1659435149.317474,10243
1659435149.362239,10259
1659435149.407004,10277
1659435149.440322,10321
1659435149.473639,10343
1659435149.518063,10364
1659435149.562486,10379
1659435149.606909,10405
1659435149.645865,10427
1659435149.684821,10461
1659435149.723777,10476
1659435149.764783,10505
1659435149.805789,10536
1659435149.844745,10542
1659435149.883701,10553
1659435149.922657,10576
1659435149.964689,10579
1659435150.00672,10583
1659435150.045334,10562
1659435150.083948,10530
1659435150.122562,10501
1659435150.161518,10481
1659435150.200474,10471
1659435150.23943,10455
1659435150.277703,10464
1659435150.315975,10442
1659435150.354247,10419
1659435150.396791,10414
1659435150.439335,10407
1659435150.477608,10392
1659435150.51588,10388
1659435150.554153,10402
1659435150.595159,10416
1659435150.636165,10426
1659435150.680247,10428
1659435150.724328,10451
1659435150.76841,10465
1659435150.80224,10463
1659435150.83607,10459
1659435150.880494,10469
1659435150.924917,10429
1659435150.96934,10401
1659435151.008296,10381
1659435151.047252,10338
1659435151.086208,10319
1659435151.127214,10306
1659435151.168221,10314
1659435151.206835,10292
1659435151.245449,10303
1659435151.284063,10291
1659435151.323019,10282
1659435151.361975,10275
1659435151.400931,10273
1659435151.44245,10272
1659435151.483968,10271
1659435151.522241,10277
1659435151.560513,10270
1659435151.598786,10271
1659435151.640817,10264
1659435151.682848,10253
1659435151.721121,10237
1659435151.759393,10204
1659435151.797666,10157
1659435151.837305,10125
1659435151.876944,10093
1659435151.916584,10066
1659435151.958102,10072
1659435151.999621,10065
1659435152.038235,10044
1659435152.07685,10033
1659435152.115464,10022
1659435152.156983,10008
1659435152.198501,10015
1659435152.24395,10032
1659435152.289398,10052
1659435152.334847,10082
1659435152.368165,10071
1659435152.401482,10068
1659435152.445905,10075
1659435152.490329,10079
1659435152.534752,10082
1659435152.57405,10073
1659435152.613347,10052
1659435152.652645,10027
1659435152.693139,10006
1659435152.733632,9982
1659435152.772246,9956
1659435152.810861,9975
1659435152.849475,9962
1659435152.888431,9969
1659435152.927387,9973
1659435152.966342,9963
1659435153.007349,9959
1659435153.048355,9968
1659435153.087311,9974
1659435153.126267,9978
1659435153.165223,10002
1659435153.207254,10012
1659435153.249285,10023
1659435153.288241,10035
1659435153.327197,10028
1659435153.366153,10046
1659435153.404767,10040
1659435153.443381,10031
1659435153.481995,10012
1659435153.524027,9978
1659435153.566058,9958
1659435153.604331,9927
1659435153.642603,9933
1659435153.680876,9916
1659435153.722907,9917
1659435153.764938,9916
1659435153.809362,9912
1659435153.853785,9930
1659435153.898208,9948
1659435153.930501,9968
1659435153.962793,9984
1659435154.006533,10009
1659435154.050273,10002
1659435154.094013,10004
1659435154.127843,10021
1659435154.161673,10019
1659435154.206438,10027
1659435154.251204,10047
1659435154.295969,10074
1659435154.334924,10098
1659435154.37388,10080
1659435154.412836,10065
1659435154.454355,10053
1659435154.495874,10060
1659435154.53483,10074
1659435154.573786,10078
1659435154.612741,10096
1659435154.65426,10102
1659435154.695779,10084
1659435154.734735,10086
1659435154.773691,10085
1659435154.812647,10081
1659435154.851261,10079
1659435154.889875,10074
1659435154.928489,10075
1659435154.970008,10058
1659435155.011527,10054
1659435155.050141,10069
1659435155.088755,10089
1659435155.127369,10096
1659435155.169913,10096
1659435155.212457,10093
1659435155.251413,10059
1659435155.290369,10029
1659435155.329325,10000
1659435155.370331,9981
1659435155.411337,9987
1659435155.450635,9978
1659435155.489933,9984
1659435155.52923,9965
1659435155.573995,9958
1659435155.61876,9953
1659435155.663525,9968
1659435155.696843,9968
1659435155.73016,9969
1659435155.774926,9980
1659435155.819691,9999
1659435155.864456,10006
1659435155.90307,10012
1659435155.941684,10015
1659435155.980298,10026
1659435156.018913,10042
1659435156.057527,10042
1659435156.096141,10035
1659435156.135097,10029
1659435156.174053,10014
1659435156.213008,9987
1659435156.25504,9977
1659435156.297071,9967
1659435156.335002,9961
1659435156.372933,9969
1659435156.410863,9963
1659435156.453407,9964
1659435156.495951,9966
1659435156.534565,9979
1659435156.57318,9987
1659435156.611794,9998
1659435156.653313,10011
1659435156.694831,10031
1659435156.739597,10042
1659435156.784362,10039
1659435156.829127,10038
1659435156.862957,10050
1659435156.896787,10068
1659435156.940527,10066
1659435156.984267,10089
1659435157.028007,10077
1659435157.066279,10067
1659435157.104552,10061
1659435157.142824,10045
1659435157.185368,10069
1659435157.227912,10082
1659435157.265843,10090
1659435157.303773,10091
1659435157.341704,10104
1659435157.38271,10101
1659435157.423717,10119
1659435157.463356,10132
1659435157.502995,10141
1659435157.542635,10163
1659435157.580907,10159
1659435157.619179,10172
1659435157.657452,10182
1659435157.699996,10188
1659435157.74254,10205
1659435157.781496,10226
1659435157.820452,10244
1659435157.859407,10268
1659435157.900926,10273
1659435157.942445,10279
1659435157.981059,10255
1659435158.019673,10247
1659435158.058288,10245
1659435158.097927,10242
1659435158.137566,10260
1659435158.177206,10252
1659435158.217699,10259
1659435158.258193,10277
1659435158.299712,10279
1659435158.34123,10281
1659435158.380186,10279
1659435158.419142,10297
1659435158.458098,10295
1659435158.502522,10287
1659435158.546945,10290
1659435158.591368,10285
1659435158.624686,10291
1659435158.658003,10284
1659435158.702768,10259
1659435158.747534,10261
1659435158.792299,10237
1659435158.825104,10236
1659435158.857908,10224
1659435158.902674,10211
1659435158.947439,10214
1659435158.992204,10215
1659435159.031502,10217
1659435159.070799,10221
1659435159.110097,10234
1659435159.151615,10223
1659435159.193134,10223
1659435159.231407,10224
1659435159.269679,10215
1659435159.307952,10227
1659435159.34947,10224
1659435159.390989,10240
1659435159.429945,10233
1659435159.468901,10254
1659435159.507857,10254
1659435159.546471,10256
1659435159.585085,10263
1659435159.623699,10244
1659435159.664706,10231
1659435159.705712,10212
1659435159.744668,10202
1659435159.783624,10185
1659435159.822579,10176
1659435159.864098,10173
1659435159.905617,10167
1659435159.944573,10164
1659435159.983529,10155
1659435160.022485,10151
1659435160.064003,10144
1659435160.105522,10135
1659435160.144478,10143
1659435160.183434,10140
1659435160.22239,10143
1659435160.26613,10138
1659435160.30987,10137
1659435160.35361,10138
1659435160.387953,10138
1659435160.422295,10151
1659435160.465352,10140
1659435160.508408,10139
1659435160.551465,10123
1659435160.592471,10081
1659435160.633477,10066
1659435160.672091,10046
1659435160.710706,10033
1659435160.74932,10011
1659435160.788617,10004
1659435160.827915,10000
1659435160.867213,9987
1659435160.908731,9992
1659435160.95025,9977
1659435160.989889,9966
1659435161.029529,9966
1659435161.069168,9972
1659435161.110687,9998
1659435161.152205,10015
1659435161.19082,10024
1659435161.229434,10029
1659435161.268048,10037
1659435161.307346,10045
1659435161.346643,10041
1659435161.385941,10040
1659435161.427972,10004
1659435161.470004,9979
1659435161.507934,9946
1659435161.545865,9938
1659435161.583796,9924
1659435161.625827,9914
1659435161.667859,9916
1659435161.706473,9908
1659435161.745087,9907
1659435161.783701,9895
1659435161.82522,9886
1659435161.866739,9890
1659435161.905694,9889
1659435161.94465,9900
1659435161.983606,9907
1659435162.025638,9903
1659435162.067669,9906
1659435162.111751,9909
1659435162.155832,9914
1659435162.199914,9907
1659435162.239212,9905
1659435162.278509,9897
1659435162.317807,9865
1659435162.360351,9839
1659435162.402895,9802
1659435162.441167,9785
1659435162.47944,9780
1659435162.517712,9778
1659435162.558718,9794
1659435162.599725,9797
1659435162.639022,9802
1659435162.67832,9813
1659435162.717617,9818
1659435162.756232,9829
1659435162.794846,9840
1659435162.83346,9840
1659435162.874979,9845
1659435162.916497,9840
1659435162.955112,9848
1659435162.993726,9855
1659435163.03234,9864
1659435163.070954,9873
1659435163.109568,9867
1659435163.148182,9849
1659435163.189701,9819
1659435163.23122,9783
1659435163.270518,9758
1659435163.309815,9738
1659435163.349113,9731
1659435163.390119,9740
1659435163.431125,9738
1659435163.470081,9736
1659435163.509037,9731
1659435163.547993,9711
1659435163.592416,9730
1659435163.63684,9735
1659435163.681263,9745
1659435163.723294,9774
1659435163.765326,9771
1659435163.80394,9788
1659435163.842554,9789
1659435163.881168,9782
1659435163.922687,9780
1659435163.964206,9782
1659435164.002478,9793
1659435164.040751,9781
1659435164.079023,9754
1659435164.118321,9734
1659435164.157619,9708
1659435164.196916,9713
1659435164.23946,9695
1659435164.282004,9682
1659435164.32096,9700
1659435164.359916,9690
1659435164.398872,9695
1659435164.439878,9704
1659435164.480884,9716
1659435164.51984,9732
1659435164.558796,9744
1659435164.597752,9745
1659435164.636708,9755
1659435164.675663,9769
1659435164.714619,9784
1659435164.756138,9796
1659435164.797657,9808
1659435164.836271,9811
1659435164.874885,9802
1659435164.9135,9814
1659435164.955531,9797
1659435164.997562,9788
1659435165.035835,9792
1659435165.074107,9800
1659435165.11238,9814
1659435165.154411,9830
1659435165.196442,9830
1659435165.240866,9845
1659435165.285289,9862
1659435165.329712,9872
1659435165.368668,9877
1659435165.407624,9887
1659435165.44658,9890
1659435165.488099,9895
1659435165.529618,9919
1659435165.568915,9911
1659435165.608213,9918
1659435165.647511,9939
1659435165.689029,9953
1659435165.730548,9970
1659435165.769504,9970
1659435165.80846,9964
1659435165.847416,9951
1659435165.886372,9934
1659435165.925328,9934
1659435165.964283,9915
1659435166.004777,9915
1659435166.045271,9916
1659435166.083885,9922
1659435166.122499,9933
1659435166.161113,9931
1659435166.203145,9934
1659435166.245176,9950
1659435166.283107,9953
1659435166.321037,9957
1659435166.358968,9983
1659435166.397924,9986
1659435166.43688,10007
1659435166.475836,10028
1659435166.517867,10029
1659435166.559899,10039
1659435166.60193,10037
1659435166.643961,10043
1659435166.684968,10037
1659435166.725974,10020
1659435166.765271,10006
1659435166.804569,9977
1659435166.843866,9971
1659435166.883164,9965
1659435166.922462,9952
1659435166.961759,9970
1659435167.002253,9962
1659435167.042747,9967
1659435167.081702,9965
1659435167.120658,9961
1659435167.159614,9961
1659435167.201133,9967
1659435167.242652,9974
1659435167.281608,9987
1659435167.320564,9996
1659435167.359519,10007
1659435167.401038,10011
1659435167.442557,10024
1659435167.487664,10026
1659435167.532771,10042
1659435167.577878,10051
1659435167.61017,10036
1659435167.642462,10013
1659435167.686886,9994
1659435167.731309,9983
1659435167.775732,9992
1659435167.815713,9985
1659435167.855695,9993
1659435167.895675,9990
1659435167.936682,9980
1659435167.977688,9989
1659435168.016302,9987
1659435168.054916,9999
1659435168.09353,10012
1659435168.135049,10028
1659435168.176568,10037
1659435168.215524,10040
1659435168.25448,10042
1659435168.293436,10046
1659435168.33205,10044
1659435168.370664,10063
1659435168.409278,10054
1659435168.450797,10069
1659435168.492316,10064
1659435168.530588,10029
1659435168.568861,10006
1659435168.607133,9983
1659435168.646089,9982
1659435168.685045,9964
1659435168.724001,9962
1659435168.766545,9964
1659435168.809089,9953
1659435168.847703,9957
1659435168.886317,9945
1659435168.924931,9941
1659435168.965937,9933
1659435169.006944,9927
1659435169.051709,9913
1659435169.096474,9878
1659435169.141239,9874
1659435169.174556,9885
1659435169.207874,9903
1659435169.251956,9901
1659435169.296037,9906
1659435169.340119,9912
1659435169.372924,9860
1659435169.405729,9809
1659435169.450152,9779
1659435169.494576,9733
1659435169.538999,9724
1659435169.577271,9699
1659435169.615544,9699
1659435169.653816,9700
1659435169.695848,9700
1659435169.737879,9697
1659435169.776835,9693
1659435169.815791,9699
1659435169.854747,9704
1659435169.896266,9714
1659435169.937784,9721
1659435169.97674,9725
1659435170.015696,9736
1659435170.054652,9751
1659435170.094291,9749
1659435170.133931,9760
1659435170.17357,9758
1659435170.215601,9723
1659435170.257633,9676
1659435170.295905,9623
1659435170.334178,9590
1659435170.37245,9573
1659435170.413456,9555
1659435170.454463,9560
1659435170.493077,9561
1659435170.531691,9562
1659435170.570305,9573
1659435170.612336,9572
1659435170.654368,9584
1659435170.693324,9583
1659435170.73228,9589
1659435170.771235,9610
1659435170.813267,9609
1659435170.855298,9622
1659435170.893571,9624
1659435170.931843,9642
1659435170.970116,9654
1659435171.015222,9657
1659435171.060329,9633
1659435171.105436,9593
1659435171.139266,9559
1659435171.173096,9528
1659435171.21752,9519
1659435171.261943,9511
1659435171.306366,9498
1659435171.345664,9517
1659435171.384962,9521
1659435171.424259,9523
1659435171.465266,9526
1659435171.506272,9543
1659435171.544886,9548
1659435171.5835,9576
1659435171.622114,9581
1659435171.663633,9584
1659435171.705152,9610
1659435171.742314,9628
1659435171.779475,9641
1659435171.816637,9657
1659435171.853799,9674
1659435171.894293,9675
1659435171.934787,9654
1659435171.97733,9622
1659435172.019874,9595
1659435172.058489,9593
1659435172.097103,9605
1659435172.135717,9613
1659435172.179799,9623
1659435172.22388,9642
1659435172.267962,9662
1659435172.301279,9675
1659435172.334597,9700
1659435172.379362,9704
1659435172.424127,9724
1659435172.468892,9745
1659435172.506823,9748
1659435172.544754,9778
1659435172.582685,9775
1659435172.625228,9777
1659435172.667772,9806
1659435172.706387,9807
1659435172.745001,9800
1659435172.783615,9775
1659435172.824108,9743
1659435172.864602,9712
1659435172.903558,9708
1659435172.942514,9702
1659435172.98147,9697
1659435173.020426,9716
1659435173.059381,9711
1659435173.098337,9710
1659435173.139856,9726
1659435173.181375,9728
1659435173.220673,9741
1659435173.25997,9749
1659435173.299268,9767
1659435173.341299,9778
1659435173.383331,9795
1659435173.421945,9795
1659435173.460559,9811
1659435173.499173,9813
1659435173.541204,9811
1659435173.583236,9808
1659435173.622192,9766
1659435173.661148,9739
1659435173.700104,9723
1659435173.740597,9707
1659435173.781091,9696
1659435173.819705,9705
1659435173.858319,9690
1659435173.896933,9681
1659435173.941698,9687
1659435173.986464,9678
1659435174.031229,9696
1659435174.064546,9710
1659435174.097864,9709
1659435174.142287,9730
1659435174.18671,9727
1659435174.231134,9733
1659435174.273165,9744
1659435174.315197,9742
1659435174.354152,9752
1659435174.393108,9752
1659435174.432064,9732
1659435174.471362,9682
1659435174.510659,9642
1659435174.549957,9620
1659435174.591988,9594
1659435174.63402,9576
1659435174.672976,9583
1659435174.711931,9587
1659435174.750887,9590
1659435174.791381,9599
1659435174.831875,9585
1659435174.871172,9590
1659435174.91047,9608
1659435174.949768,9625
1659435174.988723,9640
1659435175.027679,9642
1659435175.066635,9656
1659435175.107129,9667
1659435175.147622,9682
1659435175.185895,9688
1659435175.224167,9688
1659435175.26244,9688
1659435175.304984,9647
1659435175.347528,9601
1659435175.386142,9572
1659435175.424756,9535
1659435175.46337,9513
1659435175.504376,9520
1659435175.545382,9528
1659435175.585022,9510
1659435175.624661,9529
1659435175.6643,9529
1659435175.705819,9536
1659435175.747338,9541
1659435175.791761,9544
1659435175.836185,9564
1659435175.880608,9574
1659435175.919564,9588
1659435175.95852,9586
1659435175.997476,9599
1659435176.038482,9614
1659435176.079488,9627
1659435176.117761,9629
1659435176.156033,9609
1659435176.194306,9572
1659435176.233262,9530
1659435176.272218,9493
1659435176.311173,9479
1659435176.353205,9453
1659435176.395236,9456
1659435176.43385,9448
1659435176.472465,9441
1659435176.511079,9422
1659435176.553622,9425
1659435176.596167,9441
1659435176.635122,9436
1659435176.674078,9450
1659435176.713034,9461
1659435176.75199,9458
1659435176.790946,9477
1659435176.829902,9465
1659435176.872446,9456
1659435176.91499,9462
1659435176.953604,9468
1659435176.992218,9442
1659435177.030832,9435
1659435177.071838,9425
1659435177.112845,9422
1659435177.15761,9423
1659435177.202375,9444
1659435177.24714,9452
1659435177.28097,9445
1659435177.3148,9474
1659435177.35854,9492
1659435177.40228,9511
1659435177.44602,9529
1659435177.47985,9558
1659435177.51368,9592
1659435177.558445,9614
1659435177.60321,9640
1659435177.647976,9675
1659435177.686248,9684
1659435177.72452,9707
1659435177.762793,9707
1659435177.805337,9716
1659435177.847881,9731
1659435177.886495,9727
1659435177.925109,9703
1659435177.963723,9661
1659435178.001996,9623
1659435178.040268,9598
1659435178.078541,9597
1659435178.119547,9592
1659435178.160553,9597
1659435178.199851,9595
1659435178.239148,9608
1659435178.278446,9613
1659435178.318939,9605
1659435178.359433,9622
1659435178.398047,9632
1659435178.436661,9652
1659435178.475276,9662
1659435178.51389,9662
1659435178.552504,9679
1659435178.591118,9686
1659435178.63315,9705
1659435178.675181,9740
1659435178.7167,9750
1659435178.758219,9757
1659435178.797516,9745
1659435178.836814,9725
1659435178.876111,9710
1659435178.920535,9707
1659435178.964958,9691
1659435179.009382,9692
1659435179.043212,9719
1659435179.077042,9719
1659435179.122149,9712
1659435179.167255,9715
1659435179.212362,9726
1659435179.245167,9731
1659435179.277972,9763
1659435179.32137,9771
1659435179.364769,9774
1659435179.408167,9792
1659435179.447123,9802
1659435179.486079,9827
1659435179.525034,9843
1659435179.566553,9851
1659435179.608072,9863
1659435179.646686,9877
1659435179.6853,9852
1659435179.723915,9809
1659435179.765946,9793
1659435179.807977,9768
1659435179.847275,9754
1659435179.886573,9766
1659435179.92587,9746
1659435179.964826,9743
1659435180.003782,9747
1659435180.042738,9752
1659435180.084769,9762
1659435180.126801,9767
1659435180.16644,9786
1659435180.206079,9796
1659435180.245718,9796
1659435180.286212,9801
1659435180.326706,9800
1659435180.36532,9821
1659435180.403934,9837
1659435180.442548,9836
1659435180.485092,9851
1659435180.527636,9855
1659435180.565909,9852
1659435180.604181,9853
1659435180.642453,9848
1659435180.682947,9832
1659435180.723441,9829
1659435180.76308,9820
1659435180.802719,9829
1659435180.842359,9838
1659435180.886441,9822
1659435180.930522,9838
1659435180.974604,9822
1659435181.016635,9820
1659435181.058666,9814
1659435181.097622,9829
1659435181.136578,9824
1659435181.175534,9833
1659435181.214148,9855
1659435181.252763,9856
1659435181.291377,9853
1659435181.33187,9855
1659435181.372364,9857
1659435181.411662,9859
1659435181.450959,9838
1659435181.490257,9800
1659435181.528871,9759
1659435181.567485,9744
1659435181.606099,9721
1659435181.647105,9706
1659435181.688112,9699
1659435181.727067,9695
1659435181.766023,9693
1659435181.804979,9670
1659435181.845985,9667
1659435181.886992,9677
1659435181.925948,9680
1659435181.964904,9694
1659435182.00386,9698
1659435182.045378,9725
1659435182.086897,9743
1659435182.125853,9789
1659435182.164809,9792
1659435182.203765,9805
1659435182.245283,9826
1659435182.286802,9823
1659435182.327193,9820
1659435182.367584,9781
1659435182.407975,9762
1659435182.448367,9751
1659435182.488758,9725
1659435182.532498,9730
1659435182.576238,9717
1659435182.619978,9726
1659435182.657908,9727
1659435182.695839,9724
1659435182.73377,9732
1659435182.771701,9723
1659435182.810315,9737
1659435182.848929,9759
1659435182.887543,9773
1659435182.928549,9783
1659435182.969555,9786
1659435183.008853,9799
1659435183.048151,9805
1659435183.087448,9832
1659435183.131872,9820
1659435183.176295,9828
1659435183.220718,9815
1659435183.263263,9768
1659435183.305806,9741
1659435183.345104,9721
1659435183.384402,9708
1659435183.423699,9688
1659435183.464705,9697
1659435183.505712,9695
1659435183.543984,9694
1659435183.582257,9699
1659435183.620529,9688
1659435183.659827,9698
1659435183.699124,9702
1659435183.738422,9716
1659435183.779428,9719
1659435183.820434,9736
1659435183.859048,9744
1659435183.897662,9758
1659435183.936277,9778
1659435183.974891,9776
1659435184.013505,9797
1659435184.052119,9777
1659435184.094663,9749
1659435184.137207,9714
1659435184.175821,9677
1659435184.214435,9671
1659435184.25305,9657
1659435184.294568,9667
1659435184.336087,9667
1659435184.375385,9664
1659435184.414682,9679
1659435184.45398,9680
1659435184.495499,9691
1659435184.537018,9702
1659435184.575632,9714
1659435184.614246,9736
1659435184.65286,9744
1659435184.697284,9758
1659435184.741707,9774
1659435184.78613,9780
1659435184.826624,9797
1659435184.867117,9813
1659435184.905732,9826
1659435184.944346,9833
1659435184.98296,9823
1659435185.021916,9793
1659435185.060872,9759
1659435185.099828,9738
1659435185.141346,9729
1659435185.182865,9724
1659435185.221138,9716
1659435185.25941,9732
1659435185.297683,9720
1659435185.33698,9740
1659435185.376278,9743
1659435185.415576,9753
1659435185.456582,9787
1659435185.497588,9797
1659435185.536885,9814
1659435185.576183,9831
1659435185.615481,9852
1659435185.658025,9870
1659435185.700568,9886
1659435185.739183,9884
1659435185.777797,9896
1659435185.816411,9919
1659435185.857417,9914
1659435185.898423,9917
1659435185.937721,9871
1659435185.977019,9833
1659435186.016316,9825
1659435186.058348,9841
1659435186.100379,9856
1659435186.138993,9865
1659435186.177607,9897
1659435186.216222,9904
1659435186.260987,9905
1659435186.305752,9906
1659435186.350517,9897
1659435186.392036,9912
1659435186.433554,9923
1659435186.471827,9933
1659435186.510099,9941
1659435186.548372,9943
1659435186.591428,9947
1659435186.634485,9954
1659435186.673441,9966
1659435186.712397,9972
1659435186.751353,9976
1659435186.790308,9953
1659435186.829264,9929
1659435186.86822,9906
1659435186.909226,9882
1659435186.950233,9860
1659435186.98953,9860
1659435187.028828,9863
1659435187.068125,9861
1659435187.108619,9864
1659435187.149113,9865
1659435187.188069,9838
1659435187.227024,9845
1659435187.26598,9836
1659435187.304253,9843
1659435187.342525,9870
1659435187.380798,9886
1659435187.422829,9897
1659435187.46486,9905
1659435187.503816,9912
1659435187.542772,9914
1659435187.581728,9929
1659435187.626493,9921
1659435187.671258,9899
1659435187.716023,9865
1659435187.754637,9836
1659435187.793252,9812
1659435187.831866,9798
1659435187.873385,9801
1659435187.914903,9792
1659435187.953176,9786
1659435187.991448,9788
1659435188.029721,9780
1659435188.067993,9789
1659435188.106266,9780
1659435188.144538,9786
1659435188.184178,9800
1659435188.223817,9797
1659435188.263456,9805
1659435188.304462,9805
1659435188.345469,9817
1659435188.384083,9812
1659435188.422697,9827
1659435188.461311,9831
1659435188.502317,9817
1659435188.543324,9819
1659435188.588089,9778
1659435188.632854,9756
1659435188.677619,9727
1659435188.711449,9699
1659435188.745279,9693
1659435188.789702,9681
1659435188.834126,9674
1659435188.878549,9689
1659435188.917505,9693
1659435188.956461,9692
1659435188.995417,9695
1659435189.036936,9694
1659435189.078454,9710
1659435189.118094,9718
1659435189.157733,9728
1659435189.197372,9742
1659435189.238379,9772
1659435189.279385,9794
1659435189.317999,9822
1659435189.356613,9844
1659435189.395227,9859
1659435189.433841,9876
1659435189.472456,9880
1659435189.51107,9846
1659435189.553101,9807
1659435189.595133,9784
1659435189.633747,9763
1659435189.672361,9747
1659435189.710975,9757
1659435189.752494,9757
1659435189.794013,9763
1659435189.83331,9754
1659435189.872608,9770
1659435189.911906,9779
1659435189.95052,9798
1659435189.989134,9815
1659435190.027748,9849
1659435190.069267,9870
1659435190.110785,9876
1659435190.15333,9878
1659435190.195873,9892
1659435190.234146,9903
1659435190.272418,9915
1659435190.310691,9917
1659435190.354773,9924
1659435190.398854,9913
1659435190.442936,9886
1659435190.476766,9818
1659435190.510596,9788
1659435190.554678,9807
1659435190.598759,9802
1659435190.642841,9792
1659435190.680772,9806
1659435190.718703,9820
1659435190.756633,9807
1659435190.798665,9814
1659435190.840696,9818
1659435190.879652,9819
1659435190.918608,9845
1659435190.957564,9849
1659435190.999082,9871
1659435191.040601,9902
1659435191.079557,9909
1659435191.118513,9922
1659435191.157469,9941
1659435191.196083,9947
1659435191.234697,9944
1659435191.273311,9938
1659435191.314318,9918
1659435191.355324,9881
1659435191.39428,9874
1659435191.433236,9864
1659435191.472192,9861
1659435191.514223,9867
1659435191.556254,9869
1659435191.594527,9858
1659435191.632799,9846
1659435191.671072,9845
1659435191.71259,9839
1659435191.754109,9842
1659435191.793065,9851
1659435191.832021,9856
1659435191.870977,9875
1659435191.912496,9880
1659435191.954014,9891
1659435191.993312,9894
1659435192.03261,9887
1659435192.071907,9887
1659435192.116672,9891
1659435192.161438,9907
1659435192.206203,9878
1659435192.23952,9874
1659435192.272838,9842
1659435192.317261,9832
1659435192.361684,9828
1659435192.406108,9829
1659435192.448652,9826
1659435192.491196,9834
1659435192.529468,9835
1659435192.56774,9846
1659435192.606013,9855
1659435192.644627,9868
1659435192.683241,9881
1659435192.721855,9894
1659435192.763374,9911
1659435192.804893,9931
1659435192.843849,9941
1659435192.882805,9945
1659435192.921761,9961
1659435192.962767,9970
1659435193.003773,9983
1659435193.043071,9992
1659435193.082368,9981
1659435193.121666,9962
1659435193.16028,9924
1659435193.198894,9914
1659435193.237509,9899
1659435193.27954,9892
1659435193.321571,9868
1659435193.360527,9865
1659435193.399483,9870
1659435193.438439,9864
1659435193.48047,9873
1659435193.522502,9872
1659435193.560774,9898
1659435193.599046,9907
1659435193.637319,9923
1659435193.67935,9921
1659435193.721382,9925
1659435193.765463,9945
1659435193.809545,9959
1659435193.853627,9969
1659435193.886432,9985
1659435193.919237,10000
1659435193.962976,10026
1659435194.006716,10041
1659435194.050457,10030
1659435194.089412,10006
1659435194.128368,9994
1659435194.167324,9987
1659435194.209356,9961
1659435194.251387,9962
1659435194.290343,9956
1659435194.329299,9961
1659435194.368254,9962
1659435194.409773,9964
1659435194.451292,9970
1659435194.49059,9980
1659435194.529887,10004
1659435194.569185,10005
1659435194.607799,10020
1659435194.646413,10031
1659435194.685027,10033
1659435194.724325,10042
1659435194.763623,10039
1659435194.80292,10051
1659435194.844439,10070
1659435194.885958,10069
1659435194.924572,10063
1659435194.963186,10032
1659435195.0018,9999
1659435195.043832,9956
1659435195.085863,9927
1659435195.124135,9904
1659435195.162408,9901
1659435195.20068,9901
1659435195.242199,9891
1659435195.283718,9889
1659435195.328483,9877
1659435195.373248,9879
1659435195.418013,9876
1659435195.451331,9894
1659435195.484648,9902
1659435195.529072,9926
1659435195.573495,9922
1659435195.617918,9921
1659435195.657216,9937
1659435195.696514,9946
1659435195.735811,9969
1659435195.778355,9984
1659435195.820899,9987
1659435195.85883,9966
1659435195.896761,9936
1659435195.934691,9905
1659435195.976723,9877
1659435196.018754,9856
1659435196.057368,9859
1659435196.095983,9859
1659435196.134597,9877
1659435196.173553,9874
1659435196.212508,9885
1659435196.251464,9888
1659435196.292983,9883
1659435196.334502,9883
1659435196.373458,9906
1659435196.412414,9935
1659435196.45137,9952
1659435196.489984,9979
1659435196.528598,9986
1659435196.567212,10010
1659435196.609756,10040
1659435196.6523,10044
1659435196.690914,10055
1659435196.729528,10040
1659435196.768142,10015
1659435196.809661,9962
1659435196.85118,9936
1659435196.895262,9913
1659435196.939343,9900
1659435196.983425,9888
1659435197.016743,9884
1659435197.05006,9883
1659435197.0938,9888
1659435197.13754,9886
1659435197.18128,9899
1659435197.220236,9906
1659435197.259192,9908
1659435197.298148,9921
1659435197.339154,9926
1659435197.38016,9937
1659435197.418774,9953
1659435197.457388,9957
1659435197.496003,9966
1659435197.538547,9990
1659435197.58109,10011
1659435197.620388,10026
1659435197.659686,10037
1659435197.698983,10023
1659435197.737597,9995
1659435197.776212,9977
1659435197.814826,9965
1659435197.856857,9964
1659435197.898889,9953
1659435197.937845,9966
1659435197.9768,9974
1659435198.015756,9997
1659435198.054712,9993
1659435198.093668,9986
1659435198.132624,9985
1659435198.174143,9992
1659435198.215662,10002
1659435198.254617,10013
1659435198.293573,10041
1659435198.332529,10044
1659435198.376611,10064
1659435198.420692,10074
1659435198.464774,10071
1659435198.50578,10088
1659435198.546787,10092
1659435198.586084,10092
1659435198.625382,10084
1659435198.664679,10073
1659435198.706198,10072
1659435198.747717,10079
1659435198.786673,10059
1659435198.825629,10065
1659435198.864585,10088
1659435198.903882,10090
1659435198.94318,10109
1659435198.982477,10114
1659435199.023996,10129
1659435199.065515,10144
1659435199.104813,10147
1659435199.14411,10145
1659435199.183408,10139
1659435199.224414,10139
1659435199.26542,10145
1659435199.304376,10144
1659435199.343332,10148
1659435199.382288,10137
1659435199.420219,10140
1659435199.458149,10112
1659435199.49608,10078
1659435199.538624,10049
1659435199.581168,10034
1659435199.619782,10015
1659435199.658396,10007
1659435199.697011,10012
1659435199.738017,9997
1659435199.779023,9998
1659435199.823446,10012
1659435199.86787,10019
1659435199.912293,10026
1659435199.946636,10028
1659435199.980978,10042
1659435200.02506,10037
1659435200.069142,10042
1659435200.113224,10060
1659435200.152179,10068
1659435200.191135,10094
1659435200.230091,10115
1659435200.27161,10119
1659435200.313129,10118
1659435200.351401,10101
1659435200.389674,10065
1659435200.427946,10040
1659435200.46656,10014
1659435200.505174,9996
1659435200.543789,10005
1659435200.586333,10001
1659435200.628876,9992
1659435200.666807,9998
1659435200.704738,9987
1659435200.742669,9994
1659435200.781966,10005
1659435200.821264,9992
1659435200.860562,10007
1659435200.90208,10019
1659435200.943599,10020
1659435200.982213,10042
1659435201.020827,10055
1659435201.059442,10051
1659435201.101985,10054
1659435201.144529,10081
1659435201.183485,10111
1659435201.222441,10123
1659435201.261397,10096
1659435201.302403,10062
1659435201.34341,10050
1659435201.387491,10025
1659435201.431573,10017
1659435201.475655,10005
1659435201.509997,10023
1659435201.54434,10027
1659435201.588763,10053
1659435201.633187,10058
1659435201.67761,10054
1659435201.716224,10055
1659435201.754838,10053
1659435201.793453,10064
1659435201.834971,10074
1659435201.87649,10091
1659435201.915104,10074
1659435201.953718,10094
1659435201.992333,10094
1659435202.034364,10095
1659435202.076396,10099
1659435202.115351,10104
1659435202.154307,10106
1659435202.193263,10087
1659435202.231877,10057
1659435202.270491,10026
1659435202.309106,10011
1659435202.350624,10004
1659435202.392143,9994
1659435202.431782,9995
1659435202.471422,10005
1659435202.511061,10014
1659435202.551555,10020
1659435202.592048,10015
1659435202.630321,10024
1659435202.668593,10044
1659435202.706866,10067
1659435202.74548,10065
1659435202.784094,10094
1659435202.822708,10108
1659435202.864227,10109
1659435202.905746,10109
1659435202.946752,10109
1659435202.987758,10128
1659435203.026714,10131
1659435203.06567,10142
1659435203.104626,10139
1659435203.149049,10124
1659435203.193473,10110
1659435203.237896,10087
1659435203.271726,10092
1659435203.305556,10090
1659435203.345537,10088
1659435203.385518,10089
1659435203.425499,10084
1659435203.465481,10101
1659435203.505461,10099
1659435203.546468,10087
1659435203.587474,10097
1659435203.631214,10099
1659435203.674954,10113
1659435203.718694,10103
1659435203.752524,10124
1659435203.786354,10133
1659435203.830777,10137
1659435203.875201,10134
1659435203.919624,10134
1659435203.951916,10145
1659435203.984209,10128
1659435204.028974,10121
1659435204.073739,10099
1659435204.118504,10072
1659435204.158144,10054
1659435204.197783,10049
1659435204.237422,10044
1659435204.278429,10039
1659435204.319435,10053
1659435204.358391,10056
1659435204.397346,10063
1659435204.436302,10090
1659435204.4756,10096
1659435204.514898,10098
1659435204.554195,10118
1659435204.595714,10120
1659435204.637233,10141
1659435204.67653,10162
1659435204.715828,10168
1659435204.755126,10171
1659435204.796644,10194
1659435204.838163,10208
1659435204.876094,10227
1659435204.914025,10241
1659435204.951955,10221
1659435204.990911,10191
1659435205.029867,10160
1659435205.068823,10139
1659435205.111367,10131
1659435205.153911,10133
1659435205.194917,10135
1659435205.235923,10137
1659435205.274879,10137
1659435205.313835,10132
1659435205.352791,10126
1659435205.397556,10130
1659435205.442321,10130
1659435205.487086,10132
1659435205.519891,10142
1659435205.552696,10157
1659435205.596778,10157
1659435205.64086,10171
1659435205.684941,10174
1659435205.724581,10188
1659435205.76422,10187
1659435205.803859,10197
1659435205.844353,10213
1659435205.884846,10244
1659435205.92346,10254
1659435205.962075,10227
1659435206.000689,10225
1659435206.038961,10194
1659435206.077234,10197
1659435206.115506,10205
1659435206.157538,10209
1659435206.199569,10233
1659435206.237841,10231
1659435206.276114,10249
1659435206.314386,10263
1659435206.353684,10276
1659435206.392982,10283
1659435206.432279,10300
1659435206.473285,10294
1659435206.514292,10300
1659435206.558715,10304
1659435206.603138,10306
1659435206.647562,10317
1659435206.681905,10317
1659435206.716247,10315
1659435206.760671,10316
1659435206.805094,10343
1659435206.849517,10351
1659435206.88181,10332
1659435206.914102,10307
1659435206.958525,10314
1659435207.002949,10299
1659435207.047372,10317
1659435207.08667,10300
1659435207.125968,10288
1659435207.165265,10313
1659435207.206784,10312
1659435207.248303,10324
1659435207.286917,10314
1659435207.325531,10311
1659435207.364145,10297
1659435207.406177,10286
1659435207.448208,10291
1659435207.487164,10280
1659435207.52612,10295
1659435207.565076,10295
1659435207.604373,10289
1659435207.643671,10289
1659435207.682968,10284
1659435207.724487,10291
1659435207.766006,10294
1659435207.805304,10275
1659435207.844601,10257
1659435207.883899,10255
1659435207.92593,10234
1659435207.967962,10223
1659435208.007259,10234
1659435208.046557,10206
1659435208.085854,10208
1659435208.126348,10200
1659435208.166842,10194
1659435208.205456,10190
1659435208.24407,10175
1659435208.282684,10190
1659435208.325228,10196
1659435208.367772,10189
1659435208.406728,10174
1659435208.445684,10180
1659435208.48464,10195
1659435208.52838,10205
1659435208.572119,10222
1659435208.61586,10227
1659435208.654474,10234
1659435208.693088,10234
1659435208.731702,10208
1659435208.773221,10189
1659435208.814739,10173
1659435208.853695,10174
1659435208.892651,10174
1659435208.931607,10193
1659435208.970563,10192
1659435209.009519,10198
1659435209.048475,10211
1659435209.090506,10222
1659435209.132538,10213
1659435209.170468,10234
1659435209.208399,10249
1659435209.24633,10269
1659435209.288361,10288
1659435209.330393,10286
1659435209.368665,10291
1659435209.406938,10309
1659435209.44521,10319
1659435209.484166,10326
1659435209.523122,10334
1659435209.562078,10341
1659435209.604109,10356
1659435209.64614,10345
1659435209.687659,10314
1659435209.729178,10302
1659435209.76745,10270
1659435209.805723,10267
1659435209.843995,10247
1659435209.889102,10260
1659435209.934209,10251
1659435209.979316,10251
1659435210.013146,10256
1659435210.046976,10252
1659435210.091058,10259
1659435210.135139,10256
1659435210.179221,10279
1659435210.212026,10285
1659435210.244831,10327
1659435210.289254,10320
1659435210.333678,10315
1659435210.378101,10334
1659435210.416715,10360
1659435210.455329,10386
1659435210.493943,10402
1659435210.535975,10410
1659435210.578006,10377
1659435210.616621,10359
1659435210.655235,10330
1659435210.693849,10316
1659435210.732805,10306
1659435210.77176,10298
1659435210.810716,10295
1659435210.853261,10302
1659435210.895804,10288
1659435210.935102,10304
1659435210.9744,10317
1659435211.013697,10319
1659435211.054703,10325
1659435211.09571,10335
1659435211.135007,10320
1659435211.174305,10316
1659435211.213602,10315
1659435211.256146,10308
1659435211.29869,10313
1659435211.336963,10326
1659435211.375235,10328
1659435211.413508,10328
1659435211.454001,10303
1659435211.494495,10282
1659435211.533451,10265
1659435211.572407,10245
1659435211.611362,10247
1659435211.655102,10244
1659435211.698843,10260
1659435211.742582,10254
1659435211.776412,10247
1659435211.810243,10251
1659435211.854324,10260
1659435211.898406,10301
1659435211.942488,10300
1659435211.981102,10324
1659435212.019716,10346
1659435212.05833,10373
1659435212.099849,10387
1659435212.141368,10407
1659435212.180665,10411
1659435212.219963,10424
1659435212.259261,10450
1659435212.300779,10439
1659435212.342298,10436
1659435212.381254,10421
1659435212.42021,10407
1659435212.459166,10388
1659435212.497438,10397
1659435212.535711,10380
1659435212.573983,10377
1659435212.615502,10383
1659435212.657021,10401
1659435212.695293,10396
1659435212.733566,10409
1659435212.771838,10417
1659435212.813357,10404
1659435212.854876,10426
1659435212.893831,10441
1659435212.932787,10462
1659435212.971743,10483
1659435213.013262,10484
1659435213.054781,10504
1659435213.093395,10503
1659435213.132009,10489
1659435213.170623,10463
1659435213.21368,10445
1659435213.256737,10427
1659435213.295351,10405
1659435213.333965,10414
1659435213.372579,10405
1659435213.417344,10430
1659435213.462109,10420
1659435213.506874,10416
1659435213.54788,10436
1659435213.588887,10448
1659435213.627843,10447
1659435213.666798,10440
1659435213.705754,10460
1659435213.747786,10480
1659435213.789817,10495
1659435213.827748,10512
1659435213.865679,10515
1659435213.903609,10541
1659435213.94154,10543
1659435213.982034,10549
1659435214.022527,10533
1659435214.061483,10516
1659435214.100439,10509
1659435214.139395,10506
1659435214.182451,10498
1659435214.225508,10497
1659435214.26378,10482
1659435214.302053,10476
1659435214.340325,10470
1659435214.384749,10470
1659435214.429172,10468
1659435214.473595,10487
1659435214.506913,10503
1659435214.540231,10509
1659435214.584312,10513
1659435214.628394,10516
1659435214.672476,10527
1659435214.706306,10524
1659435214.740136,10549
1659435214.784559,10557
1659435214.828983,10576
1659435214.873406,10580
1659435214.911678,10559
1659435214.949951,10537
1659435214.988223,10521
1659435215.028717,10514
1659435215.069211,10509
1659435215.108508,10502
1659435215.147806,10519
1659435215.187104,10509
1659435215.225376,10522
1659435215.263648,10545
1659435215.301921,10554
1659435215.343952,10542
1659435215.385983,10559
1659435215.425281,10574
1659435215.464579,10586
1659435215.503876,10592
1659435215.545395,10596
1659435215.586914,10611
1659435215.625528,10607
1659435215.664142,10628
1659435215.702756,10630
1659435215.7453,10630
1659435215.787844,10633
1659435215.826117,10599
1659435215.864389,10585
1659435215.902662,10540
1659435215.943668,10530
1659435215.984674,10517
1659435216.023288,10511
1659435216.061902,10505
1659435216.100517,10504
1659435216.144598,10504
1659435216.18868,10516
1659435216.232762,10510
1659435216.266079,10524
1659435216.299397,10520
1659435216.344503,10528
1659435216.38961,10549
1659435216.434717,10564
1659435216.476236,10584
1659435216.517755,10599
1659435216.55671,10621
1659435216.595666,10631
1659435216.634622,10631
1659435216.677166,10624
1659435216.71971,10621
1659435216.759008,10605
1659435216.798306,10587
1659435216.837603,10558
1659435216.875875,10546
1659435216.914148,10558
1659435216.95242,10553
1659435216.993939,10569
1659435217.035458,10574
1659435217.074756,10575
1659435217.114053,10583
1659435217.153351,10577
1659435217.191965,10587
1659435217.230579,10595
1659435217.269193,10620
1659435217.310199,10647
1659435217.351206,10690
1659435217.390503,10693
1659435217.429801,10709
1659435217.469099,10731
1659435217.51113,10749
1659435217.553161,10771
1659435217.592117,10758
1659435217.631073,10728
1659435217.670029,10684
1659435217.710215,10662
1659435217.750401,10646
1659435217.790587,10628
1659435217.830773,10634
1659435217.870959,10625
1659435217.912478,10645
1659435217.953997,10640
1659435217.998762,10635
1659435218.043527,10631
1659435218.088292,10632
1659435218.121097,10630
1659435218.153902,10621
1659435218.197642,10630
1659435218.241382,10633
1659435218.285122,10647
1659435218.323395,10632
1659435218.361667,10633
1659435218.399939,10646
1659435218.442483,10657
1659435218.485027,10674
1659435218.5233,10679
1659435218.561572,10664
1659435218.599845,10629
1659435218.640851,10590
1659435218.681857,10569
1659435218.721155,10542
1659435218.760452,10526
1659435218.79975,10518
1659435218.838022,10516
1659435218.876295,10527
1659435218.914567,10511
1659435218.956599,10504
1659435218.99863,10508
1659435219.038269,10520
1659435219.077909,10531
1659435219.117548,10543
1659435219.155479,10563
1659435219.193409,10576
1659435219.23134,10606
1659435219.272859,10613
1659435219.314378,10631
1659435219.356922,10634
1659435219.399466,10653
1659435219.437738,10669
1659435219.47601,10678
1659435219.514283,10675
1659435219.558365,10662
1659435219.602446,10662
1659435219.646528,10651
1659435219.680358,10646
1659435219.714188,10641
1659435219.758611,10645
1659435219.803035,10646
1659435219.847458,10649
1659435219.881288,10639
1659435219.915118,10623
1659435219.95715,10605
1659435219.999181,10604
1659435220.041213,10599
1659435220.083244,10599
1659435220.121858,10606
1659435220.160472,10611
1659435220.199086,10605
1659435220.240605,10606
1659435220.282124,10609
1659435220.320738,10605
1659435220.359352,10593
1659435220.397967,10586
1659435220.439485,10565
1659435220.481004,10537
1659435220.519618,10518
1659435220.558233,10505
1659435220.596847,10489
1659435220.638366,10481
1659435220.679884,10473
1659435220.718498,10483
1659435220.757113,10508
1659435220.795727,10519
1659435220.837758,10520
1659435220.879789,10532
1659435220.924896,10544
1659435220.970003,10561
1659435221.01511,10576
1659435221.053382,10577
1659435221.091655,10598
1659435221.129927,10615
1659435221.171446,10632
1659435221.212965,10654
1659435221.251579,10683
1659435221.290193,10684
1659435221.328807,10676
1659435221.36708,10647
1659435221.405352,10623
1659435221.443625,10589
1659435221.485656,10591
1659435221.527687,10569
1659435221.566643,10548
1659435221.605599,10539
1659435221.644555,10539
1659435221.685049,10519
1659435221.725542,10497
1659435221.763815,10520
1659435221.802087,10527
1659435221.84036,10559
1659435221.879316,10603
1659435221.918272,10620
1659435221.957227,10646
1659435221.998746,10664
1659435222.040265,10700
1659435222.079221,10701
1659435222.118177,10708
1659435222.157133,10716
1659435222.198651,10741
1659435222.24017,10750
1659435222.279468,10738
1659435222.318765,10733
1659435222.358063,10723
1659435222.400094,10717
1659435222.442126,10718
1659435222.486207,10717
1659435222.530289,10733
1659435222.574371,10746
1659435222.607688,10748
1659435222.641006,10752
1659435222.684746,10756
1659435222.728486,10780
1659435222.772226,10807
1659435222.811182,10832
1659435222.850137,10850
1659435222.889093,10876
1659435222.931125,10913
1659435222.973156,10915
1659435223.012112,10934
1659435223.051068,10920
1659435223.090024,10902
1659435223.131542,10887
1659435223.173061,10853
1659435223.212359,10837
1659435223.251657,10832
1659435223.290954,10835
1659435223.330252,10831
1659435223.369549,10834
1659435223.408847,10815
1659435223.450366,10805
1659435223.491884,10805
1659435223.53084,10808
1659435223.569796,10814
1659435223.608752,10815
1659435223.649758,10816
1659435223.690765,10810
1659435223.729379,10824
1659435223.767993,10837
1659435223.806607,10863
1659435223.848639,10889
1659435223.89067,10886
1659435223.928942,10884
1659435223.967215,10865
1659435224.005487,10857
1659435224.046493,10847
1659435224.0875,10835
1659435224.127139,10831
1659435224.166778,10838
1659435224.206418,10854
1659435224.251183,10866
1659435224.295948,10876
1659435224.340713,10884
1659435224.378985,10900
1659435224.417258,10911
1659435224.45553,10933
1659435224.495511,10961
1659435224.535492,10971
1659435224.575473,10990
1659435224.615454,10987
1659435224.655436,10974
1659435224.693366,10985
1659435224.731297,10987
1659435224.769228,10986
1659435224.811772,10961
1659435224.854316,10926
1659435224.89293,10899
1659435224.931544,10875
1659435224.970158,10851
1659435225.010652,10863
1659435225.051145,10864
1659435225.090101,10859
1659435225.129057,10877
1659435225.168013,10885
1659435225.206969,10879
1659435225.245925,10901
1659435225.284881,10922
1659435225.3264,10934
1659435225.367918,10953
1659435225.40995,10963
1659435225.451981,10970
1659435225.491279,10975
1659435225.530576,10995
1659435225.569874,11002
1659435225.613955,10994
1659435225.658037,10961
1659435225.702119,10938
1659435225.736461,10937
1659435225.770804,10910
1659435225.815228,10840
1659435225.859651,10844
1659435225.904074,10853
1659435225.936879,10869
1659435225.969684,10889
1659435226.013766,10904
1659435226.057847,10929
1659435226.101929,10944
1659435226.140543,10948
1659435226.179158,10974
1659435226.217772,10981
1659435226.259291,10990
1659435226.300809,11007
1659435226.339765,11041
1659435226.378721,11068
1659435226.417677,11087
1659435226.459708,11093
1659435226.50174,11066
1659435226.540696,11057
1659435226.579652,11050
1659435226.618608,11031
1659435226.657905,11044
1659435226.697203,11069
1659435226.7365,11068
1659435226.778532,11081
1659435226.820563,11092
1659435226.859177,11080
1659435226.897791,11097
1659435226.936405,11091
1659435226.977412,11106
1659435227.018418,11109
1659435227.057715,11105
1659435227.097013,11100
1659435227.136311,11077
1659435227.17783,11079
1659435227.219348,11080
1659435227.257621,11066
1659435227.295893,11028
1659435227.334166,10985
1659435227.375684,10964
1659435227.417203,10941
1659435227.456843,10913
1659435227.496482,10910
1659435227.536121,10901
1659435227.579861,10898
1659435227.623601,10873
1659435227.667341,10803
1659435227.706297,10795
1659435227.745253,10845
1659435227.784209,10870
1659435227.825215,10899
1659435227.866221,10940
1659435227.905177,10934
1659435227.944133,10906
1659435227.983089,10916
1659435228.02512,10922
1659435228.067152,10919
1659435228.106107,10936
1659435228.145063,10921
1659435228.184019,10897
1659435228.222292,10879
1659435228.260564,10833
1659435228.298836,10835
1659435228.339843,10854
1659435228.380849,10859
1659435228.420146,10867
1659435228.459444,10889
1659435228.498742,10903
1659435228.540261,10898
1659435228.581779,10912
1659435228.620735,10928
1659435228.659691,10955
1659435228.698647,10997
1659435228.743754,11033
1659435228.788861,11057
1659435228.833967,11056
1659435228.866772,11081
1659435228.899577,11091
1659435228.944001,11109
1659435228.988424,11108
1659435229.032848,11094
1659435229.070522,11078
1659435229.108196,11037
1659435229.145871,11034
1659435229.183545,11008
1659435229.225064,11024
1659435229.266583,11065
1659435229.305539,11084
1659435229.344495,11086
1659435229.383451,11089
1659435229.424969,11115
1659435229.466488,11127
1659435229.504419,11127
1659435229.54235,11148
1659435229.58028,11147
1659435229.620877,11157
1659435229.661473,11170
1659435229.702069,11173
1659435229.742665,11182
1659435229.783261,11175
1659435229.824267,11165
1659435229.865273,11151
1659435229.909697,11125
1659435229.95412,11088
1659435229.998544,11085
1659435230.038183,11065
1659435230.077822,11066
1659435230.117462,11072
1659435230.15898,11064
1659435230.200499,11062
1659435230.239113,11072
1659435230.277728,11076
1659435230.316342,11069
1659435230.354956,11092
1659435230.39357,11105
1659435230.432184,11119
1659435230.472678,11141
1659435230.513171,11141
1659435230.551444,11166
1659435230.589716,11177
1659435230.627989,11194
1659435230.670533,11196
1659435230.713077,11200
1659435230.751691,11178
1659435230.790305,11164
1659435230.828919,11164
1659435230.867875,11155
1659435230.906831,11145
1659435230.945787,11163
1659435230.987818,11166
1659435231.02985,11181
1659435231.068805,11172
1659435231.107761,11189
1659435231.146717,11201
1659435231.188236,11206
1659435231.229755,11229
1659435231.268369,11261
1659435231.306983,11288
1659435231.345598,11309
1659435231.387116,11335
1659435231.428635,11329
1659435231.470154,11325
1659435231.511672,11331
1659435231.550287,11323
1659435231.588901,11310
1659435231.627515,11289
1659435231.668521,11271
1659435231.709527,11263
1659435231.748483,11249
1659435231.787439,11232
1659435231.826395,11229
1659435231.867914,11240
1659435231.909433,11227
1659435231.948389,11228
1659435231.987345,11225
1659435232.0263,11226
1659435232.070382,11219
1659435232.114464,11240
1659435232.158545,11236
1659435232.200064,11241
1659435232.241583,11252
1659435232.28088,11262
1659435232.320178,11279
1659435232.359476,11283
1659435232.401507,11292
1659435232.443538,11307
1659435232.482153,11301
1659435232.520767,11302
1659435232.559381,11305
1659435232.598337,11307
1659435232.637293,11302
1659435232.676249,11311
1659435232.717255,11337
1659435232.758261,11337
1659435232.796875,11348
1659435232.83549,11354
1659435232.874104,11367
1659435232.916135,11378
1659435232.958166,11386
1659435232.997464,11386
1659435233.036762,11410
1659435233.076059,11421
1659435233.114331,11417
1659435233.152604,11421
1659435233.190876,11428
1659435233.232908,11438
1659435233.274939,11467
1659435233.314237,11453
1659435233.353534,11433
1659435233.392832,11385
1659435233.433838,11365
1659435233.474844,11358
1659435233.513459,11344
1659435233.552073,11359
1659435233.590687,11342
1659435233.631949,11349
1659435233.673212,11337
1659435233.714474,11331
1659435233.755737,11342
1659435233.796999,11376
1659435233.838262,11393
1659435233.879524,11397
1659435233.920787,11428
1659435233.959401,11442
1659435233.998015,11471
1659435234.036629,11467
1659435234.075243,11483
1659435234.113858,11509
1659435234.152472,11512
1659435234.19476,11503
1659435234.237047,11471
1659435234.279335,11450
1659435234.321623,11419
1659435234.359895,11406
1659435234.398167,11418
1659435234.43644,11423
1659435234.475738,11433
1659435234.515035,11447
1659435234.554333,11455
1659435234.595851,11448
1659435234.63737,11437
1659435234.675643,11413
1659435234.713915,11437
1659435234.752188,11442
1659435234.794732,11455
1659435234.837276,11468
1659435234.877052,11485
1659435234.916827,11494
1659435234.956604,11512
1659435234.99638,11506
1659435235.036156,11522
1659435235.080237,11518
1659435235.124319,11492
1659435235.168401,11476
1659435235.202743,11452
1659435235.237086,11442
1659435235.281509,11447
1659435235.325933,11475
1659435235.370356,11509
1659435235.403161,11524
1659435235.435966,11542
1659435235.481073,11553
1659435235.52618,11579
1659435235.571286,11572
1659435235.609901,11579
1659435235.648515,11582
1659435235.687129,11591
1659435235.72916,11598
1659435235.771192,11605
1659435235.810148,11612
1659435235.849103,11617
1659435235.888059,11623
1659435235.926674,11613
1659435235.965288,11594
1659435236.003902,11582
1659435236.044908,11549
1659435236.085914,11534
1659435236.12487,11526
1659435236.163826,11523
1659435236.202782,11509
1659435236.244813,11521
1659435236.286845,11492
1659435236.325459,11479
1659435236.364073,11486
1659435236.402687,11488
1659435236.441643,11487
1659435236.480599,11501
1659435236.519555,11497
1659435236.561074,11499
1659435236.602592,11508
1659435236.644624,11523
1659435236.686655,11525
1659435236.725611,11533
1659435236.764567,11543
1659435236.803523,11536
1659435236.847605,11528
1659435236.891686,11503
1659435236.935768,11499
1659435236.968573,11499
1659435237.001378,11508
1659435237.045118,11509
1659435237.088858,11509
1659435237.132598,11516
1659435237.16694,11520
1659435237.201283,11523
1659435237.245023,11523
1659435237.288763,11546
1659435237.332503,11548
1659435237.371459,11502
1659435237.410415,11495
1659435237.449371,11525
1659435237.490889,11551
1659435237.532408,11580
1659435237.572047,11579
1659435237.611687,11595
1659435237.651326,11598
1659435237.692332,11576
1659435237.733339,11572
1659435237.772295,11573
1659435237.81125,11565
1659435237.850206,11567
1659435237.88882,11567
1659435237.927434,11568
1659435237.966049,11578
1659435238.00808,11592
1659435238.050112,11575
1659435238.089067,11582
1659435238.128023,11584
1659435238.166979,11586
1659435238.208498,11593
1659435238.250017,11603
1659435238.287947,11598
1659435238.325878,11597
1659435238.363809,11604
1659435238.406865,11596
1659435238.449922,11591
1659435238.488536,11545
1659435238.52715,11505
1659435238.565764,11487
1659435238.607283,11487
1659435238.648802,11485
1659435238.6881,11467
1659435238.727397,11467
1659435238.766695,11462
1659435238.811802,11459
1659435238.856909,11473
1659435238.902015,11483
1659435238.943534,11500
1659435238.985053,11498
1659435239.024009,11498
1659435239.062965,11509
1659435239.101921,11536
1659435239.143952,11536
1659435239.185983,11548
1659435239.223914,11546
1659435239.261845,11506
1659435239.299775,11488
1659435239.33839,11471
1659435239.377004,11452
1659435239.415618,11447
1659435239.457649,11425
1659435239.499681,11430
1659435239.537611,11425
1659435239.575542,11447
1659435239.613473,11451
1659435239.652429,11452
1659435239.691385,11455
1659435239.73034,11458
1659435239.771859,11482
1659435239.813378,11486
1659435239.851992,11485
1659435239.890606,11512
1659435239.929221,11514
1659435239.971252,11536
1659435240.013283,11516
1659435240.052581,11507
1659435240.091879,11472
1659435240.131176,11459
1659435240.173823,11422
1659435240.216469,11412
1659435240.259115,11427
1659435240.301762,11416
1659435240.344409,11419
1659435240.378751,11416
1659435240.413094,11426
1659435240.457175,11416
1659435240.501257,11404
1659435240.545339,11402
1659435240.577631,11410
1659435240.609924,11427
1659435240.65503,11437
1659435240.700137,11453
1659435240.745244,11470
1659435240.783858,11485
1659435240.822472,11518
1659435240.861087,11532
1659435240.903118,11550
1659435240.945149,11532
1659435240.984105,11523
1659435241.023061,11483
1659435241.062017,11488
1659435241.100631,11466
1659435241.139245,11450
1659435241.17786,11461
1659435241.218866,11463
1659435241.259872,11471
1659435241.299511,11469
1659435241.339151,11458
1659435241.37879,11443
1659435241.419796,11441
1659435241.460802,11452
1659435241.499758,11448
1659435241.538714,11467
1659435241.57767,11482
1659435241.616284,11488
1659435241.654898,11506
1659435241.693512,11509
1659435241.736569,11518
1659435241.779626,11507
1659435241.820119,11485
1659435241.860613,11450
1659435241.899569,11448
1659435241.938524,11421
1659435241.97748,11403
1659435242.019512,11397
1659435242.061543,11363
1659435242.100841,11365
1659435242.140138,11372
1659435242.179436,11364
1659435242.223518,11346
1659435242.267599,11317
1659435242.311681,11303
1659435242.345511,11219
1659435242.379341,11174
1659435242.423081,11083
1659435242.466821,10953
1659435242.510561,10777
1659435242.549175,10616
1659435242.58779,10424
1659435242.626404,10254
1659435242.667922,10073
1659435242.709441,10007
1659435242.748397,9887
1659435242.787353,9620
1659435242.826309,9353
1659435242.86424,9319
1659435242.90217,9295
1659435242.940101,9271
1659435242.982645,9228
1659435243.025189,9268
1659435243.063803,9469
1659435243.102417,10083
1659435243.141032,10035
1659435243.179646,9853
1659435243.21826,9814
1659435243.256874,9685
1659435243.299418,9738
1659435243.341962,9687
1659435243.383481,9560
1659435243.424999,9545
1659435243.46293,9567
