LocalTimestamp,PG
1659431712.144037,16092
1659431712.144037,16113
1659431712.144037,16129
1659431712.144037,16141
1659431712.183334,16166
1659431712.222631,16179
1659431712.261927,16191
1659431712.301224,16207
1659431712.340521,16219
1659431712.379818,16243
1659431712.423557,16250
1659431712.467296,16269
1659431712.511035,16257
1659431712.550332,16219
1659431712.589628,16209
1659431712.628925,16222
1659431712.667197,16242
1659431712.705469,16252
1659431712.74374,16266
1659431712.785258,16285
1659431712.826776,16299
1659431712.865731,16311
1659431712.904686,16325
1659431712.943641,16336
1659431712.985159,16344
1659431713.026677,16372
1659431713.065291,16382
1659431713.103904,16402
1659431713.142518,16417
1659431713.181473,16417
1659431713.220428,16397
1659431713.259383,16353
1659431713.301926,16353
1659431713.344469,16357
1659431713.383082,16374
1659431713.421696,16373
1659431713.460309,16383
1659431713.501314,16404
1659431713.54232,16402
1659431713.580933,16413
1659431713.619547,16423
1659431713.65816,16427
1659431713.700191,16439
1659431713.742221,16455
1659431713.786302,16463
1659431713.830383,16467
1659431713.874463,16483
1659431713.913077,16478
1659431713.95169,16430
1659431713.990304,16390
1659431714.031309,16372
1659431714.072314,16371
1659431714.111269,16384
1659431714.150224,16396
1659431714.189179,16405
1659431714.227793,16428
1659431714.266406,16425
1659431714.30502,16435
1659431714.34705,16457
1659431714.389081,16453
1659431714.427694,16472
1659431714.466307,16482
1659431714.504921,16494
1659431714.546439,16506
1659431714.587957,16526
1659431714.626912,16533
1659431714.665867,16505
1659431714.704822,16500
1659431714.743777,16483
1659431714.782732,16493
1659431714.821687,16515
1659431714.863205,16534
1659431714.904723,16557
1659431714.943678,16571
1659431714.982633,16588
1659431715.021588,16589
1659431715.062594,16608
1659431715.103599,16622
1659431715.143238,16623
1659431715.182876,16657
1659431715.222515,16669
1659431715.264545,16701
1659431715.306576,16719
1659431715.350657,16702
1659431715.394737,16709
1659431715.438818,16687
1659431715.472135,16669
1659431715.505452,16676
1659431715.550558,16689
1659431715.595664,16699
1659431715.640769,16724
1659431715.674086,16724
1659431715.707403,16716
1659431715.751484,16722
1659431715.795565,16730
1659431715.839645,16748
1659431715.878601,16760
1659431715.917556,16779
1659431715.956511,16800
1659431715.997004,16808
1659431716.037496,16818
1659431716.076451,16830
1659431716.115407,16840
1659431716.154361,16813
1659431716.193658,16809
1659431716.232955,16809
1659431716.272252,16809
1659431716.313257,16830
1659431716.354263,16838
1659431716.393218,16852
1659431716.432173,16863
1659431716.471128,16878
1659431716.510083,16883
1659431716.549038,16914
1659431716.587993,16903
1659431716.629511,16917
1659431716.671029,16937
1659431716.715452,16943
1659431716.759874,16951
1659431716.804297,16957
1659431716.837101,16965
1659431716.869905,16948
1659431716.913986,16944
1659431716.958067,16938
1659431717.002147,16940
1659431717.035464,16951
1659431717.068781,16960
1659431717.113545,16970
1659431717.15831,16980
1659431717.203074,16986
1659431717.241004,16987
1659431717.278934,17013
1659431717.316864,17008
1659431717.357869,17032
1659431717.398875,17050
1659431717.437829,17058
1659431717.476785,17068
1659431717.51574,17056
1659431717.554695,17062
1659431717.59365,17057
1659431717.632605,17044
1659431717.672244,17047
1659431717.711882,17062
1659431717.751521,17084
1659431717.796285,17084
1659431717.841049,17106
1659431717.885813,17108
1659431717.91913,17099
1659431717.952447,17111
1659431717.996869,17116
1659431718.041292,17149
1659431718.085714,17163
1659431718.124669,17167
1659431718.163625,17155
1659431718.202579,17149
1659431718.244097,17163
1659431718.285615,17181
1659431718.324571,17173
1659431718.363526,17162
1659431718.402481,17150
1659431718.443999,17139
1659431718.485517,17160
1659431718.524472,17167
1659431718.563427,17186
1659431718.602382,17190
1659431718.640995,17200
1659431718.679609,17220
1659431718.718222,17224
1659431718.760765,17219
1659431718.803308,17202
1659431718.842263,17212
1659431718.881218,17216
1659431718.920173,17233
1659431718.961691,17228
1659431719.003209,17229
1659431719.041823,17201
1659431719.080436,17194
1659431719.11905,17183
1659431719.161592,17183
1659431719.204136,17189
1659431719.242407,17178
1659431719.280679,17194
1659431719.318951,17203
1659431719.363373,17206
1659431719.407796,17222
1659431719.452218,17250
1659431719.49049,17274
1659431719.528761,17289
1659431719.567033,17314
1659431719.608551,17332
1659431719.650069,17328
1659431719.688682,17332
1659431719.727296,17317
1659431719.765909,17319
1659431719.808452,17305
1659431719.850995,17320
1659431719.889609,17318
1659431719.928222,17325
1659431719.966835,17343
1659431720.005449,17349
1659431720.044062,17354
1659431720.082676,17380
1659431720.124193,17381
1659431720.165711,17384
1659431720.204325,17398
1659431720.242938,17407
1659431720.281552,17426
1659431720.322557,17428
1659431720.363562,17428
1659431720.402859,17437
1659431720.442156,17443
1659431720.481453,17430
1659431720.525192,17411
1659431720.568931,17407
1659431720.61267,17396
1659431720.646499,17399
1659431720.680329,17402
1659431720.725093,17394
1659431720.769857,17395
1659431720.814621,17381
1659431720.847426,17378
1659431720.88023,17380
1659431720.924652,17394
1659431720.969075,17407
1659431721.013497,17431
1659431721.053136,17444
1659431721.092774,17468
1659431721.132413,17464
1659431721.173931,17458
1659431721.215449,17441
1659431721.254404,17439
1659431721.293359,17437
1659431721.332314,17436
1659431721.374345,17453
1659431721.416375,17456
1659431721.454647,17456
1659431721.492918,17477
1659431721.53119,17473
1659431721.569803,17476
1659431721.608417,17486
1659431721.64703,17490
1659431721.689061,17491
1659431721.731091,17509
1659431721.769363,17513
1659431721.807635,17519
1659431721.845906,17529
1659431721.887937,17516
1659431721.929967,17509
1659431721.968922,17496
1659431722.007878,17497
1659431722.046833,17491
1659431722.088863,17499
1659431722.130894,17518
1659431722.169507,17539
1659431722.20812,17548
1659431722.246734,17528
1659431722.288764,17541
1659431722.330795,17554
1659431722.369066,17558
1659431722.407338,17554
1659431722.44561,17560
1659431722.489691,17569
1659431722.533771,17580
1659431722.577852,17587
1659431722.620395,17585
1659431722.662938,17566
1659431722.70121,17530
1659431722.739482,17521
1659431722.777753,17517
1659431722.816025,17510
1659431722.854297,17521
1659431722.892568,17521
1659431722.931865,17529
1659431722.971162,17540
1659431723.010459,17546
1659431723.051464,17545
1659431723.092469,17566
1659431723.131424,17560
1659431723.17038,17559
1659431723.209335,17580
1659431723.250853,17583
1659431723.292371,17599
1659431723.330984,17597
1659431723.369597,17607
1659431723.408211,17603
1659431723.449216,17588
1659431723.490222,17578
1659431723.529518,17568
1659431723.568815,17586
1659431723.608112,17592
1659431723.649117,17595
1659431723.690123,17599
1659431723.729078,17615
1659431723.768033,17607
1659431723.806988,17613
1659431723.851069,17618
1659431723.895149,17611
1659431723.93923,17633
1659431723.981261,17639
1659431724.023291,17645
1659431724.062246,17645
1659431724.101202,17661
1659431724.140157,17654
1659431724.182187,17639
1659431724.224217,17620
1659431724.263173,17606
1659431724.302128,17612
1659431724.341083,17616
1659431724.380038,17632
1659431724.418993,17631
1659431724.457948,17638
1659431724.499979,17641
1659431724.542009,17653
1659431724.581306,17659
1659431724.620603,17662
1659431724.659899,17669
1659431724.698513,17669
1659431724.737126,17679
1659431724.77574,17659
1659431724.816745,17683
1659431724.85775,17691
1659431724.896706,17656
1659431724.935661,17631
1659431724.974616,17622
1659431725.016646,17617
1659431725.058677,17617
1659431725.096607,17646
1659431725.134537,17642
1659431725.172467,17654
1659431725.217231,17666
1659431725.261995,17671
1659431725.306759,17676
1659431725.340076,17681
1659431725.373393,17685
1659431725.417815,17698
1659431725.462238,17707
1659431725.50666,17710
1659431725.548178,17721
1659431725.589696,17712
1659431725.628993,17678
1659431725.66829,17667
1659431725.707587,17676
1659431725.745517,17665
1659431725.783447,17674
1659431725.821377,17689
1659431725.862895,17694
1659431725.904412,17699
1659431725.943026,17716
1659431725.981639,17711
1659431726.020252,17724
1659431726.058866,17725
1659431726.097479,17727
1659431726.136093,17744
1659431726.177611,17755
1659431726.219129,17764
1659431726.258084,17754
1659431726.297039,17720
1659431726.335994,17691
1659431726.376999,17689
1659431726.418005,17693
1659431726.457643,17690
1659431726.497282,17699
1659431726.53692,17699
1659431726.578438,17695
1659431726.619956,17695
1659431726.658569,17702
1659431726.697183,17719
1659431726.735796,17746
1659431726.777314,17744
1659431726.818832,17760
1659431726.863596,17771
1659431726.90836,17773
1659431726.953125,17776
1659431726.985929,17782
1659431727.018733,17787
1659431727.063156,17751
1659431727.107578,17702
1659431727.152001,17683
1659431727.190956,17666
1659431727.229911,17677
1659431727.268866,17668
1659431727.310384,17681
1659431727.351902,17682
1659431727.391199,17687
1659431727.430496,17689
1659431727.469792,17692
1659431727.51131,17712
1659431727.552828,17723
1659431727.591441,17742
1659431727.630055,17743
1659431727.668668,17771
1659431727.707623,17783
1659431727.746578,17789
1659431727.785533,17800
1659431727.828077,17795
1659431727.87062,17803
1659431727.908891,17779
1659431727.947163,17744
1659431727.985435,17736
1659431728.026696,17730
1659431728.067958,17720
1659431728.10922,17735
1659431728.150481,17754
1659431728.189778,17770
1659431728.229075,17775
1659431728.268372,17767
1659431728.306985,17785
1659431728.345598,17792
1659431728.384212,17800
1659431728.425217,17785
1659431728.466223,17779
1659431728.505519,17779
1659431728.544816,17770
1659431728.584113,17761
1659431728.625631,17766
1659431728.667149,17774
1659431728.706104,17782
1659431728.745059,17782
1659431728.784014,17764
1659431728.825532,17767
1659431728.86705,17793
1659431728.906005,17788
1659431728.94496,17816
1659431728.983915,17825
1659431729.025177,17824
1659431729.066439,17839
1659431729.1077,17842
1659431729.148962,17851
1659431729.187575,17852
1659431729.226189,17858
1659431729.264802,17872
1659431729.308541,17876
1659431729.35228,17883
1659431729.396019,17886
1659431729.429849,17902
1659431729.463678,17899
1659431729.508101,17900
1659431729.552523,17866
1659431729.596946,17827
1659431729.62975,17798
1659431729.662554,17811
1659431729.707318,17802
1659431729.752083,17817
1659431729.796847,17822
1659431729.836143,17812
1659431729.87544,17808
1659431729.914737,17815
1659431729.956255,17814
1659431729.997773,17813
1659431730.03707,17826
1659431730.076367,17831
1659431730.115664,17845
1659431730.157181,17858
1659431730.198699,17856
1659431730.236971,17864
1659431730.275243,17863
1659431730.313514,17870
1659431730.352469,17875
1659431730.391424,17885
1659431730.43038,17859
1659431730.472923,17837
1659431730.515466,17848
1659431730.553396,17851
1659431730.591326,17868
1659431730.629256,17847
1659431730.670774,17867
1659431730.712291,17892
1659431730.75193,17899
1659431730.791569,17905
1659431730.831207,17887
1659431730.872725,17901
1659431730.914243,17909
1659431730.953198,17932
1659431730.992153,17923
1659431731.031108,17934
1659431731.073139,17945
1659431731.115169,17946
1659431731.153783,17950
1659431731.192396,17952
1659431731.231009,17893
1659431731.27509,17863
1659431731.319171,17864
1659431731.363252,17860
1659431731.406307,17859
1659431731.449363,17873
1659431731.487635,17881
1659431731.525906,17893
1659431731.564178,17905
1659431731.604671,17906
1659431731.645164,17914
1659431731.68446,17912
1659431731.723757,17910
1659431731.763054,17907
1659431731.801326,17916
1659431731.839597,17929
1659431731.877869,17935
1659431731.919387,17928
1659431731.960905,17938
1659431732.000202,17947
1659431732.039499,17909
1659431732.078795,17863
1659431732.117409,17853
1659431732.156022,17848
1659431732.194635,17831
1659431732.236153,17853
1659431732.277671,17864
1659431732.31731,17857
1659431732.356948,17883
1659431732.396587,17894
1659431732.437592,17884
1659431732.478598,17880
1659431732.516869,17896
1659431732.555141,17906
1659431732.593413,17931
1659431732.634931,17943
1659431732.676449,17961
1659431732.720871,17981
1659431732.765293,17982
1659431732.809716,17981
1659431732.843033,17988
1659431732.87635,17968
1659431732.921456,17919
1659431732.966562,17910
1659431733.011667,17904
1659431733.044472,17916
1659431733.077276,17928
1659431733.121698,17928
1659431733.166121,17939
1659431733.210543,17943
1659431733.248217,17950
1659431733.285891,17954
1659431733.323565,17974
1659431733.361238,17988
1659431733.405319,17993
1659431733.4494,17996
1659431733.49348,17981
1659431733.532094,17982
1659431733.570707,17999
1659431733.609321,17989
1659431733.651864,17976
1659431733.694407,17952
1659431733.73302,17898
1659431733.771633,17889
1659431733.810247,17901
1659431733.851252,17934
1659431733.892258,17940
1659431733.931554,17934
1659431733.970851,17941
1659431734.010148,17954
1659431734.049445,17959
1659431734.088742,17968
1659431734.128038,17987
1659431734.169556,17998
1659431734.211074,17998
1659431734.250029,17998
1659431734.288985,18006
1659431734.32794,18025
1659431734.36997,18018
1659431734.412001,18023
1659431734.450956,18033
1659431734.489911,18040
1659431734.528866,18008
1659431734.567821,17979
1659431734.606776,17960
1659431734.645731,17946
1659431734.687249,17952
1659431734.728767,17957
1659431734.766697,17969
1659431734.804627,17970
1659431734.842557,17973
1659431734.884075,17977
1659431734.925593,17994
1659431734.969674,17994
1659431735.013754,17995
1659431735.057835,18015
1659431735.090639,18018
1659431735.123444,18038
1659431735.167866,18040
1659431735.212289,18042
1659431735.256711,18052
1659431735.291053,18052
1659431735.325395,18038
1659431735.369817,18017
1659431735.41424,17990
1659431735.458663,17958
1659431735.496934,17930
1659431735.535206,17906
1659431735.573478,17887
1659431735.616021,17854
1659431735.658564,17813
1659431735.696835,17757
1659431735.735107,17687
1659431735.773379,17624
1659431735.811651,17563
1659431735.849922,17493
1659431735.888194,17395
1659431735.931249,17310
1659431735.974305,17247
1659431736.012577,17183
1659431736.050848,17127
1659431736.08912,17086
1659431736.129613,17028
1659431736.170106,16850
1659431736.209744,16568
1659431736.249383,16296
1659431736.289021,16108
1659431736.331052,15987
1659431736.373082,15916
1659431736.412037,15888
1659431736.450992,15901
1659431736.489948,15917
1659431736.531466,15912
1659431736.572983,15892
1659431736.611938,15875
1659431736.650893,15852
1659431736.689849,15810
1659431736.733588,15778
1659431736.777327,15770
1659431736.821066,15743
1659431736.855408,15745
1659431736.88975,15763
1659431736.934172,15794
1659431736.978595,15766
1659431737.023017,15585
1659431737.055309,15403
1659431737.087601,15271
1659431737.132023,15205
1659431737.176446,15149
1659431737.220868,15142
1659431737.259823,15176
1659431737.298778,15205
1659431737.337734,15225
1659431737.379251,15229
1659431737.420769,15256
1659431737.460066,15292
1659431737.499363,15339
1659431737.53866,15377
1659431737.580178,15421
1659431737.621696,15477
1659431737.660309,15521
1659431737.698922,15580
1659431737.737536,15637
1659431737.776491,15672
1659431737.815446,15666
1659431737.854401,15554
1659431737.896431,15427
1659431737.938462,15318
1659431737.976734,15217
1659431738.015005,15144
1659431738.053277,15162
1659431738.094282,15246
1659431738.135288,15320
1659431738.174243,15395
1659431738.213198,15444
1659431738.252153,15493
1659431738.293671,15537
1659431738.335189,15593
1659431738.373461,15635
1659431738.411732,15688
1659431738.450004,15722
1659431738.493265,15752
1659431738.536525,15792
1659431738.579786,15827
1659431738.623047,15847
1659431738.666307,15862
1659431738.700137,15832
1659431738.733966,15753
1659431738.77873,15723
1659431738.823494,15724
1659431738.868259,15757
1659431738.901576,15790
1659431738.934892,15831
1659431738.978631,15859
1659431739.022371,15897
1659431739.06611,15919
1659431739.105406,15935
1659431739.144703,15978
1659431739.184,15996
1659431739.225005,16020
1659431739.266011,16041
1659431739.304624,16054
1659431739.343237,16077
1659431739.381851,16084
1659431739.420464,16111
1659431739.459078,16110
1659431739.497691,16120
1659431739.540747,16092
1659431739.583802,15997
1659431739.622416,15916
1659431739.661029,15881
1659431739.699642,15873
1659431739.74116,15848
1659431739.782678,15869
1659431739.822317,15894
1659431739.861955,15912
1659431739.901594,15916
1659431739.939866,15926
1659431739.978137,15960
1659431740.016409,15968
1659431740.058439,16011
1659431740.10047,16018
1659431740.1425,16034
1659431740.184531,16053
1659431740.222803,16061
1659431740.261074,16087
1659431740.299346,16103
1659431740.343427,16123
1659431740.387507,16125
1659431740.431588,16139
1659431740.46593,16070
1659431740.500272,15976
1659431740.544011,15933
1659431740.58775,15922
1659431740.63149,15922
1659431740.663781,15947
1659431740.696073,15965
1659431740.741179,15986
1659431740.786285,16018
1659431740.831391,16023
1659431740.869662,16042
1659431740.907934,16072
1659431740.946206,16093
1659431740.987724,16108
1659431741.029242,16124
1659431741.068538,16130
1659431741.107835,16158
1659431741.147132,16170
1659431741.185404,16190
1659431741.223675,16217
1659431741.261947,16240
1659431741.300219,16256
1659431741.33849,16253
1659431741.376762,16193
1659431741.41828,16140
1659431741.459798,16135
1659431741.501828,16143
1659431741.543859,16134
1659431741.58213,16138
1659431741.620402,16144
1659431741.658674,16147
1659431741.703438,16144
1659431741.748202,16142
1659431741.792966,16160
1659431741.825771,16171
1659431741.858575,16186
1659431741.902656,16206
1659431741.946737,16223
1659431741.990817,16231
1659431742.025159,16239
1659431742.059501,16262
1659431742.104265,16256
1659431742.14903,16273
1659431742.193794,16259
1659431742.232749,16192
1659431742.271704,16114
1659431742.310659,16077
1659431742.351665,16079
1659431742.39267,16077
1659431742.431967,16097
1659431742.471263,16113
1659431742.51056,16124
1659431742.551053,16133
1659431742.591546,16139
1659431742.630501,16168
1659431742.669456,16176
1659431742.708411,16195
1659431742.747025,16224
1659431742.785638,16240
1659431742.824251,16256
1659431742.866794,16273
1659431742.909338,16295
1659431742.948292,16298
1659431742.987248,16320
1659431743.026203,16319
1659431743.068233,16265
1659431743.110264,16201
1659431743.149219,16170
1659431743.188174,16184
1659431743.227129,16184
1659431743.26916,16195
1659431743.31119,16225
1659431743.350487,16253
1659431743.389784,16249
1659431743.42908,16251
1659431743.470086,16264
1659431743.511091,16278
1659431743.549363,16285
1659431743.587635,16319
1659431743.625906,16324
1659431743.670329,16333
1659431743.714751,16355
1659431743.759174,16371
1659431743.798949,16381
1659431743.838724,16396
1659431743.878499,16392
1659431743.918274,16349
1659431743.95805,16287
1659431743.999568,16266
1659431744.041085,16272
1659431744.080041,16274
1659431744.118996,16289
1659431744.157951,16312
1659431744.199469,16314
1659431744.240987,16324
1659431744.279942,16343
1659431744.318897,16354
1659431744.357852,16366
1659431744.397149,16375
1659431744.436446,16391
1659431744.475742,16410
1659431744.516748,16414
1659431744.557753,16434
1659431744.596367,16439
1659431744.63498,16460
1659431744.673593,16446
1659431744.716136,16400
1659431744.758679,16355
1659431744.796951,16323
1659431744.835223,16323
1659431744.873494,16330
1659431744.91245,16344
1659431744.951405,16347
1659431744.99036,16365
1659431745.031365,16372
1659431745.072371,16384
1659431745.113889,16383
1659431745.155406,16405
1659431745.19402,16420
1659431745.232633,16436
1659431745.271246,16453
1659431745.316694,16461
1659431745.362142,16478
1659431745.407589,16486
1659431745.440394,16500
1659431745.473198,16514
1659431745.51762,16510
1659431745.562043,16480
1659431745.606465,16416
1659431745.640807,16382
1659431745.675149,16374
1659431745.719572,16371
1659431745.763994,16378
1659431745.808417,16400
1659431745.846689,16405
1659431745.88496,16421
1659431745.923232,16430
1659431745.965262,16441
1659431746.007293,16450
1659431746.045906,16463
1659431746.08452,16487
1659431746.123133,16490
1659431746.164651,16514
1659431746.206169,16527
1659431746.245807,16539
1659431746.285446,16544
1659431746.325084,16557
1659431746.363698,16569
1659431746.402311,16576
1659431746.440925,16545
1659431746.48193,16495
1659431746.522935,16482
1659431746.562574,16471
1659431746.602212,16478
1659431746.641851,16477
1659431746.682856,16485
1659431746.723862,16507
1659431746.762133,16511
1659431746.800405,16509
1659431746.838677,16513
1659431746.879682,16529
1659431746.920687,16551
1659431746.959984,16563
1659431746.999281,16570
1659431747.038578,16573
1659431747.079071,16600
1659431747.119563,16597
1659431747.158177,16606
1659431747.19679,16618
1659431747.235404,16632
1659431747.280168,16575
1659431747.324932,16528
1659431747.369696,16506
1659431747.410702,16482
1659431747.451707,16492
1659431747.491345,16494
1659431747.530984,16510
1659431747.570622,16522
1659431747.61214,16514
1659431747.653658,16519
1659431747.692272,16536
1659431747.730885,16544
1659431747.769498,16569
1659431747.808795,16566
1659431747.848092,16580
1659431747.887389,16603
1659431747.929932,16605
1659431747.972475,16619
1659431748.010747,16620
1659431748.049018,16632
1659431748.08729,16642
1659431748.125562,16644
1659431748.163833,16596
1659431748.202105,16535
1659431748.243623,16522
1659431748.285141,16513
1659431748.323754,16492
1659431748.362368,16514
1659431748.400981,16530
1659431748.442499,16532
1659431748.484017,16537
1659431748.523314,16546
1659431748.562611,16562
1659431748.601907,16584
1659431748.643938,16583
1659431748.685968,16606
1659431748.730391,16628
1659431748.774813,16634
1659431748.819236,16650
1659431748.853065,16652
1659431748.886895,16671
1659431748.931659,16680
1659431748.976423,16690
1659431749.021187,16711
1659431749.058604,16689
1659431749.096022,16647
1659431749.133439,16620
1659431749.170857,16629
1659431749.210154,16623
1659431749.24945,16626
1659431749.288747,16642
1659431749.332144,16653
1659431749.375542,16648
1659431749.418939,16672
1659431749.459945,16673
1659431749.50095,16686
1659431749.539905,16687
1659431749.57886,16708
1659431749.617815,16712
1659431749.65677,16727
1659431749.695725,16731
1659431749.734681,16737
1659431749.776711,16753
1659431749.818742,16758
1659431749.857697,16779
1659431749.896652,16741
1659431749.935607,16684
1659431749.977125,16654
1659431750.018643,16649
1659431750.056573,16660
1659431750.094503,16649
1659431750.132433,16664
1659431750.171729,16674
1659431750.211026,16699
1659431750.250323,16684
1659431750.291841,16690
1659431750.333359,16708
1659431750.371631,16714
1659431750.409902,16722
1659431750.448174,16728
1659431750.489692,16756
1659431750.53121,16752
1659431750.569823,16771
1659431750.608437,16778
1659431750.64705,16789
1659431750.688568,16795
1659431750.730086,16797
1659431750.769041,16771
1659431750.807996,16716
1659431750.846951,16697
1659431750.891374,16680
1659431750.935796,16673
1659431750.980219,16685
1659431751.021224,16694
1659431751.062229,16718
1659431751.101526,16723
1659431751.140823,16724
1659431751.18012,16734
1659431751.222663,16746
1659431751.265206,16760
1659431751.303136,16773
1659431751.341066,16780
1659431751.378996,16799
1659431751.418293,16809
1659431751.457589,16820
1659431751.496886,16831
1659431751.537891,16847
1659431751.578897,16845
1659431751.618194,16859
1659431751.65749,16843
1659431751.696787,16796
1659431751.735742,16764
1659431751.774698,16771
1659431751.813653,16773
1659431751.855683,16779
1659431751.897714,16780
1659431751.936327,16775
1659431751.97494,16793
1659431752.013554,16799
1659431752.056097,16803
1659431752.09864,16814
1659431752.137595,16817
1659431752.17655,16826
1659431752.215505,16853
1659431752.257023,16855
1659431752.298541,16867
1659431752.342622,16871
1659431752.386703,16878
1659431752.430783,16892
1659431752.4641,16894
1659431752.497417,16882
1659431752.541156,16828
1659431752.584895,16812
1659431752.628634,16796
1659431752.667248,16785
1659431752.705861,16787
1659431752.744474,16795
1659431752.785992,16798
1659431752.82751,16797
1659431752.866124,16801
1659431752.904737,16801
1659431752.94335,16824
1659431752.982306,16824
1659431753.02126,16839
1659431753.060216,16854
1659431753.102759,16858
1659431753.145302,16881
1659431753.183915,16890
1659431753.222529,16893
1659431753.261142,16904
1659431753.30266,16908
1659431753.344178,16922
1659431753.38245,16881
1659431753.420721,16832
1659431753.458993,16799
1659431753.497948,16802
1659431753.536903,16783
1659431753.575858,16780
1659431753.617376,16800
1659431753.658894,16813
1659431753.697507,16818
1659431753.736121,16829
1659431753.774734,16838
1659431753.816252,16837
1659431753.85777,16852
1659431753.901509,16864
1659431753.945248,16885
1659431753.988987,16897
1659431754.022817,16903
1659431754.056646,16912
1659431754.101068,16929
1659431754.145491,16930
1659431754.189914,16942
1659431754.22323,16948
1659431754.256547,16911
1659431754.297143,16875
1659431754.337738,16856
1659431754.378333,16855
1659431754.418928,16857
1659431754.459524,16862
1659431754.503605,16874
1659431754.547685,16884
1659431754.591766,16891
1659431754.632771,16882
1659431754.673777,16898
1659431754.713074,16908
1659431754.75237,16917
1659431754.791667,16921
1659431754.833185,16930
1659431754.874703,16936
1659431754.913316,16953
1659431754.95193,16958
1659431754.990543,16959
1659431755.02984,16975
1659431755.069137,16967
1659431755.108434,16939
1659431755.149439,16881
1659431755.190444,16868
1659431755.228716,16863
1659431755.266988,16858
1659431755.305259,16861
1659431755.34524,16880
1659431755.38522,16881
1659431755.4252,16878
1659431755.466718,16897
1659431755.508236,16904
1659431755.547191,16900
1659431755.586146,16920
1659431755.625101,16925
1659431755.666107,16944
1659431755.707112,16954
1659431755.746409,16961
1659431755.785706,16967
1659431755.825002,16989
1659431755.865495,16978
1659431755.905988,16999
1659431755.950752,16977
1659431755.995517,16928
1659431756.040281,16879
1659431756.072572,16862
1659431756.104864,16853
1659431756.148945,16850
1659431756.193026,16857
1659431756.237106,16878
1659431756.276745,16888
1659431756.316383,16889
1659431756.356022,16890
1659431756.39754,16902
1659431756.439058,16912
1659431756.477329,16933
1659431756.515601,16944
1659431756.553873,16952
1659431756.595903,16962
1659431756.637934,16983
1659431756.676889,16982
1659431756.715844,16997
1659431756.754799,17004
1659431756.793071,17018
1659431756.831342,16994
1659431756.869614,16966
1659431756.910619,16932
1659431756.951625,16925
1659431756.99058,16919
1659431757.029535,16921
1659431757.06849,16946
1659431757.106762,16940
1659431757.145034,16950
1659431757.183305,16938
1659431757.225848,16955
1659431757.268391,16961
1659431757.307346,16968
1659431757.346302,16987
1659431757.385257,16998
1659431757.427287,17005
1659431757.469318,17010
1659431757.510836,17014
1659431757.552353,17028
1659431757.59165,17037
1659431757.630947,17044
1659431757.670244,17037
1659431757.714666,16983
1659431757.759089,16946
1659431757.803511,16925
1659431757.836316,16913
1659431757.86912,16919
1659431757.913884,16924
1659431757.958648,16927
1659431758.003412,16933
1659431758.037242,16941
1659431758.071071,16944
1659431758.11481,16942
1659431758.15855,16960
1659431758.202289,16968
1659431758.240902,16991
1659431758.279515,16996
1659431758.318129,17003
1659431758.359134,17009
1659431758.400139,17028
1659431758.439095,17033
1659431758.47805,17055
1659431758.517005,17060
1659431758.55596,17040
1659431758.594915,17003
1659431758.63387,16955
1659431758.676413,16944
1659431758.718956,16930
1659431758.75757,16927
1659431758.796183,16937
1659431758.834796,16953
1659431758.876314,16954
1659431758.917832,16950
1659431758.956787,16965
1659431758.995742,16977
1659431759.034698,16987
1659431759.076216,16995
1659431759.117733,17005
1659431759.156005,17017
1659431759.194277,17029
1659431759.232548,17038
1659431759.274066,17044
1659431759.315584,17061
1659431759.353856,17078
1659431759.392128,17082
1659431759.430399,17069
1659431759.474822,17022
1659431759.519244,16990
1659431759.563667,16975
1659431759.60134,16975
1659431759.639014,16968
1659431759.676688,16984
1659431759.714361,16992
1659431759.758442,17010
1659431759.802523,17001
1659431759.846604,17000
1659431759.880946,17009
1659431759.915288,17019
1659431759.95971,17025
1659431760.004133,17028
1659431760.048555,17048
1659431760.080334,17057
1659431760.112113,17076
1659431760.156536,17069
1659431760.200958,17074
1659431760.245381,17089
1659431760.284336,17083
1659431760.323291,17032
1659431760.362246,16972
1659431760.403764,16944
1659431760.445282,16932
1659431760.484237,16931
1659431760.523192,16942
1659431760.562147,16950
1659431760.601102,16962
1659431760.640058,16967
1659431760.679013,16976
1659431760.720018,16989
1659431760.761023,16985
1659431760.801004,16999
1659431760.840984,17016
1659431760.880964,17030
1659431760.922482,17037
1659431760.964,17052
1659431761.002613,17060
1659431761.041227,17082
1659431761.07984,17077
1659431761.121358,17090
1659431761.162876,17096
1659431761.202514,17064
1659431761.242153,17000
1659431761.281791,16986
1659431761.322284,16980
1659431761.362777,16980
1659431761.401391,16982
1659431761.440004,16989
1659431761.478617,17000
1659431761.520135,17010
1659431761.561653,17014
1659431761.600608,17025
1659431761.639563,17037
1659431761.678518,17044
1659431761.722941,17060
1659431761.767363,17068
1659431761.811786,17081
1659431761.853816,17091
1659431761.895847,17090
1659431761.934119,17100
1659431761.97239,17111
1659431762.010662,17129
1659431762.049617,17115
1659431762.088572,17102
1659431762.127527,17037
1659431762.169558,17008
1659431762.211588,17014
1659431762.250201,17002
1659431762.288815,17017
1659431762.327428,17016
1659431762.366042,17024
1659431762.404655,17031
1659431762.443269,17028
1659431762.484274,17038
1659431762.525279,17038
1659431762.563551,17057
1659431762.601823,17061
1659431762.640094,17074
1659431762.681612,17082
1659431762.72313,17092
1659431762.761744,17092
1659431762.800357,17103
1659431762.83897,17113
1659431762.880488,17125
1659431762.922006,17139
1659431762.960961,17080
1659431762.999916,17017
1659431763.038871,16973
1659431763.083636,16953
1659431763.1284,16951
1659431763.173164,16943
1659431763.215194,16955
1659431763.257225,16970
1659431763.295838,16973
1659431763.334452,16974
1659431763.373065,16995
1659431763.41202,17001
1659431763.450975,17004
1659431763.48993,17025
1659431763.530936,17038
1659431763.571941,17053
1659431763.610554,17067
1659431763.649168,17082
1659431763.687781,17082
1659431763.730324,17105
1659431763.772867,17112
1659431763.811823,17122
1659431763.850778,17129
1659431763.889733,17064
1659431763.928346,17013
1659431763.966959,16992
1659431764.005573,16998
1659431764.047091,17001
1659431764.088609,17007
1659431764.128247,17024
1659431764.167886,17037
1659431764.207524,17040
1659431764.24853,17040
1659431764.289535,17058
1659431764.328148,17074
1659431764.366762,17083
1659431764.405375,17088
1659431764.447918,17099
1659431764.490461,17108
1659431764.5342,17130
1659431764.57794,17132
1659431764.621679,17140
1659431764.654995,17145
1659431764.688312,17155
1659431764.72983,17129
1659431764.771348,17081
1659431764.812866,17031
1659431764.854384,17022
1659431764.895902,17038
1659431764.93742,17034
1659431764.978938,17058
1659431765.020456,17056
1659431765.058386,17054
1659431765.096316,17061
1659431765.134246,17070
1659431765.172176,17074
1659431765.210447,17079
1659431765.248719,17100
1659431765.286991,17115
1659431765.331755,17127
1659431765.376519,17130
1659431765.421283,17132
1659431765.463826,17155
1659431765.506369,17149
1659431765.544641,17161
1659431765.582913,17165
1659431765.621184,17140
1659431765.661677,17068
1659431765.70217,17030
1659431765.741125,17006
1659431765.78008,16999
1659431765.819035,17009
1659431765.857649,17009
1659431765.896262,17027
1659431765.934875,17033
1659431765.976393,17031
1659431766.017911,17047
1659431766.056525,17057
1659431766.095138,17073
1659431766.133751,17076
1659431766.172365,17105
1659431766.210978,17113
1659431766.249592,17120
1659431766.292135,17134
1659431766.334678,17147
1659431766.373975,17152
1659431766.413271,17167
1659431766.452568,17173
1659431766.493573,17162
1659431766.534579,17111
1659431766.573876,17069
1659431766.613173,17073
1659431766.652469,17074
1659431766.695012,17065
1659431766.737555,17083
1659431766.781978,17092
1659431766.8264,17099
1659431766.870823,17101
1659431766.903115,17115
1659431766.935406,17121
1659431766.98017,17133
1659431767.024935,17140
1659431767.069699,17146
1659431767.10797,17168
1659431767.146242,17168
1659431767.184514,17176
1659431767.227057,17182
1659431767.2696,17196
1659431767.308555,17196
1659431767.34751,17181
1659431767.386465,17115
1659431767.425079,17088
1659431767.463692,17084
1659431767.502306,17076
1659431767.543823,17083
1659431767.585341,17090
1659431767.624638,17094
1659431767.663935,17101
1659431767.703232,17106
1659431767.745262,17121
1659431767.787293,17124
1659431767.826248,17137
1659431767.865203,17147
1659431767.904158,17160
1659431767.942771,17167
1659431767.981385,17179
1659431768.019998,17178
1659431768.061516,17189
1659431768.103034,17202
1659431768.141306,17199
1659431768.179577,17221
1659431768.217849,17179
1659431768.25988,17121
1659431768.30191,17078
1659431768.345991,17065
1659431768.390072,17063
1659431768.434152,17053
1659431768.467469,17065
1659431768.500786,17080
1659431768.544867,17084
1659431768.588948,17081
1659431768.633029,17104
1659431768.66737,17107
1659431768.701712,17113
1659431768.745793,17131
1659431768.789874,17140
1659431768.833955,17157
1659431768.87291,17166
1659431768.911865,17181
1659431768.95082,17176
1659431768.991825,17196
1659431769.032831,17198
1659431769.071786,17209
1659431769.110741,17210
1659431769.149696,17160
1659431769.191214,17118
1659431769.232732,17113
1659431769.272029,17114
1659431769.311326,17115
1659431769.350622,17132
1659431769.388894,17130
1659431769.427166,17139
1659431769.465437,17146
1659431769.506955,17149
1659431769.548473,17164
1659431769.588454,17164
1659431769.628434,17172
1659431769.668414,17188
1659431769.709932,17190
1659431769.75145,17194
1659431769.789721,17202
1659431769.827993,17219
1659431769.866265,17218
1659431769.908808,17236
1659431769.951351,17228
1659431769.990306,17206
1659431770.029261,17160
1659431770.068216,17130
1659431770.107786,17103
1659431770.147357,17103
1659431770.186927,17112
1659431770.226497,17111
1659431770.266067,17130
1659431770.307585,17128
1659431770.349103,17128
1659431770.393184,17131
1659431770.437264,17146
1659431770.481345,17162
1659431770.515175,17167
1659431770.549004,17171
1659431770.59411,17184
1659431770.639216,17197
1659431770.684322,17196
1659431770.716614,17209
1659431770.748905,17211
1659431770.793328,17226
1659431770.83775,17222
1659431770.882173,17231
1659431770.922153,17196
1659431770.962133,17149
1659431771.002113,17105
1659431771.043119,17085
1659431771.084124,17087
1659431771.123079,17086
1659431771.162034,17097
1659431771.200989,17101
1659431771.242507,17125
1659431771.284025,17119
1659431771.322639,17122
1659431771.361252,17135
1659431771.399865,17143
1659431771.438137,17170
1659431771.476409,17177
1659431771.51468,17188
1659431771.556198,17193
1659431771.597716,17205
1659431771.635646,17210
1659431771.673576,17222
1659431771.711506,17230
1659431771.750461,17244
1659431771.789416,17250
1659431771.828372,17249
1659431771.870914,17212
1659431771.913458,17169
1659431771.954976,17160
1659431771.996494,17155
1659431772.035107,17152
1659431772.07372,17162
1659431772.112334,17167
1659431772.157098,17176
1659431772.201862,17167
1659431772.246626,17180
1659431772.279943,17184
1659431772.31326,17190
1659431772.357341,17207
1659431772.401422,17218
1659431772.445502,17220
1659431772.478307,17222
1659431772.511111,17240
1659431772.555533,17244
1659431772.599956,17256
1659431772.644378,17254
1659431772.68265,17259
1659431772.720922,17275
1659431772.759193,17240
1659431772.801736,17172
1659431772.84428,17146
1659431772.883235,17135
1659431772.92219,17127
1659431772.961145,17118
1659431773.002663,17127
1659431773.044181,17135
1659431773.083136,17140
1659431773.122091,17142
1659431773.161046,17143
1659431773.200684,17135
1659431773.240323,17144
1659431773.279961,17152
1659431773.320967,17141
1659431773.361972,17097
1659431773.400586,16975
1659431773.439199,16797
1659431773.477812,16489
1659431773.51933,16148
1659431773.560848,15809
1659431773.599462,15525
1659431773.638075,15255
1659431773.676688,14789
1659431773.718719,13988
1659431773.760749,13088
1659431773.799705,12290
1659431773.83866,11582
1659431773.877615,11002
1659431773.919132,10515
1659431773.96065,10147
1659431774.004731,9831
1659431774.048812,9523
1659431774.092893,9236
1659431774.131848,8992
1659431774.170803,8795
1659431774.209758,8624
1659431774.251789,8498
1659431774.293819,8399
1659431774.332433,8291
1659431774.371046,8186
1659431774.409659,8082
1659431774.451177,8028
1659431774.492695,7976
1659431774.53165,7918
1659431774.570605,7831
1659431774.60956,7716
1659431774.648174,7493
1659431774.686787,7184
1659431774.725401,6913
1659431774.766406,6699
1659431774.807411,6550
1659431774.846366,6414
1659431774.885322,6317
1659431774.924277,6241
1659431774.962207,6144
1659431775.000137,6078
1659431775.038066,6037
1659431775.08061,6016
1659431775.123153,5998
1659431775.162108,6009
1659431775.201063,5994
1659431775.240018,5990
1659431775.281023,5990
1659431775.322029,5988
1659431775.362419,5984
1659431775.402809,5990
1659431775.443199,5984
1659431775.48359,5983
1659431775.52398,5985
1659431775.565498,5981
1659431775.607016,5926
1659431775.645629,5812
1659431775.684243,5725
1659431775.722856,5681
1659431775.763861,5663
1659431775.804867,5653
1659431775.843822,5665
1659431775.882777,5673
1659431775.921732,5673
1659431775.965813,5679
1659431776.009894,5692
1659431776.053974,5701
1659431776.087291,5724
1659431776.120608,5748
1659431776.165372,5769
1659431776.210136,5788
1659431776.254901,5810
1659431776.293856,5832
1659431776.332811,5856
1659431776.371766,5864
1659431776.414309,5884
1659431776.456852,5900
1659431776.495466,5913
1659431776.534079,5933
1659431776.572692,5951
1659431776.61421,5894
1659431776.655728,5784
1659431776.694683,5737
1659431776.733638,5719
1659431776.772593,5731
1659431776.810865,5735
1659431776.849137,5743
1659431776.887408,5769
1659431776.929439,5779
1659431776.971469,5785
1659431777.010425,5796
1659431777.04938,5820
1659431777.088335,5845
1659431777.12934,5872
1659431777.170346,5879
1659431777.208959,5884
1659431777.247572,5904
1659431777.286186,5909
1659431777.328216,5920
1659431777.370247,5937
1659431777.40886,5949
1659431777.447474,5957
1659431777.486087,5982
1659431777.527605,5955
1659431777.569123,5870
1659431777.613545,5779
1659431777.657968,5726
1659431777.70239,5711
1659431777.741345,5715
1659431777.7803,5725
1659431777.819255,5733
1659431777.857527,5739
1659431777.895799,5736
1659431777.93407,5737
1659431777.976101,5754
1659431778.018131,5767
1659431778.056745,5787
1659431778.095358,5804
1659431778.133972,5817
1659431778.172585,5827
1659431778.211198,5845
1659431778.249812,5852
1659431778.290817,5866
1659431778.331822,5881
1659431778.371461,5893
1659431778.411099,5902
1659431778.450738,5909
1659431778.492256,5893
1659431778.533774,5799
1659431778.572387,5694
1659431778.611001,5641
1659431778.649614,5644
1659431778.691645,5636
1659431778.733675,5644
1659431778.772972,5665
1659431778.812269,5683
1659431778.851566,5688
1659431778.893083,5703
1659431778.934601,5717
1659431778.973557,5740
1659431779.012511,5781
1659431779.051467,5805
1659431779.095206,5835
1659431779.138945,5858
1659431779.182684,5877
1659431779.223689,5910
1659431779.264694,5927
1659431779.304333,5957
1659431779.343971,5965
1659431779.38361,5988
1659431779.422565,6004
1659431779.46152,6036
1659431779.500475,5952
1659431779.541993,5845
1659431779.583511,5789
1659431779.622808,5779
1659431779.662105,5785
1659431779.701402,5802
1659431779.743945,5826
1659431779.786488,5835
1659431779.824759,5839
1659431779.863031,5840
1659431779.901303,5847
1659431779.943333,5865
1659431779.985364,5872
1659431780.024319,5881
1659431780.063274,5902
1659431780.102229,5913
1659431780.140159,5924
1659431780.178089,5929
1659431780.216019,5935
1659431780.258562,5933
1659431780.301105,5958
1659431780.339719,5965
1659431780.378332,5944
1659431780.416945,5819
1659431780.457438,5737
1659431780.497931,5712
1659431780.542353,5697
1659431780.586776,5693
1659431780.631198,5706
1659431780.668872,5724
1659431780.706546,5724
1659431780.744219,5732
1659431780.781893,5720
1659431780.820507,5734
1659431780.85912,5755
1659431780.897733,5777
1659431780.942839,5783
1659431780.987945,5796
1659431781.033051,5816
1659431781.065855,5831
1659431781.09866,5854
1659431781.143082,5858
1659431781.187505,5870
1659431781.231927,5888
1659431781.273957,5905
1659431781.315988,5892
1659431781.35426,5794
1659431781.392531,5707
1659431781.430803,5665
1659431781.469416,5659
1659431781.50803,5653
1659431781.546643,5668
1659431781.588674,5702
1659431781.630704,5713
1659431781.668976,5733
1659431781.707247,5728
1659431781.745519,5743
1659431781.784132,5767
1659431781.822746,5799
1659431781.861359,5821
1659431781.90339,5850
1659431781.94542,5882
1659431781.984375,5905
1659431782.02333,5946
1659431782.062286,5958
1659431782.104316,5984
1659431782.146347,6017
1659431782.185643,6046
1659431782.22494,6064
1659431782.264237,6030
1659431782.305242,5929
1659431782.346248,5849
1659431782.385203,5835
1659431782.424158,5826
1659431782.463113,5823
1659431782.505144,5849
1659431782.547174,5854
1659431782.586471,5862
1659431782.625768,5863
1659431782.665065,5880
1659431782.705557,5888
1659431782.74605,5917
1659431782.790814,5928
1659431782.835578,5947
1659431782.880343,5971
1659431782.919298,5986
1659431782.958253,5998
1659431782.997208,6017
1659431783.039238,6014
1659431783.081269,6023
1659431783.119882,6033
1659431783.158496,6043
1659431783.197109,6002
1659431783.235723,5904
1659431783.274336,5817
1659431783.312949,5803
1659431783.353955,5782
1659431783.39496,5780
1659431783.434257,5805
1659431783.473554,5826
1659431783.512851,5838
1659431783.553343,5843
1659431783.593836,5856
1659431783.632791,5873
1659431783.671746,5905
1659431783.710701,5912
1659431783.748631,5936
1659431783.786561,5958
1659431783.824491,5969
1659431783.867547,5982
1659431783.910603,5996
1659431783.949216,6012
1659431783.987829,6023
1659431784.026443,6058
1659431784.067448,6076
1659431784.108453,6109
1659431784.152876,6115
1659431784.197298,6032
1659431784.241721,5935
1659431784.276063,5898
1659431784.310405,5897
1659431784.354486,5896
1659431784.398566,5910
1659431784.442647,5940
1659431784.475964,5968
1659431784.509281,5990
1659431784.553703,6001
1659431784.598126,6028
1659431784.642548,6055
1659431784.680478,6077
1659431784.718408,6113
1659431784.756338,6148
1659431784.798369,6175
1659431784.840399,6215
1659431784.879354,6240
1659431784.918309,6267
1659431784.957264,6298
1659431784.995194,6324
1659431785.033124,6350
1659431785.071054,6387
1659431785.113597,6422
1659431785.15614,6364
1659431785.195096,6232
1659431785.234051,6140
1659431785.273006,6107
1659431785.315036,6110
1659431785.357067,6110
1659431785.396363,6129
1659431785.43566,6146
1659431785.474957,6148
1659431785.516988,6141
1659431785.559018,6159
1659431785.59729,6165
1659431785.635561,6192
1659431785.673833,6211
1659431785.716376,6223
1659431785.758919,6254
1659431785.797874,6267
1659431785.836829,6288
1659431785.875785,6301
1659431785.914945,6310
1659431785.954105,6309
1659431785.993265,6327
1659431786.032425,6337
1659431786.071585,6343
1659431786.116691,6270
1659431786.161797,6138
1659431786.206903,6055
1659431786.239707,5999
1659431786.272511,5973
1659431786.317276,5951
1659431786.36204,5979
1659431786.406804,5994
1659431786.448322,6004
1659431786.48984,6000
1659431786.528453,6016
1659431786.567067,6032
1659431786.60568,6056
1659431786.643952,6076
1659431786.682224,6104
1659431786.720495,6122
1659431786.763038,6149
1659431786.805581,6165
1659431786.843853,6198
1659431786.882125,6220
1659431786.920396,6256
1659431786.95901,6281
1659431786.997623,6309
1659431787.036237,6339
1659431787.077242,6311
1659431787.118247,6198
1659431787.157544,6113
1659431787.196841,6091
1659431787.236138,6090
1659431787.277143,6115
1659431787.318148,6140
1659431787.356762,6173
1659431787.395375,6215
1659431787.433989,6228
1659431787.478411,6248
1659431787.522833,6276
1659431787.567256,6311
1659431787.601085,6349
1659431787.634915,6402
1659431787.679337,6435
1659431787.72376,6468
1659431787.768182,6506
1659431787.806796,6534
1659431787.845409,6557
1659431787.884022,6578
1659431787.925028,6602
1659431787.966033,6624
1659431788.004988,6612
1659431788.043943,6493
1659431788.082898,6359
1659431788.124929,6300
1659431788.166959,6288
1659431788.205914,6305
1659431788.24487,6308
1659431788.283825,6340
1659431788.322438,6350
1659431788.361052,6372
1659431788.399665,6377
1659431788.442208,6402
1659431788.484751,6444
1659431788.523364,6464
1659431788.561978,6501
1659431788.600591,6516
1659431788.642622,6534
1659431788.684652,6551
1659431788.724291,6568
1659431788.763929,6584
1659431788.803568,6617
1659431788.844573,6636
1659431788.885578,6672
1659431788.923508,6660
1659431788.961438,6530
1659431788.999368,6396
1659431789.042424,6329
1659431789.085479,6309
1659431789.123751,6306
1659431789.162023,6307
1659431789.200295,6337
1659431789.244375,6356
1659431789.288456,6360
1659431789.332537,6373
1659431789.373542,6398
1659431789.414548,6439
1659431789.453845,6483
1659431789.493141,6527
1659431789.532438,6571
1659431789.57071,6614
1659431789.608981,6652
1659431789.647253,6689
1659431789.690309,6728
1659431789.733364,6767
1659431789.771978,6815
1659431789.810591,6858
1659431789.849205,6877
1659431789.89021,6780
1659431789.931215,6633
1659431789.97017,6551
1659431790.009125,6520
1659431790.04808,6513
1659431790.087036,6526
1659431790.125991,6561
1659431790.164946,6592
1659431790.205439,6610
1659431790.245931,6625
1659431790.284887,6661
1659431790.323842,6705
1659431790.362797,6739
1659431790.403802,6780
1659431790.444808,6813
1659431790.483763,6843
1659431790.522718,6860
1659431790.561673,6881
1659431790.603191,6888
1659431790.644709,6919
1659431790.689473,6933
1659431790.734237,6958
1659431790.779001,6936
1659431790.817273,6801
1659431790.855545,6649
1659431790.893816,6581
1659431790.936359,6558
1659431790.978902,6554
1659431791.018199,6576
1659431791.057496,6600
1659431791.096793,6606
1659431791.135577,6611
1659431791.174361,6623
1659431791.213145,6643
1659431791.25193,6694
1659431791.290714,6713
1659431791.329498,6753
1659431791.373921,6795
1659431791.418343,6825
1659431791.462766,6847
1659431791.495057,6869
1659431791.527349,6903
1659431791.572113,6917
1659431791.616878,6950
1659431791.661642,6974
1659431791.700597,6932
1659431791.739552,6781
1659431791.778507,6625
1659431791.820025,6564
1659431791.861543,6528
1659431791.90084,6514
1659431791.940136,6524
1659431791.979433,6555
1659431792.021464,6578
1659431792.063494,6589
1659431792.102108,6619
1659431792.140721,6655
1659431792.179334,6713
1659431792.218631,6741
1659431792.257928,6789
1659431792.297225,6841
1659431792.338743,6884
1659431792.380261,6928
1659431792.418532,6958
1659431792.456804,7010
1659431792.495076,7046
1659431792.533689,7095
1659431792.572303,7146
1659431792.610916,7173
1659431792.652946,7083
1659431792.694977,6920
1659431792.73359,6843
1659431792.772204,6821
1659431792.810817,6827
1659431792.852335,6831
1659431792.893853,6866
1659431792.938275,6890
1659431792.982698,6892
1659431793.02712,6905
1659431793.06095,6913
1659431793.094779,6933
1659431793.13886,6942
1659431793.182941,6911
1659431793.227021,6867
1659431793.259826,6826
1659431793.29263,6805
1659431793.336711,6783
1659431793.380792,6767
1659431793.424872,6748
1659431793.463144,6725
1659431793.501416,6715
1659431793.539687,6652
1659431793.582231,6492
1659431793.624774,6318
1659431793.663729,6204
1659431793.702684,6150
1659431793.741639,6127
1659431793.779569,6115
1659431793.817499,6121
1659431793.855429,6110
1659431793.897459,6088
1659431793.93949,6077
1659431793.978786,6082
1659431794.018083,6084
1659431794.05738,6094
1659431794.098898,6103
1659431794.140416,6115
1659431794.179713,6127
1659431794.21901,6134
1659431794.258307,6143
1659431794.300337,6161
1659431794.342367,6161
1659431794.380297,6169
1659431794.418227,6175
1659431794.456157,6194
1659431794.4987,6152
1659431794.541244,6049
1659431794.580199,5954
1659431794.619154,5920
1659431794.658109,5923
1659431794.699114,5909
1659431794.740119,5933
1659431794.778733,5948
1659431794.817346,5955
1659431794.85596,5955
1659431794.900382,5973
1659431794.944805,5992
1659431794.989227,6019
1659431795.022031,6045
1659431795.054836,6068
1659431795.099258,6098
1659431795.143681,6105
1659431795.188103,6112
1659431795.230646,6135
1659431795.273189,6154
1659431795.311803,6168
1659431795.350416,6182
1659431795.38903,6199
1659431795.427984,6213
1659431795.46694,6251
1659431795.505895,6230
1659431795.548438,6132
1659431795.590981,6055
1659431795.628911,6015
1659431795.666841,6010
1659431795.704771,6011
1659431795.743384,6032
1659431795.781997,6034
1659431795.820611,6032
1659431795.861616,6026
1659431795.902622,6025
1659431795.941577,6045
1659431795.980532,6060
1659431796.019487,6074
1659431796.060492,6090
1659431796.101498,6104
1659431796.140795,6119
1659431796.180091,6131
1659431796.219388,6142
1659431796.260393,6156
1659431796.301399,6172
1659431796.341818,6177
1659431796.382238,6190
1659431796.422657,6194
1659431796.463077,6171
1659431796.503497,6086
1659431796.543916,5995
1659431796.584336,5960
1659431796.622607,5940
1659431796.660879,5914
1659431796.699151,5910
1659431796.741181,5924
1659431796.783212,5923
1659431796.821825,5931
1659431796.860439,5929
1659431796.899052,5938
1659431796.94057,5946
1659431796.982088,5963
1659431797.02036,5974
1659431797.058631,5992
1659431797.096903,6012
1659431797.139446,6016
1659431797.181989,6046
1659431797.226412,6053
1659431797.270834,6068
1659431797.315256,6077
1659431797.354553,6092
1659431797.39385,6104
1659431797.433147,6115
1659431797.475177,6062
1659431797.517208,5960
1659431797.556163,5895
1659431797.595118,5886
1659431797.634073,5888
1659431797.675591,5888
1659431797.717109,5910
1659431797.756064,5928
1659431797.795019,5948
1659431797.833974,5949
1659431797.872588,5969
1659431797.911201,5997
1659431797.949815,6023
1659431797.99082,6050
1659431798.031825,6064
1659431798.071122,6102
1659431798.110419,6112
1659431798.149716,6142
1659431798.188671,6160
1659431798.227626,6178
1659431798.266581,6200
1659431798.307074,6212
1659431798.347567,6246
1659431798.386863,6255
1659431798.42616,6248
1659431798.465457,6159
1659431798.507488,6061
1659431798.549518,6008
1659431798.58779,5997
1659431798.626061,6003
1659431798.664333,6010
1659431798.705851,6034
1659431798.747369,6020
1659431798.792475,6014
1659431798.837581,6022
1659431798.882687,6027
1659431798.916003,6038
1659431798.94932,6054
1659431798.993401,6071
1659431799.037482,6081
1659431799.081563,6106
1659431799.120518,6113
1659431799.159473,6130
1659431799.198428,6158
1659431799.238921,6179
1659431799.279413,6213
1659431799.317343,6242
1659431799.355273,6253
1659431799.393203,6186
1659431799.436259,6073
1659431799.479315,6009
1659431799.517928,6006
1659431799.556541,6015
1659431799.595155,6023
1659431799.63411,6061
1659431799.673065,6093
1659431799.71202,6118
1659431799.75405,6158
1659431799.796081,6206
1659431799.834694,6257
1659431799.873308,6293
1659431799.911921,6342
1659431799.953439,6384
1659431799.994957,6429
1659431800.034254,6462
1659431800.073551,6502
1659431800.112848,6545
1659431800.153853,6583
1659431800.194858,6616
1659431800.233472,6650
1659431800.272085,6697
1659431800.310699,6713
1659431800.353241,6632
1659431800.395785,6478
1659431800.434398,6412
1659431800.473011,6408
1659431800.511625,6428
1659431800.555706,6447
1659431800.599786,6508
1659431800.643867,6555
1659431800.681797,6596
1659431800.719727,6632
1659431800.757657,6670
1659431800.795587,6730
1659431800.839668,6757
1659431800.883748,6795
1659431800.927829,6836
1659431800.961146,6883
1659431800.994463,6913
1659431801.039569,6959
1659431801.084675,7012
1659431801.129781,7082
1659431801.168052,7148
1659431801.206324,7211
1659431801.244596,7280
1659431801.287139,7245
1659431801.329682,7042
1659431801.368637,6844
1659431801.407592,6774
1659431801.446547,6741
1659431801.484819,6731
1659431801.52309,6768
1659431801.561362,6797
1659431801.602367,6833
1659431801.643373,6853
1659431801.682499,6878
1659431801.721625,6879
1659431801.760751,6890
1659431801.799877,6913
1659431801.839003,6948
1659431801.878129,6997
1659431801.919647,7032
1659431801.961164,7070
1659431802.000119,7083
1659431802.039075,7108
1659431802.07803,7133
1659431802.119548,7166
1659431802.161066,7096
1659431802.200021,6952
1659431802.238976,6847
1659431802.277931,6806
1659431802.322011,6792
1659431802.366092,6784
1659431802.410173,6810
1659431802.450666,6844
1659431802.491159,6849
1659431802.529772,6852
1659431802.568386,6891
1659431802.606999,6953
1659431802.645612,7026
1659431802.684226,7109
1659431802.722839,7185
1659431802.765382,7276
1659431802.807925,7368
1659431802.846539,7458
1659431802.885152,7548
1659431802.923765,7631
1659431802.965796,7713
1659431803.007826,7764
1659431803.047123,7695
1659431803.08642,7473
1659431803.125717,7310
1659431803.16433,7234
1659431803.202944,7189
1659431803.241557,7173
1659431803.2841,7218
1659431803.326643,7274
1659431803.365598,7338
1659431803.404553,7375
1659431803.443508,7425
1659431803.484001,7509
1659431803.524494,7589
1659431803.563449,7687
1659431803.602404,7786
1659431803.641359,7877
1659431803.683902,7952
1659431803.726445,8035
1659431803.770185,8096
1659431803.813923,8156
1659431803.857662,8229
1659431803.890467,8285
1659431803.923271,8212
1659431803.968719,7962
1659431804.014166,7756
1659431804.059614,7679
1659431804.097886,7665
1659431804.136157,7683
1659431804.174429,7743
1659431804.21646,7802
1659431804.25849,7835
1659431804.298129,7862
1659431804.337767,7907
1659431804.377406,7986
1659431804.418411,8070
1659431804.459416,8157
1659431804.497688,8248
1659431804.53596,8328
1659431804.574231,8407
1659431804.613528,8469
1659431804.652825,8554
1659431804.692122,8633
1659431804.73364,8719
1659431804.775158,8791
1659431804.813771,8666
1659431804.852384,8373
1659431804.890998,8141
1659431804.932516,8048
1659431804.974034,7995
1659431805.012305,8000
1659431805.050577,8047
1659431805.088849,8122
1659431805.130367,8171
1659431805.171885,8217
1659431805.211181,8288
1659431805.250478,8377
1659431805.289775,8459
1659431805.331293,8540
1659431805.372811,8631
1659431805.411424,8713
1659431805.450037,8801
1659431805.488651,8873
1659431805.533415,8944
1659431805.578179,9025
1659431805.622943,9116
1659431805.65626,9208
1659431805.689577,9284
1659431805.733316,9131
1659431805.777055,8821
1659431805.820794,8588
1659431805.862312,8454
1659431805.90383,8397
1659431805.942444,8374
1659431805.981057,8431
1659431806.01967,8492
1659431806.058625,8542
1659431806.097581,8589
1659431806.136536,8630
1659431806.178566,8721
1659431806.220597,8820
1659431806.259552,8938
1659431806.298507,9051
1659431806.337462,9163
1659431806.378467,9266
1659431806.419473,9371
1659431806.459111,9469
1659431806.49875,9566
1659431806.538388,9675
1659431806.577002,9776
1659431806.615615,9864
1659431806.654228,9782
1659431806.695234,9528
1659431806.736239,9327
1659431806.774853,9231
1659431806.813466,9194
1659431806.852079,9189
1659431806.892265,9234
1659431806.93245,9266
1659431806.972635,9294
1659431807.01282,9309
1659431807.053006,9349
1659431807.097428,9426
1659431807.141851,9509
1659431807.186273,9599
1659431807.21959,9693
1659431807.252907,9793
1659431807.297329,9875
1659431807.341752,9972
1659431807.386174,10060
1659431807.428205,10126
1659431807.470235,10211
1659431807.509532,10285
1659431807.548829,10347
1659431807.588126,10277
1659431807.626739,9991
1659431807.665352,9707
1659431807.703966,9544
1659431807.744971,9445
1659431807.785977,9380
1659431807.82459,9392
1659431807.863203,9417
1659431807.901817,9451
1659431807.94043,9459
1659431807.979043,9490
1659431808.017657,9542
1659431808.059175,9620
1659431808.100693,9711
1659431808.139648,9804
1659431808.178603,9905
1659431808.217558,9979
1659431808.258051,10077
1659431808.298544,10155
1659431808.336815,10239
1659431808.375087,10337
1659431808.413359,10435
1659431808.455389,10530
1659431808.49742,10585
1659431808.536716,10427
1659431808.576013,10073
1659431808.61531,9804
1659431808.656315,9655
1659431808.697321,9591
1659431808.741743,9551
1659431808.786166,9567
1659431808.830588,9600
1659431808.869543,9636
1659431808.908499,9643
1659431808.947453,9661
1659431808.986067,9712
1659431809.02468,9775
1659431809.063294,9861
1659431809.104812,9933
1659431809.14633,10017
1659431809.185285,10095
1659431809.22424,10173
1659431809.263195,10252
1659431809.301125,10335
1659431809.339055,10417
1659431809.376985,10500
1659431809.42004,10543
1659431809.463096,10358
1659431809.502051,9996
1659431809.541006,9744
1659431809.579961,9649
1659431809.620967,9588
1659431809.661972,9608
1659431809.701269,9643
1659431809.740566,9660
1659431809.779862,9665
1659431809.822406,9664
1659431809.864949,9704
1659431809.90322,9759
1659431809.941492,9830
1659431809.979764,9913
1659431810.021281,9999
1659431810.062799,10083
1659431810.101755,10150
1659431810.14071,10219
1659431810.179665,10286
1659431810.223404,10351
1659431810.267143,10415
1659431810.310882,10440
1659431810.352912,10232
1659431810.394943,9859
1659431810.43424,9569
1659431810.473536,9418
1659431810.512833,9338
1659431810.551105,9288
1659431810.589377,9288
1659431810.627648,9270
1659431810.669679,9247
1659431810.711709,9242
1659431810.751006,9252
1659431810.790303,9299
1659431810.8296,9387
1659431810.871118,9491
1659431810.912636,9601
1659431810.951249,9669
1659431810.989862,9731
1659431811.028476,9796
1659431811.067431,9841
1659431811.106386,9882
1659431811.145341,9928
1659431811.185834,9978
1659431811.226327,9819
1659431811.26494,9470
1659431811.303554,9159
1659431811.342167,8992
1659431811.384197,8879
1659431811.426228,8826
1659431811.464841,8871
1659431811.503455,8936
1659431811.542068,8979
1659431811.582561,9015
1659431811.623054,9089
1659431811.667818,9176
1659431811.712582,9286
1659431811.757346,9436
1659431811.790663,9620
1659431811.82398,9828
1659431811.868402,10008
1659431811.912825,10149
1659431811.957247,10253
1659431811.996544,10360
1659431812.035841,10453
1659431812.075138,10416
1659431812.116656,10123
1659431812.158174,9794
1659431812.198154,9621
1659431812.238134,9522
1659431812.278114,9463
1659431812.318094,9468
1659431812.358075,9478
1659431812.39908,9452
1659431812.440086,9430
1659431812.478357,9437
1659431812.516629,9461
1659431812.554901,9512
1659431812.593514,9571
1659431812.632127,9654
1659431812.670741,9734
1659431812.713284,9787
1659431812.755827,9835
1659431812.794782,9908
1659431812.833737,9996
1659431812.872692,10102
1659431812.911647,10123
1659431812.950602,9856
1659431812.989558,9518
1659431813.031588,9343
1659431813.073618,9279
1659431813.113257,9263
1659431813.152895,9294
1659431813.192534,9341
1659431813.234052,9352
1659431813.27557,9362
1659431813.314525,9409
1659431813.35348,9468
1659431813.392435,9514
1659431813.433953,9562
1659431813.475471,9623
1659431813.514084,9721
1659431813.552698,9815
1659431813.591311,9936
1659431813.632829,9993
1659431813.674347,10051
1659431813.71877,10109
1659431813.763192,10147
1659431813.807615,10071
1659431813.840419,9751
1659431813.873223,9416
1659431813.917645,9241
1659431813.962068,9185
1659431814.00649,9160
1659431814.045787,9190
1659431814.085084,9259
1659431814.124381,9318
1659431814.165386,9390
1659431814.206392,9449
1659431814.245005,9546
1659431814.283618,9660
1659431814.322232,9808
1659431814.361187,9920
1659431814.400142,10001
1659431814.439097,10095
1659431814.480615,10199
1659431814.522133,10322
1659431814.560746,10497
1659431814.59936,10693
1659431814.637973,10859
1659431814.679491,10839
1659431814.721009,10537
1659431814.758939,10244
1659431814.796869,10096
1659431814.834799,10034
1659431814.873754,10031
1659431814.912709,10057
1659431814.951664,10103
1659431814.993695,10107
1659431815.035725,10094
1659431815.074339,10095
1659431815.112952,10140
1659431815.151565,10188
1659431815.193596,10256
1659431815.235626,10327
1659431815.280732,10405
1659431815.325838,10507
1659431815.370944,10579
1659431815.403748,10655
1659431815.436553,10720
1659431815.480633,10786
1659431815.524714,10804
1659431815.568795,10596
1659431815.602112,10213
1659431815.635429,9944
1659431815.679509,9812
1659431815.72359,9731
1659431815.767671,9695
1659431815.806284,9714
1659431815.844898,9770
1659431815.883511,9789
1659431815.926054,9817
1659431815.968597,9860
1659431816.007211,9940
1659431816.045824,10036
1659431816.084437,10133
1659431816.125955,10232
1659431816.167473,10320
1659431816.20677,10409
1659431816.246067,10498
1659431816.285364,10602
1659431816.324319,10704
1659431816.363274,10805
1659431816.402229,10890
1659431816.444259,10755
1659431816.48629,10418
1659431816.525587,10146
1659431816.564884,10033
1659431816.60418,9985
1659431816.645186,9969
1659431816.686191,10029
1659431816.724463,10106
1659431816.762734,10154
1659431816.801006,10185
1659431816.843037,10246
1659431816.885067,10325
1659431816.923681,10426
1659431816.962294,10544
1659431817.000907,10652
1659431817.041913,10758
1659431817.082918,10863
1659431817.121873,10948
1659431817.160828,11014
1659431817.199783,11102
1659431817.244206,11159
1659431817.288628,11221
1659431817.333051,11064
1659431817.374569,10688
1659431817.416087,10396
1659431817.456272,10281
1659431817.496457,10230
1659431817.536642,10228
1659431817.576828,10256
1659431817.617013,10292
1659431817.655626,10285
1659431817.69424,10287
1659431817.732853,10322
1659431817.774884,10379
1659431817.816914,10461
1659431817.855527,10543
1659431817.894141,10637
1659431817.932754,10711
1659431817.971709,10782
1659431818.010664,10864
1659431818.049619,10928
1659431818.090112,11002
1659431818.130605,11085
1659431818.16956,11138
1659431818.208515,10955
1659431818.24747,10547
1659431818.288988,10227
1659431818.330506,10064
1659431818.368778,9980
1659431818.40705,9938
1659431818.445321,9970
1659431818.484618,10006
1659431818.523915,10017
1659431818.563212,10026
1659431818.605755,10070
1659431818.648298,10140
1659431818.686569,10228
1659431818.724841,10345
1659431818.763113,10452
1659431818.805656,10570
1659431818.848199,10669
1659431818.892622,10785
1659431818.937044,10894
1659431818.981467,10997
1659431819.02008,11105
1659431819.058693,11208
1659431819.097307,11197
1659431819.139337,10868
1659431819.181368,10519
1659431819.220665,10316
1659431819.259961,10252
1659431819.299258,10235
1659431819.337188,10265
1659431819.375118,10331
1659431819.413048,10369
1659431819.455078,10398
1659431819.497109,10437
1659431819.536406,10519
1659431819.575703,10620
1659431819.614999,10718
1659431819.656517,10831
1659431819.698035,10936
1659431819.73699,11027
1659431819.775945,11110
1659431819.814901,11178
1659431819.853514,11251
1659431819.892127,11334
1659431819.930741,11404
1659431819.971746,11329
1659431820.012751,10972
1659431820.051365,10601
1659431820.089978,10430
1659431820.128592,10356
1659431820.170622,10342
1659431820.212653,10383
1659431820.256733,10415
1659431820.300814,10429
1659431820.344895,10436
1659431820.383508,10462
1659431820.422122,10532
1659431820.460735,10617
1659431820.502765,10691
1659431820.544796,10784
1659431820.583068,10882
1659431820.621339,10979
1659431820.659611,11054
1659431820.701642,11141
1659431820.743672,11217
1659431820.782627,11303
1659431820.821582,11381
1659431820.860537,11271
1659431820.899151,10897
1659431820.937764,10526
1659431820.976377,10339
1659431821.017895,10252
1659431821.059413,10208
1659431821.099052,10211
1659431821.13869,10241
1659431821.178329,10258
1659431821.218822,10256
1659431821.259315,10286
1659431821.297586,10354
1659431821.335858,10436
1659431821.37413,10537
1659431821.413085,10626
1659431821.45204,10723
1659431821.490995,10837
1659431821.532513,10942
1659431821.574031,11044
1659431821.612644,11153
1659431821.651258,11259
1659431821.689871,11352
1659431821.731901,11350
1659431821.773932,11035
1659431821.818696,10673
1659431821.86346,10483
1659431821.908224,10424
1659431821.942054,10397
1659431821.975883,10434
1659431822.020648,10491
1659431822.065412,10520
1659431822.110176,10537
1659431822.144005,10559
1659431822.177835,10632
1659431822.221574,10718
1659431822.265313,10817
1659431822.309052,10908
1659431822.348007,11011
1659431822.386962,11092
1659431822.425917,11176
1659431822.467948,11248
1659431822.509978,11322
1659431822.54825,11408
1659431822.586522,11460
1659431822.624793,11301
1659431822.663919,10921
1659431822.703045,10640
1659431822.742171,10503
1659431822.781297,10472
1659431822.820423,10468
1659431822.859549,10515
1659431822.90363,10547
1659431822.947711,10527
1659431822.991791,10523
1659431823.024595,10561
1659431823.0574,10643
1659431823.102506,10722
1659431823.147612,10814
1659431823.192718,10901
1659431823.231673,10993
1659431823.270628,11087
1659431823.309583,11171
1659431823.350588,11253
1659431823.391593,11325
1659431823.430549,11396
1659431823.469504,11413
1659431823.508459,11167
1659431823.546389,10752
1659431823.584319,10468
1659431823.622249,10337
1659431823.664279,10245
1659431823.70631,10221
1659431823.745265,10248
1659431823.78422,10281
1659431823.823175,10297
1659431823.86418,10310
1659431823.905186,10367
1659431823.944141,10448
1659431823.983096,10565
1659431824.022051,10672
1659431824.064081,10783
1659431824.106112,10879
1659431824.144384,10986
1659431824.182655,11092
1659431824.220927,11188
1659431824.261932,11292
1659431824.302938,11394
1659431824.342235,11484
1659431824.381531,11414
1659431824.420828,11094
1659431824.464909,10773
1659431824.50899,10637
1659431824.553071,10586
1659431824.595101,10579
1659431824.637131,10617
1659431824.676428,10664
1659431824.715725,10681
1659431824.755022,10687
1659431824.793294,10727
1659431824.831565,10785
1659431824.869837,10877
1659431824.910842,10974
1659431824.951848,11074
1659431824.991486,11175
1659431825.031125,11257
1659431825.070763,11335
1659431825.112794,11404
1659431825.154824,11480
1659431825.193779,11548
1659431825.232734,11599
1659431825.27169,11429
1659431825.31372,11043
1659431825.355751,10739
1659431825.394706,10596
1659431825.433661,10517
1659431825.472616,10487
1659431825.510888,10502
1659431825.549159,10523
1659431825.587431,10521
1659431825.629974,10513
1659431825.672517,10545
1659431825.710789,10605
1659431825.74906,10675
1659431825.787332,10744
1659431825.828337,10827
1659431825.869343,10898
1659431825.907956,10979
1659431825.946569,11056
1659431825.985183,11119
1659431826.027726,11192
1659431826.070269,11273
1659431826.11435,11357
1659431826.158431,11359
1659431826.202511,11073
1659431826.241808,10693
1659431826.281105,10457
1659431826.320402,10340
1659431826.36192,10274
1659431826.403438,10247
1659431826.442051,10300
1659431826.480664,10344
1659431826.519278,10365
1659431826.561308,10395
1659431826.603339,10464
1659431826.641952,10567
1659431826.680566,10663
1659431826.719179,10773
1659431826.757451,10894
1659431826.795722,10998
1659431826.833994,11105
1659431826.874999,11212
1659431826.916005,11304
1659431826.955302,11399
1659431826.994598,11509
1659431827.033895,11598
1659431827.0749,11607
1659431827.115906,11347
1659431827.154519,11016
1659431827.193133,10845
1659431827.231746,10774
1659431827.271384,10734
1659431827.311023,10745
1659431827.350662,10802
1659431827.392179,10800
1659431827.433697,10802
1659431827.474703,10818
1659431827.515708,10869
1659431827.554663,10935
1659431827.593618,11010
1659431827.632573,11092
1659431827.677338,11162
1659431827.722102,11252
1659431827.766866,11319
1659431827.800183,11403
1659431827.8335,11472
1659431827.873626,11540
1659431827.913753,11618
1659431827.95388,11667
1659431827.994006,11503
1659431828.034133,11135
1659431828.07426,10813
1659431828.114387,10644
1659431828.158809,10558
1659431828.203232,10498
1659431828.247654,10500
1659431828.281996,10525
1659431828.316338,10527
1659431828.360419,10522
1659431828.4045,10554
1659431828.44858,10624
1659431828.481385,10700
1659431828.514189,10789
1659431828.559295,10878
1659431828.604401,10980
1659431828.649507,11054
1659431828.683336,11128
1659431828.717165,11212
1659431828.761588,11300
1659431828.80601,11387
1659431828.850433,11473
1659431828.889388,11553
1659431828.928343,11444
1659431828.967298,11098
1659431829.008303,10787
1659431829.049309,10621
1659431829.087922,10534
1659431829.126536,10488
1659431829.165149,10515
1659431829.204446,10575
1659431829.243743,10615
1659431829.283039,10615
1659431829.323532,10681
1659431829.364025,10748
1659431829.402638,10847
1659431829.441252,10955
1659431829.479865,11065
1659431829.522408,11171
1659431829.564951,11285
1659431829.603565,11385
1659431829.642178,11471
1659431829.680791,11576
1659431829.721797,11666
1659431829.762802,11763
1659431829.801757,11857
1659431829.840712,11825
1659431829.879668,11528
1659431829.921698,11187
1659431829.963728,11010
1659431830.002,10929
1659431830.040272,10895
1659431830.078543,10915
1659431830.122624,10957
1659431830.166705,10974
1659431830.210786,10966
1659431830.24359,10994
1659431830.276394,11048
1659431830.320133,11117
1659431830.363873,11208
1659431830.407612,11286
1659431830.446908,11366
1659431830.486205,11446
1659431830.525502,11527
1659431830.567533,11605
1659431830.609563,11678
1659431830.648176,11748
1659431830.68679,11831
1659431830.725403,11912
1659431830.767434,11845
1659431830.809464,11502
1659431830.848761,11139
1659431830.888058,10932
1659431830.927355,10803
1659431830.965968,10742
1659431831.004581,10718
1659431831.043195,10744
1659431831.085738,10779
1659431831.128281,10772
1659431831.166894,10801
1659431831.205508,10862
1659431831.244121,10953
1659431831.285639,11058
1659431831.327157,11161
1659431831.365429,11268
1659431831.4037,11367
1659431831.441972,11487
1659431831.484002,11577
1659431831.526033,11680
1659431831.564646,11774
1659431831.60326,11870
1659431831.641873,11979
1659431831.683391,12044
1659431831.724909,11865
1659431831.763864,11501
1659431831.802819,11252
1659431831.841774,11134
1659431831.886197,11089
1659431831.930619,11078
1659431831.975042,11126
1659431832.017072,11169
1659431832.059103,11186
1659431832.098399,11203
1659431832.137696,11250
1659431832.176993,11322
1659431832.217486,11391
1659431832.257979,11496
1659431832.296592,11565
1659431832.335206,11648
1659431832.373819,11733
1659431832.413116,11800
1659431832.452412,11867
1659431832.491709,11939
1659431832.533227,12019
1659431832.574745,12082
1659431832.613017,12094
1659431832.651289,11851
1659431832.68956,11468
1659431832.731078,11216
1659431832.772596,11101
1659431832.812235,11020
1659431832.851873,10999
1659431832.891512,11018
1659431832.929783,11029
1659431832.968055,11016
1659431833.006327,11018
1659431833.047332,11060
1659431833.088337,11135
1659431833.129855,11211
1659431833.171373,11302
1659431833.212891,11380
1659431833.254409,11466
1659431833.295927,11562
1659431833.337445,11627
1659431833.376058,11709
1659431833.414672,11791
1659431833.453285,11891
1659431833.49224,11971
1659431833.531195,11931
1659431833.57015,11598
1659431833.611668,11242
1659431833.653186,11041
1659431833.692141,10920
1659431833.731097,10845
1659431833.770051,10835
1659431833.809007,10880
1659431833.847962,10900
1659431833.886917,10918
1659431833.927922,10932
1659431833.968928,10997
1659431834.011471,11082
1659431834.054014,11170
1659431834.093311,11266
1659431834.132607,11367
1659431834.171904,11472
1659431834.213422,11564
1659431834.25494,11664
1659431834.293553,11744
1659431834.332167,11828
1659431834.37078,11908
1659431834.415544,11957
1659431834.460309,11790
1659431834.505073,11418
1659431834.537877,11146
1659431834.570681,11000
1659431834.614762,10888
1659431834.658843,10784
1659431834.702924,10732
1659431834.74222,10664
1659431834.781517,10588
1659431834.820814,10543
1659431834.861307,10547
1659431834.9018,10588
1659431834.941097,10674
1659431834.980393,10763
1659431835.01969,10849
1659431835.061721,10938
1659431835.103751,11027
1659431835.142365,11102
1659431835.180978,11198
1659431835.219591,11260
1659431835.258546,11336
1659431835.297501,11414
1659431835.336457,11350
1659431835.378999,11046
1659431835.421543,10723
1659431835.460156,10515
1659431835.49877,10415
1659431835.537383,10354
1659431835.578388,10373
1659431835.619394,10464
1659431835.658349,10514
1659431835.697304,10567
1659431835.736259,10641
1659431835.777777,10752
1659431835.819295,10875
1659431835.857566,11010
1659431835.895838,11123
1659431835.93411,11244
1659431835.975115,11359
1659431836.01612,11477
1659431836.055076,11609
1659431836.094031,11741
1659431836.132986,11867
1659431836.17476,11972
1659431836.216534,12084
1659431836.258308,12060
1659431836.300083,11822
1659431836.339038,11587
1659431836.377993,11457
1659431836.416948,11382
1659431836.46137,11355
1659431836.505793,11382
1659431836.550215,11427
1659431836.584045,11469
1659431836.617874,11504
1659431836.662638,11570
1659431836.707402,11676
1659431836.752167,11779
1659431836.784971,11887
1659431836.817775,11961
1659431836.861856,12073
1659431836.905937,12190
1659431836.950018,12288
1659431836.988631,12381
1659431837.027244,12476
1659431837.065858,12581
1659431837.108401,12692
1659431837.150944,12730
1659431837.189557,12516
1659431837.228171,12233
1659431837.266784,12050
1659431837.308302,11977
1659431837.34982,11952
1659431837.389117,11985
1659431837.428414,12044
1659431837.46771,12059
1659431837.506324,12063
1659431837.544937,12052
1659431837.58355,12063
1659431837.625581,12114
1659431837.667612,12182
1659431837.70725,12259
1659431837.746889,12365
1659431837.786527,12481
1659431837.82702,12604
1659431837.867513,12708
1659431837.906468,12832
1659431837.945423,12960
1659431837.984378,13085
1659431838.026921,13113
1659431838.069464,12930
1659431838.107394,12718
1659431838.145324,12659
1659431838.183254,12706
1659431838.224259,12801
1659431838.265265,12924
1659431838.304903,13071
1659431838.344542,13193
1659431838.38418,13301
1659431838.425442,13410
1659431838.466704,13520
1659431838.507965,13621
1659431838.549227,13717
1659431838.588866,13809
1659431838.628504,13892
1659431838.668143,13983
1659431838.70966,14062
1659431838.751178,14137
1659431838.78945,14225
1659431838.827722,14311
1659431838.865993,14400
1659431838.910758,14353
1659431838.955522,14126
1659431839.000286,13927
1659431839.032065,13870
1659431839.063844,13844
1659431839.107583,13850
1659431839.151322,13868
1659431839.195061,13884
1659431839.237604,13893
1659431839.280148,13892
1659431839.319103,13916
1659431839.358058,13947
1659431839.397013,14005
1659431839.435285,14060
1659431839.473556,14129
1659431839.511828,14187
1659431839.553858,14246
1659431839.595889,14314
1659431839.634844,14370
1659431839.673799,14438
1659431839.712754,14497
1659431839.751368,14469
1659431839.789981,14205
1659431839.828594,13890
1659431839.871137,13706
1659431839.913681,13621
1659431839.952294,13584
1659431839.990907,13607
1659431840.029521,13647
1659431840.070013,13645
1659431840.110506,13622
1659431840.149461,13624
1659431840.188416,13658
1659431840.227371,13699
1659431840.269915,13737
1659431840.312458,13792
1659431840.350729,13828
1659431840.389001,13860
1659431840.427273,13886
1659431840.468791,13903
1659431840.510309,13939
1659431840.555414,13962
1659431840.60052,13999
1659431840.645626,13957
1659431840.683898,13584
1659431840.72217,12997
1659431840.760441,12606
1659431840.802984,12408
1659431840.845527,12301
1659431840.884824,12283
1659431840.924121,12329
1659431840.963418,12382
1659431841.003911,12418
1659431841.044403,12493
1659431841.083017,12600
1659431841.12163,12763
1659431841.160244,12927
1659431841.199882,13097
1659431841.239521,13273
1659431841.279159,13414
1659431841.319652,13573
1659431841.360145,13717
1659431841.398758,13823
1659431841.437371,13903
1659431841.475985,14004
1659431841.517503,14084
1659431841.559021,13996
1659431841.597976,13762
1659431841.636931,13629
1659431841.675886,13614
1659431841.714499,13626
1659431841.753113,13659
1659431841.791726,13713
1659431841.833244,13752
1659431841.874762,13727
1659431841.914059,13685
1659431841.953356,13687
1659431841.992652,13709
1659431842.03417,13780
1659431842.075688,13831
1659431842.120111,13893
1659431842.164533,13973
1659431842.208956,14050
1659431842.24176,14123
1659431842.274564,14217
1659431842.318303,14286
1659431842.362042,14343
1659431842.405782,14227
1659431842.444395,13919
1659431842.483008,13727
1659431842.521622,13654
1659431842.563652,13630
1659431842.605683,13633
1659431842.644296,13696
1659431842.682909,13741
1659431842.721523,13759
1659431842.763041,13757
1659431842.804559,13763
1659431842.843856,13827
1659431842.883152,13895
1659431842.922449,13966
1659431842.961062,14050
1659431842.999676,14134
1659431843.038289,14214
1659431843.08032,14304
1659431843.12235,14366
1659431843.161647,14440
1659431843.200944,14521
1659431843.240241,14515
1659431843.280734,14278
1659431843.321226,13957
1659431843.359498,13793
1659431843.39777,13712
1659431843.436041,13671
1659431843.479097,13681
1659431843.522153,13738
1659431843.560766,13800
1659431843.599379,13826
1659431843.637993,13866
1659431843.677973,13936
1659431843.717953,14021
1659431843.757933,14119
1659431843.797914,14217
1659431843.837894,14307
1659431843.879925,14380
1659431843.921955,14445
1659431843.960568,14511
1659431843.999182,14582
1659431844.037795,14652
1659431844.079826,14703
1659431844.121856,14682
1659431844.166962,14463
1659431844.212068,14242
1659431844.257174,14166
1659431844.289978,14149
1659431844.322782,14158
1659431844.367547,14218
1659431844.412311,14253
1659431844.457075,14275
1659431844.49603,14302
1659431844.534985,14346
1659431844.57394,14397
1659431844.614433,14468
1659431844.654926,14534
1659431844.693539,14605
1659431844.732153,14688
1659431844.770766,14736
1659431844.809038,14783
1659431844.847309,14845
1659431844.885581,14886
1659431844.927099,14934
1659431844.968617,14929
1659431845.007572,14747
1659431845.046527,14488
1659431845.085482,14354
1659431845.124437,14302
1659431845.163392,14284
1659431845.202348,14303
1659431845.243353,14357
1659431845.284358,14391
1659431845.323655,14391
1659431845.362952,14421
1659431845.402249,14465
1659431845.444279,14536
1659431845.48631,14605
1659431845.530049,14683
1659431845.573788,14740
1659431845.617527,14798
1659431845.650331,14857
1659431845.683135,14904
1659431845.727558,14960
1659431845.77198,15006
1659431845.816403,15061
1659431845.855358,15079
1659431845.894313,14955
1659431845.933268,14712
1659431845.974786,14579
1659431846.016304,14541
1659431846.055601,14520
1659431846.094898,14549
1659431846.134194,14596
1659431846.172808,14629
1659431846.211421,14650
1659431846.250035,14684
1659431846.292065,14733
1659431846.334095,14813
1659431846.373392,14873
1659431846.412689,14936
1659431846.451986,14998
1659431846.492991,15049
1659431846.533997,15105
1659431846.57261,15148
1659431846.611223,15190
1659431846.649837,15229
1659431846.688792,15284
1659431846.727747,15321
1659431846.766702,15301
1659431846.809245,15121
1659431846.851788,14970
1659431846.890402,14932
1659431846.929015,14933
1659431846.967628,14945
1659431847.008634,14981
1659431847.049639,15013
1659431847.092695,15012
1659431847.135751,15021
1659431847.174364,15038
1659431847.212977,15062
1659431847.25159,15102
1659431847.296355,15144
1659431847.341119,15198
1659431847.385883,15229
1659431847.419713,15275
1659431847.453542,15312
1659431847.497281,15350
1659431847.54102,15398
1659431847.584759,15423
1659431847.618076,15458
1659431847.651393,15445
1659431847.696157,15272
1659431847.740921,15079
1659431847.785686,14973
1659431847.824299,14925
1659431847.862912,14909
1659431847.901526,14899
1659431847.942531,14922
1659431847.983536,14945
1659431848.02215,14937
1659431848.060763,14959
1659431848.099376,14988
1659431848.137648,15052
1659431848.17592,15093
1659431848.214192,15146
1659431848.255709,15194
1659431848.297227,15243
1659431848.336866,15297
1659431848.376504,15331
1659431848.416143,15372
1659431848.457148,15414
1659431848.498154,15459
1659431848.536767,15492
1659431848.575381,15435
1659431848.613994,15232
1659431848.657049,15102
1659431848.700105,15056
1659431848.738719,15044
1659431848.777332,15057
1659431848.815945,15092
1659431848.859684,15125
1659431848.903423,15137
1659431848.947162,15147
1659431848.98458,15176
1659431849.021997,15224
1659431849.059415,15274
1659431849.096832,15324
1659431849.137325,15382
1659431849.177818,15426
1659431849.216431,15459
1659431849.255044,15491
1659431849.293658,15539
1659431849.338764,15570
1659431849.38387,15616
1659431849.428976,15641
1659431849.46178,15649
1659431849.494584,15553
1659431849.53969,15358
1659431849.584796,15289
1659431849.629902,15256
1659431849.668857,15250
1659431849.707812,15285
1659431849.746767,15314
1659431849.788285,15313
1659431849.829803,15309
1659431849.868758,15335
1659431849.907713,15362
1659431849.946668,15399
1659431849.989211,15427
1659431850.031754,15463
1659431850.070026,15517
1659431850.108298,15553
1659431850.146569,15595
1659431850.185524,15634
1659431850.22448,15668
1659431850.263435,15692
1659431850.304953,15726
1659431850.346471,15750
1659431850.385426,15699
1659431850.424381,15518
1659431850.463336,15353
1659431850.504341,15294
1659431850.545346,15262
1659431850.584302,15252
1659431850.623257,15260
1659431850.662212,15278
1659431850.703217,15282
1659431850.744223,15289
1659431850.78352,15313
1659431850.822816,15344
1659431850.862113,15396
1659431850.903631,15435
1659431850.945149,15472
1659431850.984104,15518
1659431851.023059,15569
1659431851.062014,15604
1659431851.105753,15639
1659431851.149492,15681
1659431851.193231,15713
1659431851.227061,15745
1659431851.26089,15766
1659431851.304971,15684
1659431851.349052,15506
1659431851.393132,15395
1659431851.431746,15354
1659431851.470359,15336
1659431851.508973,15354
1659431851.549978,15387
1659431851.590983,15408
1659431851.629939,15424
1659431851.668894,15434
1659431851.707849,15470
1659431851.746462,15515
1659431851.785075,15560
1659431851.823689,15606
1659431851.865719,15634
1659431851.90775,15672
1659431851.947047,15706
1659431851.986343,15732
1659431852.02564,15755
1659431852.066646,15794
1659431852.107651,15828
1659431852.145923,15856
1659431852.184194,15852
1659431852.222466,15709
1659431852.265522,15551
1659431852.308577,15496
1659431852.346507,15484
1659431852.384437,15492
1659431852.422367,15511
1659431852.463372,15525
1659431852.504378,15530
1659431852.543675,15528
1659431852.582972,15542
1659431852.622268,15554
1659431852.666691,15583
1659431852.711113,15625
1659431852.755536,15658
1659431852.788853,15706
1659431852.82217,15742
1659431852.867617,15764
1659431852.913065,15802
1659431852.958512,15832
1659431852.999518,15868
1659431853.040523,15901
1659431853.079478,15906
1659431853.118433,15822
1659431853.157388,15643
1659431853.196685,15523
1659431853.235982,15465
1659431853.275279,15428
1659431853.316797,15412
1659431853.358315,15434
1659431853.396245,15445
1659431853.434175,15444
1659431853.472105,15440
1659431853.514135,15454
1659431853.556165,15490
1659431853.594437,15529
1659431853.632709,15581
1659431853.670981,15611
1659431853.710277,15657
1659431853.749574,15694
1659431853.788871,15728
1659431853.830389,15773
1659431853.871907,15791
1659431853.910862,15826
1659431853.949817,15860
1659431853.988772,15823
1659431854.029778,15644
1659431854.070783,15506
1659431854.110421,15447
1659431854.15006,15432
1659431854.189698,15409
1659431854.23096,15425
1659431854.272222,15460
1659431854.313483,15470
1659431854.354745,15478
1659431854.393358,15492
1659431854.431972,15538
1659431854.470585,15593
1659431854.515008,15638
1659431854.55943,15668
1659431854.603853,15710
1659431854.636657,15754
1659431854.669461,15788
1659431854.713884,15817
1659431854.758306,15839
1659431854.802729,15881
1659431854.841,15900
1659431854.879272,15915
1659431854.917544,15777
1659431854.958549,15610
1659431854.999554,15543
1659431855.038851,15515
1659431855.078148,15510
1659431855.117445,15528
1659431855.156742,15547
1659431855.196038,15546
1659431855.235335,15544
1659431855.273949,15546
1659431855.312562,15570
1659431855.351176,15597
1659431855.393206,15641
1659431855.435236,15686
1659431855.47385,15712
1659431855.512463,15750
1659431855.551077,15779
1659431855.59362,15815
1659431855.636163,15844
1659431855.674776,15876
1659431855.713389,15905
1659431855.752003,15933
1659431855.793521,15914
1659431855.835039,15742
1659431855.87912,15568
1659431855.9232,15480
1659431855.967281,15426
1659431856.001111,15388
1659431856.03494,15395
1659431856.080046,15407
1659431856.125152,15423
1659431856.170258,15424
1659431856.209213,15428
1659431856.248168,15469
1659431856.287123,15516
1659431856.328128,15569
1659431856.369134,15595
1659431856.408089,15642
1659431856.447044,15682
1659431856.485999,15721
1659431856.528029,15760
1659431856.57006,15784
1659431856.608673,15839
1659431856.647287,15864
1659431856.6859,15896
1659431856.724514,15913
1659431856.763127,15813
1659431856.80174,15639
1659431856.843258,15556
1659431856.884776,15507
1659431856.923048,15491
1659431856.961319,15513
1659431856.999591,15543
1659431857.041622,15553
1659431857.083652,15553
1659431857.122949,15565
1659431857.162246,15590
1659431857.201543,15626
1659431857.242548,15664
1659431857.283553,15706
1659431857.322167,15750
1659431857.36078,15775
1659431857.399394,15814
1659431857.441936,15838
1659431857.48448,15867
1659431857.523093,15901
1659431857.561706,15933
1659431857.60032,15964
1659431857.644742,15942
1659431857.689165,15795
1659431857.733587,15629
1659431857.766904,15562
1659431857.800221,15522
1659431857.84396,15494
1659431857.887699,15510
1659431857.931438,15525
1659431857.970393,15530
1659431858.009348,15522
1659431858.048303,15552
1659431858.090334,15576
1659431858.132364,15622
1659431858.170294,15656
1659431858.208224,15688
1659431858.246154,15737
1659431858.287672,15769
1659431858.32919,15799
1659431858.36917,15827
1659431858.409151,15863
1659431858.449131,15890
1659431858.487744,15930
1659431858.526358,15955
1659431858.564971,15955
1659431858.605976,15851
1659431858.646982,15665
1659431858.68662,15551
1659431858.726259,15491
1659431858.765897,15467
1659431858.807928,15445
1659431858.849958,15480
1659431858.888572,15493
1659431858.927185,15489
1659431858.965798,15516
1659431859.007316,15535
1659431859.048834,15592
1659431859.087448,15615
1659431859.126061,15659
1659431859.164675,15705
1659431859.206192,15747
1659431859.24771,15790
1659431859.286665,15828
1659431859.32562,15868
1659431859.364576,15902
1659431859.40934,15940
1659431859.454104,15964
1659431859.498868,15996
1659431859.538848,15993
1659431859.578829,15850
1659431859.618809,15703
1659431859.658789,15629
1659431859.698769,15606
1659431859.741312,15590
1659431859.783855,15612
1659431859.822127,15610
1659431859.860399,15606
1659431859.89867,15612
1659431859.940188,15617
1659431859.981706,15636
1659431860.02032,15659
1659431860.058933,15709
1659431860.097547,15735
1659431860.135818,15768
1659431860.17409,15800
1659431860.212362,15826
1659431860.254392,15867
1659431860.296422,15888
1659431860.335036,15907
1659431860.373649,15941
1659431860.412263,15967
1659431860.450876,15934
1659431860.48949,15766
1659431860.528103,15612
1659431860.569621,15537
1659431860.611139,15506
1659431860.649752,15472
1659431860.688365,15477
1659431860.726979,15493
1659431860.769009,15494
1659431860.81104,15494
1659431860.855121,15505
1659431860.899201,15551
1659431860.943282,15566
1659431860.976086,15614
1659431861.008891,15657
1659431861.052972,15705
1659431861.097052,15744
1659431861.141133,15777
1659431861.174963,15818
1659431861.208792,15858
1659431861.253214,15897
1659431861.297637,15931
1659431861.342059,15960
1659431861.380673,15960
1659431861.419286,15858
1659431861.4579,15684
1659431861.498392,15586
1659431861.538885,15554
1659431861.578182,15529
1659431861.617479,15528
1659431861.656775,15543
1659431861.698806,15567
1659431861.740837,15571
1659431861.779792,15583
1659431861.818747,15615
1659431861.857702,15646
1659431861.896999,15704
1659431861.936296,15735
1659431861.975592,15790
1659431862.017623,15819
1659431862.059653,15857
1659431862.098608,15887
1659431862.137563,15911
1659431862.176518,15931
1659431862.217524,15962
1659431862.258529,15995
1659431862.297484,15997
1659431862.336439,15875
1659431862.375395,15683
1659431862.415887,15588
1659431862.45638,15569
1659431862.495335,15551
1659431862.53429,15565
1659431862.573246,15575
1659431862.615276,15584
1659431862.657306,15574
1659431862.69592,15592
1659431862.734533,15609
1659431862.773147,15636
1659431862.817569,15689
1659431862.861992,15726
1659431862.906414,15749
1659431862.940756,15774
1659431862.975098,15810
1659431863.019179,15840
1659431863.06326,15877
1659431863.10734,15905
1659431863.148858,15921
1659431863.190376,15955
1659431863.229331,15934
1659431863.268286,15768
1659431863.307241,15583
1659431863.345513,15469
1659431863.383785,15411
1659431863.422056,15361
1659431863.46067,15356
1659431863.499283,15363
1659431863.537897,15363
1659431863.58044,15346
1659431863.622983,15360
1659431863.660913,15370
1659431863.698843,15403
1659431863.736773,15457
1659431863.777778,15505
1659431863.818784,15547
1659431863.85808,15583
1659431863.897377,15635
1659431863.936674,15675
1659431863.978192,15717
1659431864.01971,15748
1659431864.058323,15791
1659431864.096936,15839
1659431864.13555,15770
1659431864.180656,15570
1659431864.225762,15410
1659431864.270868,15337
1659431864.303672,15290
1659431864.336476,15269
1659431864.380215,15270
1659431864.423954,15275
1659431864.467693,15277
1659431864.510749,15277
1659431864.553805,15288
1659431864.592418,15330
1659431864.631031,15381
1659431864.669645,15433
1659431864.708258,15486
1659431864.746871,15539
1659431864.785485,15583
1659431864.827003,15625
1659431864.868521,15653
1659431864.907476,15701
1659431864.946431,15729
1659431864.985386,15763
1659431865.024341,15733
1659431865.063296,15569
1659431865.102251,15410
1659431865.144282,15325
1659431865.186312,15299
1659431865.225267,15287
1659431865.264223,15317
1659431865.303178,15326
1659431865.344696,15314
1659431865.386214,15316
1659431865.42551,15321
1659431865.464807,15358
1659431865.504104,15402
1659431865.545622,15434
1659431865.58714,15471
1659431865.625412,15527
1659431865.663683,15564
1659431865.701955,15601
1659431865.74296,15639
1659431865.783966,15671
1659431865.823604,15703
1659431865.863243,15732
1659431865.902881,15695
1659431865.946962,15493
1659431865.991043,15306
1659431866.035123,15182
1659431866.076641,15117
1659431866.118159,15060
1659431866.157456,15039
1659431866.196753,15041
1659431866.23605,15036
1659431866.274663,15014
1659431866.313277,15025
1659431866.35189,15060
1659431866.39392,15103
1659431866.435951,15159
1659431866.474906,15223
1659431866.513861,15278
1659431866.552816,15331
1659431866.593822,15374
1659431866.634827,15415
1659431866.673099,15472
1659431866.71137,15515
1659431866.749642,15561
1659431866.788597,15584
1659431866.827552,15506
1659431866.866507,15284
1659431866.908538,15137
1659431866.950568,15052
1659431866.988498,15013
1659431867.026428,15007
1659431867.064358,15025
1659431867.106389,15047
1659431867.148419,15061
1659431867.187716,15062
1659431867.227013,15082
1659431867.266309,15131
1659431867.307827,15171
1659431867.349345,15232
1659431867.394109,15285
1659431867.438874,15318
1659431867.483638,15356
1659431867.517467,15390
1659431867.551297,15428
1659431867.595378,15465
1659431867.639458,15507
1659431867.683539,15547
1659431867.722494,15550
1659431867.761449,15399
1659431867.800404,15171
1659431867.842947,15036
1659431867.885491,14954
1659431867.923762,14907
1659431867.962034,14892
1659431868.000306,14917
1659431868.041311,14916
1659431868.082316,14898
1659431868.121271,14901
1659431868.160227,14923
1659431868.199182,14972
1659431868.237453,15003
1659431868.275725,15064
1659431868.313997,15126
1659431868.356027,15178
1659431868.398058,15228
1659431868.437696,15275
1659431868.477335,15311
1659431868.516973,15357
1659431868.558491,15413
1659431868.600009,15443
1659431868.638964,15437
1659431868.677919,15238
1659431868.716874,14981
1659431868.756513,14812
1659431868.796151,14718
1659431868.83579,14650
1659431868.876283,14624
1659431868.916775,14641
1659431868.957781,14659
1659431868.998786,14650
1659431869.037741,14649
1659431869.076696,14674
1659431869.115652,14718
1659431869.159732,14776
1659431869.203813,14847
1659431869.247894,14911
1659431869.281211,14956
1659431869.314528,14980
1659431869.359633,14985
1659431869.404739,14980
1659431869.449845,14953
1659431869.482137,14935
1659431869.514429,14898
1659431869.558509,14782
1659431869.60259,14450
1659431869.646671,14058
1659431869.68631,13838
1659431869.725948,13693
1659431869.765587,13625
1659431869.806592,13612
1659431869.847597,13615
1659431869.885869,13549
1659431869.924141,13476
1659431869.962412,13390
1659431870.001367,13338
1659431870.040323,13298
1659431870.079278,13253
1659431870.117891,13250
1659431870.156504,13269
1659431870.195118,13313
1659431870.236636,13344
1659431870.278154,13376
1659431870.322576,13433
1659431870.366999,13501
1659431870.411421,13465
1659431870.444225,13207
1659431870.47703,12906
1659431870.521452,12752
1659431870.565875,12729
1659431870.610297,12771
1659431870.644126,12859
1659431870.677956,12990
1659431870.72272,13058
1659431870.767484,13092
1659431870.812248,13103
1659431870.850862,13141
1659431870.889475,13208
1659431870.928089,13275
1659431870.969607,13358
1659431871.011125,13448
1659431871.049738,13555
1659431871.088351,13646
1659431871.126965,13758
1659431871.165578,13853
1659431871.204191,13942
1659431871.242805,14015
1659431871.284835,13968
1659431871.326866,13714
1659431871.366163,13461
1659431871.405459,13307
1659431871.444756,13185
1659431871.482686,13134
1659431871.520616,13124
1659431871.558546,13171
1659431871.600064,13239
1659431871.641582,13290
1659431871.681562,13351
1659431871.721543,13441
1659431871.761523,13543
1659431871.802528,13657
1659431871.843534,13766
1659431871.883719,13881
1659431871.923904,13982
1659431871.964089,14078
1659431872.004274,14169
1659431872.04446,14253
1659431872.08649,14334
1659431872.128521,14403
1659431872.166451,14376
1659431872.204381,14178
1659431872.242311,13984
1659431872.283828,13872
1659431872.325346,13830
1659431872.36396,13800
1659431872.402573,13824
1659431872.441187,13844
1659431872.482705,13850
1659431872.524223,13859
1659431872.568303,13871
1659431872.612384,13923
1659431872.656465,13994
1659431872.695762,14095
1659431872.735059,14186
1659431872.774355,14269
1659431872.815361,14347
1659431872.856366,14411
1659431872.894979,14478
1659431872.933593,14549
1659431872.972206,14590
1659431873.014749,14542
1659431873.057292,14319
1659431873.095906,14070
1659431873.134519,13957
1659431873.173132,13890
1659431873.211746,13847
1659431873.250359,13883
1659431873.288973,13923
1659431873.330491,13930
1659431873.372009,13921
1659431873.410622,13947
1659431873.449235,14009
1659431873.487849,14097
1659431873.526804,14174
1659431873.565759,14238
1659431873.604714,14314
1659431873.645719,14352
1659431873.686725,14403
1659431873.725338,14440
1659431873.763951,14483
1659431873.802565,14487
1659431873.845108,14318
1659431873.887651,14040
1659431873.926606,13864
1659431873.965561,13775
1659431874.004516,13684
1659431874.045521,13635
1659431874.086527,13626
1659431874.130949,13610
1659431874.175372,13574
1659431874.219794,13495
1659431874.254136,13471
1659431874.288478,13547
1659431874.332901,13650
1659431874.377323,13751
1659431874.421746,13863
1659431874.460359,13926
1659431874.498973,13959
1659431874.537586,14011
1659431874.579104,14078
1659431874.620622,14131
1659431874.658894,14036
1659431874.697165,13770
1659431874.735437,13520
1659431874.777467,13395
1659431874.819498,13334
1659431874.858453,13311
1659431874.897408,13363
1659431874.936363,13422
1659431874.975318,13470
1659431875.014273,13479
1659431875.053228,13512
1659431875.094746,13579
1659431875.136264,13671
1659431875.175561,13769
1659431875.214858,13864
1659431875.254155,13961
1659431875.296185,14047
1659431875.338216,14139
1659431875.376829,14211
1659431875.415442,14291
1659431875.454056,14371
1659431875.495061,14368
1659431875.536067,14135
1659431875.574338,13857
1659431875.61261,13749
1659431875.650882,13725
1659431875.692912,13743
1659431875.734943,13794
1659431875.773556,13842
1659431875.812169,13859
1659431875.850783,13849
1659431875.894864,13868
1659431875.938944,13927
1659431875.983025,14010
1659431876.016342,14107
1659431876.049659,14203
1659431876.09374,14264
1659431876.13782,14325
1659431876.181901,14380
1659431876.220856,14427
1659431876.259811,14454
1659431876.298766,14446
1659431876.340797,14236
1659431876.382828,13839
1659431876.421782,13564
1659431876.460738,13425
1659431876.499693,13353
1659431876.540698,13349
1659431876.581703,13386
1659431876.620659,13431
1659431876.659614,13453
1659431876.698569,13477
1659431876.737524,13535
1659431876.776479,13610
1659431876.815434,13690
1659431876.856952,13783
1659431876.89847,13861
1659431876.937083,13933
1659431876.975697,14026
1659431877.01431,14104
1659431877.055828,14205
1659431877.097346,14298
1659431877.136984,14385
1659431877.176623,14338
1659431877.216261,14046
1659431877.257779,13751
1659431877.299297,13603
1659431877.337569,13546
1659431877.375841,13517
1659431877.414112,13537
1659431877.456656,13587
1659431877.499198,13602
1659431877.538495,13621
1659431877.577792,13674
1659431877.617089,13732
1659431877.658607,13822
1659431877.700125,13919
1659431877.744547,14011
1659431877.78897,14102
1659431877.833392,14186
1659431877.872689,14269
1659431877.911986,14347
1659431877.951283,14420
1659431877.991776,14497
1659431878.032268,14561
1659431878.071565,14450
1659431878.110862,14158
1659431878.150159,13938
1659431878.192189,13875
1659431878.23422,13884
1659431878.272491,13926
1659431878.310763,13991
1659431878.349035,14025
1659431878.38799,14024
1659431878.426945,14029
1659431878.4659,14067
1659431878.508443,14140
1659431878.550986,14215
1659431878.589258,14291
1659431878.627529,14359
1659431878.665801,14426
1659431878.704756,14497
1659431878.743711,14565
1659431878.782666,14625
1659431878.823672,14685
1659431878.864677,14743
1659431878.902949,14630
1659431878.941221,14327
1659431878.979492,14053
1659431879.021523,13944
1659431879.063553,13916
1659431879.108317,13910
1659431879.153082,13958
1659431879.197846,13984
1659431879.229625,13981
1659431879.261404,13978
1659431879.305827,13998
1659431879.350249,14061
1659431879.394671,14141
1659431879.429013,14215
1659431879.463356,14299
1659431879.507778,14380
1659431879.552201,14459
1659431879.596623,14530
1659431879.635236,14595
1659431879.67385,14676
1659431879.712463,14740
1659431879.751418,14775
1659431879.790373,14638
1659431879.829328,14322
1659431879.869821,14088
1659431879.910314,14001
1659431879.948586,13951
1659431879.986857,13942
1659431880.025129,13991
1659431880.067672,14019
1659431880.110215,14024
1659431880.148829,14047
1659431880.187442,14087
1659431880.226055,14157
1659431880.264669,14235
1659431880.303282,14311
1659431880.341895,14395
1659431880.383926,14474
1659431880.425956,14552
1659431880.465595,14614
1659431880.505234,14687
1659431880.544872,14744
1659431880.58639,14811
1659431880.627908,14865
1659431880.669426,14797
1659431880.710944,14563
1659431880.750582,14354
1659431880.790221,14293
1659431880.829859,14285
1659431880.87394,14318
1659431880.918021,14370
1659431880.962102,14414
1659431880.995931,14418
1659431881.02976,14424
1659431881.074183,14462
1659431881.118605,14512
1659431881.163028,14571
1659431881.2013,14619
1659431881.239571,14681
1659431881.277843,14732
1659431881.316456,14779
1659431881.35507,14840
1659431881.393683,14870
1659431881.435201,14919
1659431881.476719,14966
1659431881.515332,14945
1659431881.553946,14723
1659431881.592559,14428
1659431881.634077,14270
1659431881.675595,14214
1659431881.71455,14199
1659431881.753505,14216
1659431881.79246,14261
1659431881.831074,14256
1659431881.869687,14277
1659431881.9083,14276
1659431881.949818,14312
1659431881.991336,14372
1659431882.033879,14436
1659431882.076422,14495
1659431882.114694,14562
1659431882.152966,14627
1659431882.191237,14694
1659431882.235318,14736
1659431882.279399,14783
1659431882.32348,14838
1659431882.357309,14904
1659431882.391139,14935
1659431882.435219,14758
1659431882.4793,14456
1659431882.523381,14265
1659431882.561311,14169
1659431882.599241,14127
1659431882.637171,14095
1659431882.679201,14122
1659431882.721232,14151
1659431882.760187,14154
1659431882.799142,14162
1659431882.838097,14204
1659431882.879615,14268
1659431882.921133,14338
1659431882.96043,14409
1659431882.999727,14459
1659431883.039023,14500
1659431883.077637,14565
1659431883.11625,14625
1659431883.154864,14698
1659431883.195356,14747
1659431883.235849,14808
1659431883.275146,14879
1659431883.314443,14881
1659431883.35374,14699
1659431883.39577,14521
1659431883.437801,14456
1659431883.476414,14459
1659431883.515027,14494
1659431883.553641,14528
1659431883.595159,14564
1659431883.636677,14576
1659431883.675973,14578
1659431883.71527,14589
1659431883.754567,14623
1659431883.796085,14658
1659431883.837603,14706
1659431883.8769,14770
1659431883.916197,14821
1659431883.955493,14872
1659431883.997524,14919
1659431884.039554,14971
1659431884.078168,15014
1659431884.116781,15078
1659431884.155395,15116
1659431884.199475,15037
1659431884.243556,14819
1659431884.287637,14634
1659431884.33018,14560
1659431884.372723,14539
1659431884.410995,14532
1659431884.449266,14558
1659431884.487538,14571
1659431884.526151,14579
1659431884.564765,14577
1659431884.603378,14610
1659431884.644896,14643
1659431884.686414,14688
1659431884.725369,14746
1659431884.764324,14799
1659431884.803279,14860
1659431884.844285,14915
1659431884.88529,14963
1659431884.924587,15012
1659431884.963884,15068
1659431885.003181,15124
1659431885.041794,15172
1659431885.080407,15169
1659431885.11902,14977
1659431885.161051,14732
1659431885.203082,14563
1659431885.241695,14480
1659431885.280308,14438
1659431885.318922,14425
1659431885.360952,14455
1659431885.402983,14466
1659431885.441254,14461
1659431885.479526,14488
1659431885.517798,14526
1659431885.559316,14577
1659431885.600834,14658
1659431885.644914,14724
1659431885.688995,14795
1659431885.733076,14858
1659431885.76588,14917
1659431885.798685,14989
1659431885.83887,15037
1659431885.879055,15097
1659431885.91924,15154
1659431885.959425,15211
1659431885.999611,15177
1659431886.041129,14976
1659431886.082647,14797
1659431886.12126,14720
1659431886.159873,14689
1659431886.198487,14697
1659431886.240517,14729
1659431886.282548,14758
1659431886.325091,14779
1659431886.367634,14783
1659431886.406589,14802
1659431886.445544,14832
1659431886.484499,14890
1659431886.528922,14940
1659431886.573344,15007
1659431886.617767,15059
1659431886.651083,15096
1659431886.6844,15147
1659431886.728139,15178
1659431886.771878,15236
1659431886.815618,15276
1659431886.849447,15302
1659431886.883276,15275
1659431886.928041,15092
1659431886.972805,14885
1659431887.017569,14772
1659431887.056182,14734
1659431887.094796,14716
1659431887.133409,14737
1659431887.174927,14742
1659431887.216445,14748
1659431887.256083,14750
1659431887.295722,14766
1659431887.335361,14799
1659431887.373632,14843
1659431887.411904,14903
1659431887.450176,14959
1659431887.491693,15016
1659431887.533211,15057
1659431887.57285,15103
1659431887.612489,15149
1659431887.652127,15197
1659431887.693645,15247
1659431887.735163,15300
1659431887.773776,15324
1659431887.81239,15211
1659431887.851003,14968
1659431887.892521,14771
1659431887.934039,14675
1659431887.971969,14594
1659431888.009899,14564
1659431888.047829,14568
1659431888.089859,14602
1659431888.13189,14605
1659431888.170503,14618
1659431888.209116,14635
1659431888.24773,14686
1659431888.292152,14745
1659431888.336575,14798
1659431888.380997,14863
1659431888.413802,14925
1659431888.446606,14993
1659431888.491712,15043
1659431888.536818,15104
1659431888.581924,15170
1659431888.623442,15220
1659431888.664959,15276
1659431888.703231,15329
1659431888.741503,15324
1659431888.779775,15149
1659431888.819071,14959
1659431888.858368,14859
1659431888.897665,14834
1659431888.938158,14828
1659431888.978651,14864
1659431889.016922,14896
1659431889.055194,14899
1659431889.093466,14907
1659431889.132421,14923
1659431889.171376,14964
1659431889.210331,15010
1659431889.252361,15064
1659431889.294392,15117
1659431889.333005,15170
1659431889.371619,15223
1659431889.410232,15260
1659431889.452263,15310
1659431889.494293,15345
1659431889.533248,15374
1659431889.572203,15430
1659431889.611158,15457
1659431889.653189,15382
1659431889.695219,15164
1659431889.734516,14996
1659431889.773813,14915
1659431889.81311,14902
1659431889.854115,14892
1659431889.89512,14913
1659431889.939201,14920
1659431889.983282,14922
1659431890.027363,14923
1659431890.061192,14941
1659431890.095022,14992
1659431890.139786,15027
1659431890.18455,15084
1659431890.229314,15129
1659431890.267586,15183
1659431890.305858,15242
1659431890.344129,15280
1659431890.385647,15337
1659431890.427165,15377
1659431890.466462,15422
1659431890.505759,15460
1659431890.545056,15486
1659431890.586573,15405
1659431890.628091,15182
1659431890.667047,15017
1659431890.706002,14918
1659431890.744957,14868
1659431890.783912,14830
1659431890.822867,14839
1659431890.861822,14864
1659431890.902827,14879
1659431890.943833,14888
1659431890.98313,14908
1659431891.022426,14955
1659431891.061723,15013
1659431891.100337,15083
1659431891.13895,15140
1659431891.177563,15205
1659431891.218569,15264
1659431891.259574,15305
1659431891.297504,15328
1659431891.335434,15345
1659431891.373364,15363
1659431891.415394,15385
1659431891.457425,15408
1659431891.501506,15340
1659431891.545586,15114
1659431891.589667,14889
1659431891.628281,14755
1659431891.666894,14669
1659431891.705507,14605
1659431891.747025,14590
1659431891.788543,14603
1659431891.82784,14574
1659431891.867137,14561
1659431891.906434,14557
1659431891.947952,14584
1659431891.98947,14616
1659431892.028425,14672
1659431892.06738,14744
1659431892.106335,14812
1659431892.14529,14880
1659431892.184245,14945
1659431892.2232,15013
1659431892.263693,15101
1659431892.304186,15176
1659431892.343141,15220
1659431892.382096,15128
1659431892.421051,14884
1659431892.463594,14700
1659431892.506137,14592
1659431892.544067,14522
1659431892.581997,14471
1659431892.619927,14469
1659431892.659565,14456
1659431892.699204,14443
1659431892.738842,14402
1659431892.78036,14405
1659431892.821878,14463
1659431892.863909,14534
1659431892.90594,14624
1659431892.944895,14705
1659431892.98385,14785
1659431893.022805,14864
1659431893.064323,14942
1659431893.105841,15007
1659431893.144112,15077
1659431893.182384,15136
1659431893.220656,15173
1659431893.264736,15042
1659431893.308817,14776
1659431893.352898,14554
1659431893.38724,14440
1659431893.421582,14400
1659431893.465663,14405
1659431893.509743,14471
1659431893.553824,14534
1659431893.592438,14562
1659431893.631051,14592
1659431893.669664,14622
1659431893.711695,14675
1659431893.753725,14713
1659431893.792339,14771
1659431893.830952,14818
1659431893.869565,14849
1659431893.911596,14894
1659431893.953627,14919
1659431893.992923,14956
1659431894.03222,14959
1659431894.071517,14976
1659431894.11013,14974
1659431894.148744,14787
1659431894.187357,14413
1659431894.228363,14092
1659431894.269368,13946
1659431894.309006,13883
1659431894.348645,13895
1659431894.388283,13905
1659431894.428776,13897
1659431894.469269,13878
1659431894.507541,13862
1659431894.545812,13858
1659431894.584084,13863
1659431894.625089,13920
1659431894.666095,13986
1659431894.70505,14051
1659431894.744005,14103
1659431894.78296,14134
1659431894.827041,14188
1659431894.871122,14249
1659431894.915202,14332
1659431894.948519,14408
1659431894.981836,14385
1659431895.0266,14138
1659431895.071364,13859
1659431895.116129,13678
1659431895.157134,13567
1659431895.198139,13479
1659431895.237778,13438
1659431895.277416,13410
1659431895.317055,13375
1659431895.35601,13346
1659431895.394965,13335
1659431895.43392,13338
1659431895.474926,13355
1659431895.515931,13368
1659431895.554886,13398
1659431895.593841,13429
1659431895.632796,13451
1659431895.674827,13473
1659431895.716857,13464
1659431895.755471,13457
1659431895.794084,13448
1659431895.832697,13457
1659431895.871311,13402
1659431895.909924,13069
1659431895.948538,12596
1659431895.990568,12260
1659431896.032598,12089
1659431896.071554,12013
1659431896.110509,12046
1659431896.149464,12142
1659431896.191494,12229
1659431896.233525,12288
1659431896.272822,12357
1659431896.312119,12457
1659431896.351415,12559
1659431896.392933,12679
1659431896.434451,12828
1659431896.47819,12986
1659431896.521929,13129
1659431896.565668,13252
1659431896.60001,13344
1659431896.634352,13431
1659431896.678433,13500
1659431896.722514,13571
1659431896.766595,13568
1659431896.805208,13273
1659431896.843821,12849
1659431896.882435,12526
1659431896.92344,12328
1659431896.964446,12207
1659431897.003742,12192
1659431897.043039,12225
1659431897.082336,12240
1659431897.123854,12246
1659431897.165372,12274
1659431898.967216,12871
1659431900.76906,12996
1659431902.570904,13123
1659431902.609518,13238
1659431902.648131,13355
1659431902.686744,13426
1659431902.729287,13466
1659431902.77183,13504
1659431902.810786,13520
1659431902.849741,13590
1659431902.888696,13598
1659431902.929701,13345
1659431902.970706,13000
1659431903.010003,12811
1659431903.0493,12741
1659431903.088597,12706
1659431903.13114,12712
1659431903.173683,12751
1659431903.217422,12771
1659431903.261161,12767
1659431903.3049,12772
1659431903.337192,12811
1659431903.369484,12897
1659431903.414248,12988
1659431903.459012,13084
1659431903.503776,13197
1659431903.541706,13274
1659431903.579636,13364
1659431903.617566,13457
1659431903.660109,13549
1659431903.702652,13635
1659431903.741266,13714
1659431903.779879,13614
1659431903.818492,13286
1659431903.857106,13000
1659431903.895719,12871
1659431903.934333,12838
1659431903.97585,12823
1659431904.017368,12852
1659431904.056665,12860
1659431904.095962,12861
1659431904.135259,12847
1659431904.176777,12863
1659431904.218295,12925
1659431904.25725,12988
1659431904.296205,13065
1659431904.33516,13116
1659431904.373773,13175
1659431904.412387,13231
1659431904.451,13290
1659431904.492518,13354
1659431904.534036,13392
1659431904.575554,13332
1659431904.617072,12955
1659431904.655685,12390
1659431904.694299,11927
1659431904.732912,11699
1659431904.776993,11587
1659431904.821074,11505
1659431904.865154,11457
1659431904.898471,11409
1659431904.931788,11380
1659431904.976552,11395
1659431905.021317,11469
1659431905.066081,11522
1659431905.100423,11558
1659431905.134765,11617
1659431905.178845,11702
1659431905.222926,11792
1659431905.267007,11851
1659431905.306304,11883
1659431905.345601,11920
1659431905.384897,11970
1659431905.425903,11860
1659431905.466908,11416
1659431905.505863,10930
1659431905.544818,10686
1659431905.583773,10590
1659431905.625804,10557
1659431905.667834,10629
1659431905.707131,10677
1659431905.746428,10705
1659431905.785725,10725
1659431905.823997,10863
1659431905.862268,11012
1659431905.90054,11150
1659431905.942058,11281
1659431905.983576,11386
1659431906.023556,11501
1659431906.063536,11603
1659431906.103516,11699
1659431906.144522,11782
1659431906.185527,11880
1659431906.223799,11996
1659431906.26207,12018
1659431906.300342,11716
1659431906.342885,11300
1659431906.385428,11103
1659431906.424042,11034
1659431906.462655,11035
1659431906.501268,11107
1659431906.541761,11212
1659431906.582254,11282
1659431906.621209,11288
1659431906.660164,11307
1659431906.699119,11316
1659431906.7432,11354
1659431906.787281,11378
1659431906.831362,11463
1659431906.870146,11631
1659431906.90893,11826
1659431906.947714,12041
1659431906.986499,12211
1659431907.025283,12359
1659431907.064067,12446
1659431907.102339,12367
1659431907.14061,12028
1659431907.178882,11745
1659431907.220912,11693
1659431907.262943,11707
1659431907.30224,11739
1659431907.341537,11761
1659431907.380833,11722
1659431907.424094,11626
1659431907.467355,11541
1659431907.510616,11460
1659431907.553876,11411
1659431907.597137,11396
1659431907.636434,11363
1659431907.67573,11344
1659431907.715027,11331
1659431907.753641,11332
1659431907.792254,11362
1659431907.830867,11422
1659431907.87136,11496
1659431907.911853,11547
1659431907.95115,11337
1659431907.990447,10878
1659431908.029743,10524
1659431908.070236,10311
1659431908.110729,10180
1659431908.150026,10100
1659431908.189323,10106
1659431908.228619,10140
1659431908.267916,10167
1659431908.307213,10208
1659431908.34651,10302
1659431908.388028,10421
1659431908.429546,10486
1659431908.468501,10446
1659431908.507456,10438
1659431908.546411,10505
1659431908.588954,10643
1659431908.631497,10778
1659431908.670452,10934
1659431908.709407,11134
1659431908.748363,11413
1659431908.789368,11695
1659431908.830373,11915
1659431908.875137,11833
1659431908.919902,11465
1659431908.964666,11126
1659431908.997983,10918
1659431909.031299,10772
1659431909.075038,10676
1659431909.118778,10686
1659431909.162517,10715
1659431909.201472,10734
1659431909.240427,10740
1659431909.279382,10727
1659431909.3209,10784
1659431909.362418,10920
1659431909.401031,11108
1659431909.439645,11307
1659431909.478258,11507
1659431909.520288,11701
1659431909.562319,11877
1659431909.601274,12031
1659431909.640229,12199
1659431909.679184,12383
1659431909.717798,12560
1659431909.756411,12700
1659431909.795024,12625
1659431909.83603,12333
1659431909.877035,12112
1659431909.915648,12014
1659431909.954262,11976
1659431909.992875,11936
1659431910.031489,11909
1659431910.070102,11798
1659431910.108716,11626
1659431910.150746,11447
1659431910.192776,11274
1659431910.23139,11135
1659431910.270003,11051
1659431910.308617,11031
1659431910.350135,11069
1659431910.391652,11143
1659431910.43317,11217
1659431910.474688,11261
1659431910.513302,11298
1659431910.551915,11314
1659431910.590528,11303
1659431910.634951,11295
1659431910.679374,10966
1659431910.723796,10218
1659431910.7566,9497
1659431910.789404,8961
1659431910.834169,8657
1659431910.878933,8531
1659431910.923697,8343
1659431910.962652,8090
1659431911.001607,7797
1659431911.040562,7533
1659431911.08208,7343
1659431911.123598,7244
1659431911.162553,7309
1659431911.201509,7555
1659431911.240463,7864
1659431911.281981,8193
1659431911.323499,8625
1659431911.362113,9044
1659431911.400726,9499
1659431911.43934,9926
1659431911.478978,10314
1659431911.518617,10679
1659431911.558255,11002
1659431911.600286,11127
1659431911.642316,11033
1659431911.680588,10986
1659431911.718859,11014
1659431911.757131,11099
1659431911.799162,11233
1659431911.841192,11385
1659431911.880831,11537
1659431911.920469,11659
1659431911.960108,11748
1659431912.001113,11828
1659431912.042118,11930
1659431912.083893,12033
1659431912.125667,12123
1659431912.167441,12200
1659431912.209215,12276
1659431912.247145,12384
