LocalTimestamp,PG
1659522162.945929,9409
1659522162.988427,9677
1659522163.026999,9920
1659522163.065572,10117
1659522163.104144,10248
1659522163.145618,10359
1659522163.187093,10448
1659522163.225665,10494
1659522163.264238,10538
1659522163.30281,10626
1659522163.345309,10715
1659522163.387807,10860
1659522163.431841,10971
1659522163.475875,11067
1659522163.519909,11123
1659522163.559165,11128
1659522163.59842,11151
1659522163.637675,11229
1659522163.679661,11335
1659522163.721647,11453
1659522163.759879,11580
1659522163.79811,11699
1659522163.836341,11783
1659522163.873975,11820
1659522163.911609,11768
1659522163.949243,11628
1659522163.986876,11474
1659522164.028863,11369
1659522164.070849,11289
1659522164.109421,11246
1659522164.147994,11242
1659522164.186567,11243
1659522164.227529,11233
1659522164.268491,11217
1659522164.312525,11220
1659522164.356559,11247
1659522164.400593,11296
1659522164.438824,11355
1659522164.477056,11431
1659522164.515287,11501
1659522164.557273,11576
1659522164.599259,11672
1659522164.638173,11749
1659522164.677087,11836
1659522164.716001,11923
1659522164.757475,12000
1659522164.798949,12025
1659522164.837863,11948
1659522164.876777,11810
1659522164.915691,11723
1659522164.954946,11669
1659522164.994202,11625
1659522165.033457,11639
1659522165.075443,11668
1659522165.117429,11681
1659522165.155319,11700
1659522165.193209,11750
1659522165.231099,11826
1659522165.272573,11896
1659522165.314047,11967
1659522165.35262,12030
1659522165.391192,12101
1659522165.429765,12145
1659522165.468337,12195
1659522165.50691,12256
1659522165.545482,12317
1659522165.587469,12380
1659522165.629455,12440
1659522165.671441,12471
1659522165.713427,12417
1659522165.751658,12219
1659522165.789889,12004
1659522165.828121,11863
1659522165.873179,11765
1659522165.918237,11717
1659522165.963295,11703
1659522165.997089,11672
1659522166.030883,11632
1659522166.0756,11600
1659522166.120317,11629
1659522166.165034,11681
1659522166.198315,11747
1659522166.231597,11776
1659522166.276314,11776
1659522166.321031,11803
1659522166.365747,11830
1659522166.40432,11864
1659522166.442893,11923
1659522166.481465,12012
1659522166.522939,12088
1659522166.564414,12121
1659522166.603669,11967
1659522166.642924,11768
1659522166.682179,11673
1659522166.722629,11628
1659522166.763079,11615
1659522166.802335,11634
1659522166.84159,11667
1659522166.880845,11683
1659522166.920101,11696
1659522166.959356,11711
1659522166.998611,11745
1659522167.039573,11800
1659522167.080535,11863
1659522167.119449,11924
1659522167.158363,11994
1659522167.197277,12052
1659522167.239775,12096
1659522167.282273,12149
1659522167.320846,12200
1659522167.359419,12233
1659522167.397991,12286
1659522167.438953,12262
1659522167.479915,12114
1659522167.518829,11883
1659522167.557743,11742
1659522167.596657,11686
1659522167.64035,11656
1659522167.684043,11662
1659522167.727736,11686
1659522167.761529,11694
1659522167.795323,11678
1659522167.839357,11712
1659522167.883391,11753
1659522167.927426,11815
1659522167.965998,11886
1659522168.004571,11948
1659522168.043144,12029
1659522168.084618,12115
1659522168.126092,12202
1659522168.165347,12301
1659522168.204602,12377
1659522168.243857,12443
1659522168.285844,12432
1659522168.32783,12341
1659522168.366402,12231
1659522168.404975,12191
1659522168.443547,12190
1659522168.482461,12230
1659522168.521375,12277
1659522168.560289,12332
1659522168.601251,12355
1659522168.642213,12383
1659522168.680786,12439
1659522168.719359,12482
1659522168.757931,12540
1659522168.800429,12581
1659522168.842927,12612
1659522168.881841,12650
1659522168.920755,12695
1659522168.959669,12725
1659522169.001143,12770
1659522169.042618,12782
1659522169.082965,12688
1659522169.123313,12589
1659522169.16366,12507
1659522169.204008,12476
1659522169.244355,12498
1659522169.288731,12505
1659522169.333107,12514
1659522169.377482,12485
1659522169.410764,12490
1659522169.444046,12497
1659522169.488421,12545
1659522169.532797,12566
1659522169.577172,12601
1659522169.611478,12646
1659522169.645784,12677
1659522169.689476,12697
1659522169.733169,12738
1659522169.776862,12777
1659522169.815776,12727
1659522169.85469,12588
1659522169.893604,12447
1659522169.934566,12383
1659522169.975528,12379
1659522170.014101,12381
1659522170.052673,12416
1659522170.091246,12450
1659522170.133232,12465
1659522170.175218,12483
1659522170.214473,12517
1659522170.253729,12572
1659522170.292984,12624
1659522170.331215,12683
1659522170.369447,12731
1659522170.407678,12789
1659522170.449664,12829
1659522170.49165,12875
1659522170.530905,12920
1659522170.570161,12960
1659522170.609416,12912
1659522170.647988,12712
1659522170.686561,12524
1659522170.725134,12447
1659522170.766608,12433
1659522170.808082,12423
1659522170.849556,12456
1659522170.89103,12516
1659522170.929603,12540
1659522170.968175,12560
1659522171.006748,12576
1659522171.051123,12607
1659522171.095499,12646
1659522171.139874,12697
1659522171.172644,12718
1659522171.205414,12737
1659522171.249448,12782
1659522171.293482,12811
1659522171.337516,12836
1659522171.37131,12873
1659522171.405104,12910
1659522171.450162,12903
1659522171.49522,12763
1659522171.540278,12573
1659522171.57851,12455
1659522171.616741,12406
1659522171.654972,12363
1659522171.696446,12353
1659522171.73792,12365
1659522171.776834,12390
1659522171.815748,12411
1659522171.854662,12441
1659522171.896648,12485
1659522171.938634,12531
1659522171.977207,12574
1659522172.015779,12618
1659522172.054352,12642
1659522172.093266,12675
1659522172.13218,12706
1659522172.171094,12745
1659522172.211544,12775
1659522172.251994,12811
1659522172.291249,12843
1659522172.330505,12874
1659522172.36976,12863
1659522172.412258,12815
1659522172.454756,12791
1659522172.49367,12792
1659522172.532584,12816
1659522172.571498,12828
1659522172.612972,12863
1659522172.654446,12883
1659522172.693702,12900
1659522172.732957,12921
1659522172.772212,12953
1659522172.814198,12976
1659522172.856184,12999
1659522172.894757,13040
1659522172.933329,13067
1659522172.971902,13099
1659522173.016278,13125
1659522173.060653,13151
1659522173.105029,13171
1659522173.145991,13204
1659522173.186953,13235
1659522173.225184,13255
1659522173.263415,13278
1659522173.301646,13256
1659522173.344145,13227
1659522173.386643,13253
1659522173.424874,13287
1659522173.463105,13322
1659522173.501337,13341
1659522173.540251,13366
1659522173.579164,13385
1659522173.618078,13411
1659522173.659552,13434
1659522173.701026,13464
1659522173.739599,13496
1659522173.778172,13522
1659522173.816744,13532
1659522173.85873,13560
1659522173.900717,13577
1659522173.939631,13604
1659522173.978544,13630
1659522174.017458,13646
1659522174.056372,13677
1659522174.095286,13701
1659522174.1342,13723
1659522174.175162,13740
1659522174.216124,13722
1659522174.254697,13708
1659522174.293269,13722
1659522174.331842,13744
1659522174.376218,13769
1659522174.420593,13787
1659522174.464969,13813
1659522174.503541,13819
1659522174.542114,13843
1659522174.580687,13860
1659522174.62216,13885
1659522174.663635,13905
1659522174.70289,13904
1659522174.742145,13921
1659522174.7814,13947
1659522174.819973,13968
1659522174.858546,13987
1659522174.897118,14007
1659522174.939104,14032
1659522174.981091,14044
1659522175.020687,14067
1659522175.060284,14068
1659522175.09988,14090
1659522175.140331,14060
1659522175.18078,14051
1659522175.219353,14050
1659522175.257926,14072
1659522175.296498,14086
1659522175.338484,14108
1659522175.380471,14118
1659522175.422457,14132
1659522175.464443,14149
1659522175.504893,14161
1659522175.545343,14193
1659522175.584939,14201
1659522175.624536,14224
1659522175.664133,14231
1659522175.703047,14245
1659522175.741961,14256
1659522175.780874,14279
1659522175.821836,14295
1659522175.862799,14305
1659522175.902054,14321
1659522175.941309,14334
1659522175.980565,14341
1659522176.023063,14318
1659522176.065561,14283
1659522176.103792,14275
1659522176.142023,14286
1659522176.180254,14312
1659522176.221729,14321
1659522176.263203,14345
1659522176.302117,14344
1659522176.341031,14350
1659522176.379945,14368
1659522176.423637,14394
1659522176.46733,14416
1659522176.511023,14427
1659522176.544817,14448
1659522176.57861,14454
1659522176.623327,14482
1659522176.668044,14484
1659522176.712761,14486
1659522176.753211,14510
1659522176.793661,14525
1659522176.832575,14542
1659522176.871489,14531
1659522176.910403,14496
1659522176.949317,14440
1659522176.988231,14440
1659522177.027145,14425
1659522177.068619,14424
1659522177.110093,14433
1659522177.148666,14440
1659522177.187238,14428
1659522177.225811,14416
1659522177.267797,14419
1659522177.309783,14427
1659522177.348014,14444
1659522177.386245,14457
1659522177.424477,14465
1659522177.463049,14470
1659522177.501622,14469
1659522177.540195,14472
1659522177.582693,14475
1659522177.625191,14480
1659522177.663763,14489
1659522177.702336,14473
1659522177.740909,14370
1659522177.781358,14226
1659522177.821809,14155
1659522177.861064,14092
1659522177.900319,14057
1659522177.939574,14019
1659522177.981561,14007
1659522178.023547,13980
1659522178.068264,13951
1659522178.112981,13941
1659522178.157697,13944
1659522178.190979,13938
1659522178.224261,13937
1659522178.269319,13950
1659522178.314377,13949
1659522178.359436,13962
1659522178.397667,13984
1659522178.435898,14004
1659522178.474129,14037
1659522178.516627,14061
1659522178.559125,14018
1659522178.597698,13844
1659522178.636271,13698
1659522178.674843,13605
1659522178.715805,13543
1659522178.756767,13513
1659522178.79534,13489
1659522178.833913,13471
1659522178.872485,13450
1659522178.912423,13427
1659522178.952361,13423
1659522178.992299,13433
1659522179.033261,13450
1659522179.074223,13457
1659522179.113137,13469
1659522179.152051,13472
1659522179.190965,13497
1659522179.232951,13505
1659522179.274937,13533
1659522179.314193,13558
1659522179.353448,13565
1659522179.392703,13457
1659522179.431276,13290
1659522179.469848,13219
1659522179.508421,13215
1659522179.550919,13244
1659522179.593417,13263
1659522179.634379,13277
1659522179.675341,13275
1659522179.713914,13254
1659522179.752486,13258
1659522179.791059,13275
1659522179.835435,13305
1659522179.87981,13329
1659522179.924186,13356
1659522179.957467,13364
1659522179.990749,13382
1659522180.034442,13407
1659522180.078135,13427
1659522180.121828,13450
1659522180.155621,13448
1659522180.189415,13355
1659522180.234132,13140
1659522180.278849,13007
1659522180.323566,12948
1659522180.361797,12910
1659522180.400028,12911
1659522180.43826,12903
1659522180.480246,12884
1659522180.522232,12870
1659522180.561487,12864
1659522180.600742,12877
1659522180.639997,12908
1659522180.681472,12939
1659522180.722946,12966
1659522180.76186,13002
1659522180.800774,13034
1659522180.839688,13062
1659522180.87826,13085
1659522180.916833,13107
1659522180.955405,13135
1659522180.995855,13127
1659522181.036305,12983
1659522181.075561,12740
1659522181.114816,12587
1659522181.154071,12502
1659522181.196057,12451
1659522181.238044,12411
1659522181.276616,12386
1659522181.315189,12369
1659522181.353761,12336
1659522181.395747,12322
1659522181.437733,12334
1659522181.476989,12351
1659522181.516244,12361
1659522181.555499,12400
1659522181.597486,12405
1659522181.639472,12422
1659522181.683847,12452
1659522181.728223,12475
1659522181.772598,12519
1659522181.811854,12558
1659522181.851109,12606
1659522181.890364,12549
1659522181.931326,12345
1659522181.972288,12149
1659522182.010861,12060
1659522182.049433,12032
1659522182.088006,12016
1659522182.130504,12049
1659522182.173002,12049
1659522182.211234,12047
1659522182.249465,12048
1659522182.287696,12084
1659522182.32661,12114
1659522182.365524,12167
1659522182.404438,12218
1659522182.446424,12263
1659522182.48841,12315
1659522182.526983,12351
1659522182.565555,12398
1659522182.604128,12462
1659522182.646114,12512
1659522182.6881,12564
1659522182.727355,12590
1659522182.766611,12533
1659522182.805866,12324
1659522182.844439,12124
1659522182.883011,11992
1659522182.921584,11890
1659522182.962034,11834
1659522183.002484,11804
1659522183.041739,11792
1659522183.080994,11772
1659522183.12025,11769
1659522183.161212,11787
1659522183.202174,11830
1659522183.246208,11888
1659522183.290242,11956
1659522183.334276,12017
1659522183.367046,12073
1659522183.399816,12144
1659522183.444533,12211
1659522183.489249,12271
1659522183.533966,12331
1659522183.56776,12401
1659522183.601554,12468
1659522183.645588,12496
1659522183.689622,12396
1659522183.733656,12198
1659522183.77257,12108
1659522183.811484,12114
1659522183.850398,12151
1659522183.891872,12194
1659522183.933346,12220
1659522183.972602,12200
1659522184.011857,12170
1659522184.051112,12159
1659522184.092586,12178
1659522184.13406,12226
1659522184.172974,12266
1659522184.211888,12303
1659522184.250802,12350
1659522184.289033,12410
1659522184.327265,12482
1659522184.365496,12553
1659522184.407994,12612
1659522184.450492,12678
1659522184.489065,12745
1659522184.527637,12790
1659522184.56621,12780
1659522184.607684,12647
1659522184.649158,12462
1659522184.688413,12381
1659522184.727669,12372
1659522184.766924,12370
1659522184.808654,12387
1659522184.850384,12411
1659522184.892114,12403
1659522184.933844,12409
1659522184.975318,12419
1659522185.016793,12452
1659522185.056048,12482
1659522185.095303,12503
1659522185.134558,12537
1659522185.173131,12586
1659522185.211704,12627
1659522185.250276,12654
1659522185.291238,12696
1659522185.3322,12740
1659522185.371456,12780
1659522185.410711,12816
1659522185.449966,12777
1659522185.490416,12602
1659522185.530866,12416
1659522185.570122,12322
1659522185.609377,12280
1659522185.648632,12258
1659522185.690618,12255
1659522185.732604,12254
1659522185.771177,12249
1659522185.80975,12229
1659522185.848322,12234
1659522185.889284,12268
1659522185.930246,12307
1659522185.969843,12322
1659522186.009439,12363
1659522186.049036,12392
1659522186.093412,12422
1659522186.137787,12454
1659522186.182163,12484
1659522186.222613,12521
1659522186.263063,12562
1659522186.301977,12598
1659522186.340891,12611
1659522186.379805,12489
1659522186.418036,12211
1659522186.456267,12013
1659522186.494498,11924
1659522186.535973,11874
1659522186.577447,11850
1659522186.61636,11850
1659522186.655274,11842
1659522186.694188,11813
1659522186.735151,11793
1659522186.776113,11801
1659522186.814685,11843
1659522186.853258,11895
1659522186.89183,11950
1659522186.931086,12023
1659522186.970341,12090
1659522187.009596,12164
1659522187.051582,12220
1659522187.093568,12296
1659522187.132141,12361
1659522187.170714,12437
1659522187.209286,12512
1659522187.251272,12548
1659522187.293258,12448
1659522187.331831,12207
1659522187.370404,12029
1659522187.408976,11956
1659522187.451474,11934
1659522187.493973,11959
1659522187.538348,11992
1659522187.582724,12030
1659522187.627099,12055
1659522187.659869,12093
1659522187.692638,12129
1659522187.736673,12178
1659522187.780707,12230
1659522187.824741,12293
1659522187.863996,12351
1659522187.903252,12410
1659522187.942507,12454
1659522187.985005,12507
1659522188.027503,12563
1659522188.066076,12619
1659522188.104648,12690
1659522188.143221,12738
1659522188.184695,12736
1659522188.226169,12597
1659522188.265424,12399
1659522188.30468,12311
1659522188.343935,12292
1659522188.382508,12307
1659522188.42108,12323
1659522188.459653,12359
1659522188.501639,12381
1659522188.543625,12399
1659522188.582539,12438
1659522188.621453,12484
1659522188.660367,12552
1659522188.701329,12604
1659522188.742291,12667
1659522188.780522,12708
1659522188.818753,12772
1659522188.856985,12818
1659522188.896581,12866
1659522188.936178,12920
1659522188.975775,12964
1659522189.017249,13015
1659522189.058723,12965
1659522189.102757,12797
1659522189.146791,12658
1659522189.190825,12607
1659522189.223595,12605
1659522189.256365,12607
1659522189.301081,12637
1659522189.345798,12659
1659522189.390515,12668
1659522189.423797,12671
1659522189.457079,12698
1659522189.501113,12729
1659522189.545147,12786
1659522189.589181,12832
1659522189.628095,12894
1659522189.667009,12946
1659522189.705923,12990
1659522189.746373,13029
1659522189.786823,13084
1659522189.826078,13132
1659522189.865334,13192
1659522189.904589,13221
1659522189.943844,13141
1659522189.9831,12972
1659522190.022355,12832
1659522190.062805,12752
1659522190.103255,12681
1659522190.14251,12626
1659522190.181766,12610
1659522190.221021,12587
1659522190.259935,12561
1659522190.298849,12549
1659522190.337763,12561
1659522190.379237,12582
1659522190.420711,12609
1659522190.462185,12636
1659522190.503659,12658
1659522190.543256,12704
1659522190.582852,12750
1659522190.622449,12815
1659522190.666483,12866
1659522190.710517,12912
1659522190.754551,12949
1659522190.788345,12871
1659522190.822139,12678
1659522190.866856,12543
1659522190.911573,12511
1659522190.95629,12483
1659522190.988547,12475
1659522191.020805,12502
1659522191.064839,12513
1659522191.108873,12530
1659522191.152907,12549
1659522191.192504,12592
1659522191.232101,12634
1659522191.271697,12701
1659522191.313684,12758
1659522191.355669,12804
1659522191.394583,12848
1659522191.433497,12895
1659522191.472411,12945
1659522191.514398,12988
1659522191.556384,13035
1659522191.595298,13078
1659522191.634212,13038
1659522191.673126,12837
1659522191.711357,12657
1659522191.749588,12571
1659522191.787819,12543
1659522191.830317,12532
1659522191.872815,12542
1659522191.911047,12547
1659522191.949278,12557
1659522191.987509,12547
1659522192.028471,12573
1659522192.069433,12614
1659522192.108006,12661
1659522192.146579,12697
1659522192.185151,12742
1659522192.227137,12773
1659522192.269123,12811
1659522192.307696,12869
1659522192.346268,12906
1659522192.384841,12950
1659522192.426315,12968
1659522192.467789,12886
1659522192.506703,12655
1659522192.545617,12478
1659522192.584531,12384
1659522192.628907,12336
1659522192.673282,12315
1659522192.717658,12322
1659522192.760156,12325
1659522192.802654,12306
1659522192.841568,12279
1659522192.880482,12274
1659522192.919396,12287
1659522192.959846,12329
1659522193.000296,12360
1659522193.038868,12395
1659522193.077441,12429
1659522193.116014,12491
1659522193.155269,12536
1659522193.194524,12587
1659522193.233779,12655
1659522193.275254,12712
1659522193.316728,12650
1659522193.354959,12449
1659522193.39319,12273
1659522193.431422,12174
1659522193.473408,12123
1659522193.515394,12086
1659522193.55499,12093
1659522193.594587,12118
1659522193.634184,12112
1659522193.672756,12111
1659522193.711329,12138
1659522193.749901,12175
1659522193.791888,12216
1659522193.833874,12255
1659522193.873129,12279
1659522193.912384,12316
1659522193.951639,12348
1659522193.993626,12358
1659522194.035612,12391
1659522194.079987,12419
1659522194.124363,12452
1659522194.168738,12391
1659522194.20202,12156
1659522194.235302,11849
1659522194.278995,11674
1659522194.322687,11609
1659522194.36638,11591
1659522194.400174,11605
1659522194.433968,11637
1659522194.478343,11650
1659522194.522719,11661
1659522194.567094,11703
1659522194.605667,11762
1659522194.644239,11818
1659522194.682812,11902
1659522194.724286,11981
1659522194.76576,12080
1659522194.805016,12171
1659522194.844271,12261
1659522194.883526,12351
1659522194.925,12429
1659522194.966474,12470
1659522195.005047,12355
1659522195.043619,12149
1659522195.082192,12018
1659522195.121106,11993
1659522195.16002,11997
1659522195.198934,12046
1659522195.239384,12107
1659522195.279834,12129
1659522195.318407,12140
1659522195.356979,12171
1659522195.395552,12230
1659522195.434124,12300
1659522195.472697,12380
1659522195.51127,12452
1659522195.552743,12514
1659522195.594218,12577
1659522195.635692,12624
1659522195.677166,12685
1659522195.716421,12725
1659522195.755676,12764
1659522195.794932,12701
1659522195.839307,12455
1659522195.883683,12189
1659522195.928058,12097
1659522195.96134,12058
1659522195.994622,12051
1659522196.03968,12075
1659522196.084738,12088
1659522196.129797,12096
1659522196.162054,12106
1659522196.194312,12146
1659522196.238004,12201
1659522196.281697,12254
1659522196.32539,12308
1659522196.364645,12345
1659522196.403901,12385
1659522196.443156,12415
1659522196.485142,12461
1659522196.527128,12509
1659522196.565701,12553
1659522196.604274,12587
1659522196.642846,12484
1659522196.68176,12219
1659522196.720674,12044
1659522196.759588,11999
1659522196.801062,11972
1659522196.842536,11973
1659522196.881791,11970
1659522196.921047,11961
1659522196.960302,11970
1659522197.002288,11977
1659522197.044274,12014
1659522197.083188,12061
1659522197.122102,12109
1659522197.161016,12143
1659522197.20249,12209
1659522197.243964,12257
1659522197.283561,12300
1659522197.323158,12363
1659522197.362754,12414
1659522197.404228,12486
1659522197.445702,12499
1659522197.483933,12359
1659522197.522165,12093
1659522197.560396,11979
1659522197.604772,11937
1659522197.649147,11944
1659522197.693523,11974
1659522197.734997,11968
1659522197.776471,11954
1659522197.815385,11942
1659522197.854299,11973
1659522197.893213,12010
1659522197.934687,12045
1659522197.976161,12063
1659522198.015416,12095
1659522198.054671,12159
1659522198.093927,12231
1659522198.132499,12306
1659522198.171072,12360
1659522198.209645,12434
1659522198.251631,12490
1659522198.293617,12489
1659522198.33253,12327
1659522198.371444,12194
1659522198.410358,12152
1659522198.448931,12183
1659522198.487504,12246
1659522198.526076,12297
1659522198.567038,12333
1659522198.608,12366
1659522198.646573,12380
1659522198.685146,12403
1659522198.723718,12457
1659522198.765704,12494
1659522198.80769,12542
1659522198.84558,12574
1659522198.88347,12597
1659522198.92136,12623
1659522198.963346,12651
1659522199.005332,12683
1659522199.044588,12715
1659522199.083843,12740
1659522199.123098,12627
1659522199.164572,12474
1659522199.206046,12391
1659522199.250763,12391
1659522199.29548,12443
1659522199.340197,12488
1659522199.379452,12518
1659522199.418708,12525
1659522199.457963,12542
1659522199.498925,12576
1659522199.539887,12638
1659522199.578801,12682
1659522199.617715,12738
1659522199.656629,12809
1659522199.699127,12860
1659522199.741625,12922
1659522199.780198,12969
1659522199.81877,13019
1659522199.857343,13059
1659522199.896257,13055
1659522199.935171,12925
1659522199.974085,12801
1659522200.015559,12773
1659522200.057033,12757
1659522200.095264,12778
1659522200.133495,12801
1659522200.171727,12812
1659522200.214225,12809
1659522200.256723,12827
1659522200.295978,12832
1659522200.335233,12850
1659522200.374489,12870
1659522200.413061,12880
1659522200.451634,12904
1659522200.490206,12913
1659522200.532193,12938
1659522200.574179,12965
1659522200.616677,12992
1659522200.659175,12943
1659522200.697406,12739
1659522200.735637,12492
1659522200.773869,12374
1659522200.817903,12343
1659522200.861937,12323
1659522200.905971,12330
1659522200.939253,12336
1659522200.972535,12331
1659522201.016569,12315
1659522201.060603,12355
1659522201.104637,12383
1659522201.143893,12434
1659522201.183148,12460
1659522201.222403,12475
1659522201.264389,12493
1659522201.306375,12501
1659522201.344607,12547
1659522201.382838,12595
1659522201.421069,12629
1659522201.459983,12483
1659522201.498897,12214
1659522201.537811,12026
1659522201.580309,11990
1659522201.622807,11982
1659522201.66138,11983
1659522201.699952,12009
1659522201.738525,12010
1659522201.779487,12000
1659522201.820449,11999
1659522201.859363,12037
1659522201.898277,12068
1659522201.937191,12112
1659522201.978665,12159
1659522202.020139,12198
1659522202.05837,12238
1659522202.096601,12281
1659522202.134833,12324
1659522202.176307,12364
1659522202.217781,12406
1659522202.256695,12317
1659522202.295609,12015
1659522202.334523,11720
1659522202.378898,11571
1659522202.423274,11500
1659522202.467649,11454
1659522202.501443,11455
1659522202.535237,11472
1659522202.579954,11479
1659522202.624671,11477
1659522202.669388,11489
1659522202.702669,11546
1659522202.735951,11595
1659522202.780326,11661
1659522202.824702,11710
1659522202.869077,11768
1659522202.90765,11822
1659522202.946223,11873
1659522202.984795,11927
1659522203.026781,11971
1659522203.068768,12022
1659522203.107682,12001
1659522203.146595,11733
1659522203.185509,11282
1659522203.226984,11022
1659522203.268457,10892
1659522203.30703,10774
1659522203.345603,10698
1659522203.384175,10678
1659522203.423089,10656
1659522203.462003,10662
1659522203.500917,10710
1659522203.543415,10786
1659522203.585913,10896
1659522203.624827,11001
1659522203.663741,11117
1659522203.702655,11204
1659522203.744129,11299
1659522203.785603,11382
1659522203.824859,11466
1659522203.864114,11544
1659522203.903369,11611
1659522203.945355,11676
1659522203.987341,11594
1659522204.025231,11300
1659522204.063121,11024
1659522204.101011,10911
1659522204.142485,10841
1659522204.183959,10812
1659522204.227993,10861
1659522204.272028,10907
1659522204.316062,10941
1659522204.354635,10950
1659522204.393207,10983
1659522204.43178,11035
1659522204.473254,11106
1659522204.514728,11174
1659522204.553983,11235
1659522204.593238,11291
1659522204.632494,11335
1659522204.670725,11397
1659522204.708956,11450
1659522204.747187,11516
1659522204.789174,11565
1659522204.83116,11625
1659522204.870756,11599
1659522204.910353,11315
1659522204.94995,10991
1659522204.988181,10838
1659522205.026412,10790
1659522205.064643,10755
1659522205.106117,10781
1659522205.147592,10803
1659522205.186164,10828
1659522205.224737,10863
1659522205.263309,10925
1659522205.304783,11019
1659522205.346257,11131
1659522205.385171,11214
1659522205.424085,11299
1659522205.462999,11412
1659522205.503961,11493
1659522205.544923,11565
1659522205.589299,11652
1659522205.633674,11733
1659522205.67805,11817
1659522205.711844,11892
1659522205.745637,11964
1659522205.790696,11906
1659522205.835754,11675
1659522205.880812,11453
1659522205.919044,11371
1659522205.957275,11349
1659522205.995506,11338
1659522206.035103,11374
1659522206.074699,11384
1659522206.114296,11379
1659522206.152869,11377
1659522206.191441,11418
1659522206.230014,11474
1659522206.270464,11552
1659522206.310914,11645
1659522206.349828,11712
1659522206.388741,11795
1659522206.427655,11859
1659522206.470154,11924
1659522206.512652,12010
1659522206.550883,12060
1659522206.589114,12124
1659522206.627346,12189
1659522206.668308,12184
1659522206.70927,11967
1659522206.748525,11718
1659522206.78778,11585
1659522206.827035,11529
1659522206.86851,11479
1659522206.909984,11464
1659522206.948898,11482
1659522206.987812,11488
1659522207.026726,11503
1659522207.071784,11534
1659522207.116842,11587
1659522207.1619,11651
1659522207.202862,11731
1659522207.243824,11817
1659522207.282397,11887
1659522207.32097,11956
1659522207.359542,12019
1659522207.40204,12075
1659522207.444538,12137
1659522207.48277,12209
1659522207.521001,12287
1659522207.559232,12274
1659522207.597805,12115
1659522207.636377,11888
1659522207.67495,11771
1659522207.716424,11691
1659522207.757898,11638
1659522207.796812,11631
1659522207.835726,11637
1659522207.87464,11616
1659522207.913213,11583
1659522207.951785,11570
1659522207.990358,11555
1659522208.031832,11594
1659522208.073306,11597
1659522208.112561,11619
1659522208.151816,11642
1659522208.191072,11656
1659522208.232546,11678
1659522208.27402,11723
1659522208.312934,11777
1659522208.351848,11828
1659522208.390762,11832
1659522208.432236,11621
1659522208.47371,11349
1659522208.517403,11212
1659522208.561095,11167
1659522208.604789,11154
1659522208.638582,11182
1659522208.672376,11212
1659522208.716751,11210
1659522208.761127,11202
1659522208.805502,11228
1659522208.844075,11282
1659522208.882648,11339
1659522208.92122,11384
1659522208.963206,11431
1659522209.005193,11460
1659522209.044789,11489
1659522209.084386,11508
1659522209.123982,11531
1659522209.165457,11570
1659522209.206931,11613
1659522209.245845,11579
1659522209.284759,11330
1659522209.323672,10995
1659522209.365659,10811
1659522209.407645,10733
1659522209.446217,10699
1659522209.48479,10725
1659522209.523362,10773
1659522209.561594,10800
1659522209.599825,10814
1659522209.638056,10864
1659522209.681066,10906
1659522209.724077,10979
1659522209.762649,11038
1659522209.801222,11100
1659522209.839794,11155
1659522209.878367,11205
1659522209.916939,11253
1659522209.955512,11309
1659522209.996986,11379
1659522210.03846,11440
1659522210.080446,11436
1659522210.122432,11258
1659522210.161005,10955
1659522210.199578,10761
1659522210.23815,10652
1659522210.280136,10573
1659522210.322122,10537
1659522210.361036,10558
1659522210.39995,10546
1659522210.438864,10528
1659522210.482898,10520
1659522210.526932,10528
1659522210.570967,10545
1659522210.605273,10591
1659522210.639578,10650
1659522210.683954,10695
1659522210.728329,10750
1659522210.772705,10792
1659522210.810595,10870
1659522210.848485,10962
1659522210.886374,11049
1659522210.927849,11136
1659522210.969323,11090
1659522211.007895,10854
1659522211.046468,10648
1659522211.085041,10574
1659522211.126515,10528
1659522211.167989,10533
1659522211.207244,10575
1659522211.246499,10611
1659522211.285754,10634
1659522211.324668,10652
1659522211.363582,10694
1659522211.402496,10754
1659522211.443458,10815
1659522211.484421,10888
1659522211.524017,10955
1659522211.563614,11010
1659522211.60321,11066
1659522211.645196,11135
1659522211.687183,11195
1659522211.725414,11260
1659522211.763645,11329
1659522211.801876,11281
1659522211.846593,11083
1659522211.89131,10932
1659522211.936027,10877
1659522211.969309,10864
1659522212.00259,10868
1659522212.046625,10899
1659522212.090659,10942
1659522212.134693,10942
1659522212.173607,10967
1659522212.212521,11009
1659522212.251435,11082
1659522212.293421,11148
1659522212.335407,11215
1659522212.374321,11281
1659522212.413235,11332
1659522212.452149,11401
1659522212.494135,11469
1659522212.536121,11525
1659522212.575377,11591
1659522212.614632,11655
1659522212.653887,11654
1659522212.692801,11522
1659522212.731715,11334
1659522212.770629,11243
1659522212.811591,11206
1659522212.852553,11183
1659522212.891467,11194
1659522212.930381,11229
1659522212.969295,11234
1659522213.011281,11238
1659522213.053267,11270
1659522213.09184,11339
1659522213.130412,11397
1659522213.168985,11455
1659522213.209947,11496
1659522213.250909,11564
1659522213.289823,11608
1659522213.328737,11664
1659522213.367651,11718
1659522213.409125,11792
1659522213.450599,11866
1659522213.489513,11933
1659522213.528427,11947
1659522213.567341,11823
1659522213.611716,11670
1659522213.656092,11594
1659522213.700467,11581
1659522213.741429,11583
1659522213.782392,11604
1659522213.821305,11640
1659522213.860219,11677
1659522213.899133,11717
1659522213.941119,11795
1659522213.983105,11883
1659522214.021678,11956
1659522214.060251,12020
1659522214.098823,12078
1659522214.137054,12121
1659522214.175286,12146
1659522214.213517,12168
1659522214.254991,12208
1659522214.296465,12255
1659522214.334696,12287
1659522214.372928,12303
1659522214.411159,12191
1659522214.450414,11943
1659522214.48967,11759
1659522214.528925,11656
1659522214.570911,11599
1659522214.612897,11569
1659522214.651128,11592
1659522214.689359,11578
1659522214.727591,11561
1659522214.769065,11566
1659522214.810539,11583
1659522214.850477,11615
1659522214.890415,11662
1659522214.930353,11710
1659522214.971827,11762
1659522215.013301,11806
1659522215.057335,11847
1659522215.101369,11888
1659522215.145404,11950
1659522215.178685,12007
1659522215.211967,12054
1659522215.256001,12036
1659522215.300035,11850
1659522215.344069,11646
1659522215.377351,11556
1659522215.410633,11512
1659522215.45535,11468
1659522215.500067,11473
1659522215.544784,11477
1659522215.583698,11471
1659522215.622612,11456
1659522215.661525,11473
1659522215.702487,11515
1659522215.743449,11567
1659522215.783387,11639
1659522215.823326,11708
1659522215.863264,11792
1659522215.904738,11877
1659522215.946212,11974
1659522215.984784,12049
1659522216.023357,12124
1659522216.061929,12185
1659522216.101185,12207
1659522216.14044,12074
1659522216.179695,11821
1659522216.221681,11651
1659522216.263668,11578
1659522216.301899,11555
1659522216.34013,11596
1659522216.378361,11670
1659522216.419835,11722
1659522216.461309,11715
1659522216.502784,11719
1659522216.544258,11739
1659522216.583172,11761
1659522216.622086,11791
1659522216.661,11835
1659522216.699572,11881
1659522216.738145,11935
1659522216.776717,11987
1659522216.818703,12030
1659522216.860689,12091
1659522216.899262,12130
1659522216.937835,12092
1659522216.976407,11863
1659522217.018393,11612
1659522217.06038,11473
1659522217.098952,11364
1659522217.137525,11299
1659522217.176097,11312
1659522217.218083,11330
1659522217.260069,11339
1659522217.303762,11364
1659522217.347455,11436
1659522217.391148,11535
1659522217.424942,11614
1659522217.458735,11661
1659522217.502769,11653
1659522217.546804,11628
1659522217.590838,11598
1659522217.629411,11581
1659522217.667983,11575
1659522217.706556,11584
1659522217.74803,11584
1659522217.789504,11496
1659522217.828076,11199
1659522217.866649,10902
1659522217.905222,10767
1659522217.947208,10707
1659522217.989194,10676
1659522218.028449,10686
1659522218.067704,10684
1659522218.10696,10669
1659522218.146215,10662
1659522218.18547,10680
1659522218.224726,10713
1659522218.2662,10753
1659522218.307674,10793
1659522218.346246,10845
1659522218.384819,10910
1659522218.423392,10938
1659522218.466402,10978
1659522218.509412,11021
1659522218.547643,11077
1659522218.585874,11090
1659522218.624106,10937
1659522218.665068,10692
1659522218.70603,10573
1659522218.745285,10553
1659522218.78454,10544
1659522218.823796,10570
1659522218.865782,10611
1659522218.907768,10616
1659522218.94634,10612
1659522218.984913,10619
1659522219.023486,10652
1659522219.065984,10691
1659522219.108482,10756
1659522219.147396,10811
1659522219.18631,10880
1659522219.225224,10934
1659522219.269599,10981
1659522219.313975,11042
1659522219.35835,11086
1659522219.400848,11045
1659522219.443347,10791
1659522219.481919,10546
1659522219.520492,10417
1659522219.559064,10359
1659522219.596954,10299
1659522219.634844,10298
1659522219.672734,10316
1659522219.71472,10311
1659522219.756706,10318
1659522219.794938,10339
1659522219.833169,10389
1659522219.8714,10456
1659522219.912874,10549
1659522219.954348,10603
1659522219.993262,10667
1659522220.032176,10734
1659522220.07109,10798
1659522220.109663,10861
1659522220.148235,10922
1659522220.186808,10905
1659522220.22777,10699
1659522220.268732,10506
1659522220.308329,10406
1659522220.347925,10357
1659522220.387522,10351
1659522220.428996,10381
1659522220.47047,10437
1659522220.509043,10452
1659522220.547615,10492
1659522220.586188,10547
1659522220.627662,10609
1659522220.669136,10670
1659522220.708733,10753
1659522220.748329,10828
1659522220.787926,10900
1659522220.828376,10971
1659522220.868826,11030
1659522220.913543,11104
1659522220.95826,11190
1659522221.002977,11246
1659522221.041549,11207
1659522221.080122,11025
1659522221.118694,10870
1659522221.159657,10819
1659522221.200619,10809
1659522221.239874,10804
1659522221.279129,10833
1659522221.318384,10851
1659522221.36037,10839
1659522221.402357,10840
1659522221.440929,10877
1659522221.479502,10923
1659522221.518074,10987
1659522221.55733,11025
1659522221.596585,11082
1659522221.63584,11147
1659522221.674413,11217
1659522221.712986,11269
1659522221.751558,11312
1659522221.794056,11360
1659522221.836554,11300
1659522221.875127,11087
1659522221.9137,10867
1659522221.952272,10763
1659522221.993746,10722
1659522222.03522,10708
1659522222.073793,10748
1659522222.112365,10791
1659522222.150938,10813
1659522222.195655,10813
1659522222.240372,10844
1659522222.285089,10881
1659522222.327587,10915
1659522222.370085,10957
1659522222.408658,10999
1659522222.44723,11024
1659522222.485803,11066
1659522222.527277,11105
1659522222.568751,11150
1659522222.608006,11207
1659522222.647262,11266
1659522222.686517,11276
1659522222.72509,11114
1659522222.763662,10840
1659522222.802235,10689
1659522222.844221,10613
1659522222.886207,10574
1659522222.924438,10597
1659522222.962669,10644
1659522223.000901,10667
1659522223.039814,10685
1659522223.078728,10725
1659522223.117642,10776
1659522223.158092,10846
1659522223.198542,10911
1659522223.237798,10977
1659522223.277053,11059
1659522223.316308,11122
1659522223.357782,11183
1659522223.399256,11237
1659522223.437488,11303
1659522223.475719,11364
1659522223.51395,11440
1659522223.555424,11377
1659522223.596898,11128
1659522223.641274,10906
1659522223.685649,10810
1659522223.730025,10779
1659522223.763819,10771
1659522223.797612,10804
1659522223.841988,10804
1659522223.886364,10800
1659522223.930739,10802
1659522223.969653,10838
1659522224.008567,10889
1659522224.047481,10941
1659522224.088443,11011
1659522224.129405,11065
1659522224.168319,11109
1659522224.207233,11161
1659522224.246147,11216
1659522224.285402,11273
1659522224.324657,11335
1659522224.363913,11404
1659522224.404363,11450
1659522224.444813,11370
1659522224.483727,11065
1659522224.522641,10818
1659522224.561555,10724
1659522224.60081,10658
1659522224.640065,10632
1659522224.679321,10648
1659522224.721307,10691
1659522224.763293,10681
1659522224.802548,10691
1659522224.841803,10716
1659522224.881059,10781
1659522224.923045,10869
1659522224.965031,10949
1659522225.003262,11014
1659522225.041493,11083
1659522225.079725,11149
1659522225.122223,11198
1659522225.164721,11262
1659522225.209438,11340
1659522225.254155,11411
1659522225.298872,11482
1659522225.330617,11498
1659522225.362363,11329
1659522225.406055,11100
1659522225.449749,10987
1659522225.493441,10954
1659522225.527747,10916
1659522225.562053,10932
1659522225.606428,10968
1659522225.650804,11002
1659522225.695179,11003
1659522225.733752,11022
1659522225.772325,11061
1659522225.810897,11115
1659522225.852883,11195
1659522225.894869,11268
1659522225.933783,11347
1659522225.972697,11420
1659522226.011611,11491
1659522226.049842,11555
1659522226.088074,11629
1659522226.126305,11702
1659522226.168803,11759
1659522226.211301,11694
1659522226.249532,11459
1659522226.287764,11284
1659522226.325995,11237
1659522226.366957,11223
1659522226.407919,11241
1659522226.446491,11297
1659522226.485064,11323
1659522226.523637,11334
1659522226.566135,11359
1659522226.608633,11405
1659522226.646864,11465
1659522226.685096,11534
1659522226.723327,11597
1659522226.764801,11660
1659522226.806275,11732
1659522226.845189,11788
1659522226.884103,11853
1659522226.923017,11908
1659522226.967051,11958
1659522227.011085,12020
1659522227.055119,12028
1659522227.088913,11840
1659522227.122707,11578
1659522227.167765,11431
1659522227.212823,11372
1659522227.257881,11340
1659522227.296113,11345
1659522227.334344,11393
1659522227.372575,11423
1659522227.411489,11445
1659522227.450403,11483
1659522227.489317,11550
1659522227.531303,11609
1659522227.573289,11679
1659522227.612203,11754
1659522227.651117,11802
1659522227.690031,11856
1659522227.728604,11924
1659522227.767176,11969
1659522227.805749,12035
1659522227.847735,12107
1659522227.889721,12179
1659522227.928635,12189
1659522227.967549,12074
1659522228.006463,11832
1659522228.048449,11684
1659522228.090435,11626
1659522228.132421,11595
1659522228.174407,11609
1659522228.214004,11633
1659522228.253601,11644
1659522228.293197,11652
1659522228.33689,11679
1659522228.380583,11733
1659522228.424276,11799
1659522228.458582,11863
1659522228.492887,11930
1659522228.536922,11989
1659522228.580956,12050
1659522228.62499,12095
1659522228.663563,12145
1659522228.702135,12203
1659522228.740708,12249
1659522228.78167,12300
1659522228.822632,12276
1659522228.861887,12096
1659522228.901142,11872
1659522228.940398,11753
1659522228.981872,11709
1659522229.023346,11693
1659522229.06226,11708
1659522229.101174,11725
1659522229.140088,11730
1659522229.179002,11721
1659522229.217916,11737
1659522229.25683,11765
1659522229.297791,11818
1659522229.338754,11870
1659522229.377668,11930
1659522229.416581,11975
1659522229.455495,12017
1659522229.497482,12047
1659522229.539468,12088
1659522229.577358,12133
1659522229.615247,12178
1659522229.653137,12216
1659522229.694611,12122
1659522229.736085,11843
1659522229.774658,11600
1659522229.813231,11483
1659522229.851803,11425
1659522229.895838,11379
1659522229.939872,11390
1659522229.983906,11405
1659522230.017699,11393
1659522230.051493,11399
1659522230.096551,11438
1659522230.14161,11486
1659522230.186668,11538
1659522230.218926,11597
1659522230.251183,11646
1659522230.2959,11705
1659522230.340617,11759
1659522230.385334,11813
1659522230.428344,11869
1659522230.471354,11919
1659522230.509927,11978
1659522230.548499,12013
1659522230.587072,11889
1659522230.625645,11624
1659522230.664217,11457
1659522230.70279,11366
1659522230.744264,11325
1659522230.785738,11344
1659522230.824652,11397
1659522230.863566,11428
1659522230.90248,11458
1659522230.943954,11470
1659522230.985428,11506
1659522231.024342,11552
1659522231.063256,11613
1659522231.10217,11684
1659522231.140742,11725
1659522231.179315,11777
1659522231.217888,11828
1659522231.259874,11886
1659522231.30186,11945
1659522231.341115,12019
1659522231.38037,12086
1659522231.419626,12105
1659522231.4611,11958
1659522231.502574,11723
1659522231.541488,11600
1659522231.580402,11563
1659522231.619316,11552
1659522231.661302,11564
1659522231.703288,11580
1659522231.747663,11575
1659522231.792039,11566
1659522231.836415,11587
1659522231.868672,11630
1659522231.90093,11681
1659522231.945305,11727
1659522231.989681,11775
1659522232.034056,11833
1659522232.072288,11889
1659522232.110519,11933
1659522232.14875,11986
1659522232.186384,12054
1659522232.224018,12110
1659522232.261652,12068
1659522232.299286,11821
1659522232.344002,11570
1659522232.38872,11459
1659522232.433436,11404
1659522232.474398,11347
1659522232.515361,11340
1659522232.554616,11356
1659522232.593871,11343
1659522232.633126,11339
1659522232.675112,11331
1659522232.717099,11358
1659522232.75533,11413
1659522232.793561,11466
1659522232.831792,11535
1659522232.870023,11593
1659522232.908255,11668
1659522232.946486,11718
1659522232.988472,11806
1659522233.030458,11867
1659522233.069372,11936
1659522233.108286,11986
1659522233.1472,11866
1659522233.18509,11626
1659522233.22298,11446
1659522233.26087,11383
1659522233.302344,11331
1659522233.343818,11328
1659522233.383073,11364
1659522233.422328,11402
1659522233.461584,11436
1659522233.503058,11470
1659522233.544532,11515
1659522233.583787,11570
1659522233.623043,11621
1659522233.662298,11687
1659522233.704284,11746
1659522233.74627,11799
1659522233.784501,11854
1659522233.822732,11925
1659522233.860964,11977
1659522233.903462,12028
1659522233.94596,12032
1659522233.991018,11875
1659522234.036077,11629
1659522234.081135,11476
1659522234.113392,11421
1659522234.14565,11410
1659522234.189684,11458
1659522234.233718,11520
1659522234.277753,11561
1659522234.317008,11570
1659522234.356263,11606
1659522234.395519,11678
1659522234.436993,11764
1659522234.478467,11864
1659522234.517039,11952
1659522234.555612,12039
1659522234.594184,12110
1659522234.636683,12175
1659522234.679181,12224
1659522234.717753,12268
1659522234.756326,12323
1659522234.794899,12327
1659522234.833812,12146
1659522234.872726,11855
1659522234.91164,11640
1659522234.954139,11542
1659522234.996637,11461
1659522235.034527,11419
1659522235.072416,11415
1659522235.110306,11361
1659522235.148879,11255
1659522235.187452,11169
1659522235.226024,11086
1659522235.266986,11026
1659522235.307948,10997
1659522235.349934,10976
1659522235.39192,10978
1659522235.430152,10994
1659522235.468383,11028
1659522235.506614,11070
1659522235.551672,11129
1659522235.596731,11184
1659522235.641789,11184
1659522235.674559,10950
1659522235.707328,10554
1659522235.751362,10288
1659522235.795397,10194
1659522235.839431,10152
1659522235.873224,10158
1659522235.907018,10188
1659522235.951735,10139
1659522235.996452,10071
1659522236.041169,10028
1659522236.0794,10011
1659522236.117631,10023
1659522236.155863,10040
1659522236.197337,10074
1659522236.238811,10126
1659522236.278066,10209
1659522236.317321,10295
1659522236.356577,10400
1659522236.397027,10518
1659522236.437477,10576
1659522236.476391,10451
1659522236.515305,10245
1659522236.554219,10160
1659522236.592791,10136
1659522236.631364,10122
1659522236.669936,10167
1659522236.711922,10247
1659522236.753909,10301
1659522236.793164,10282
1659522236.832419,10255
1659522236.871674,10208
1659522236.913148,10179
1659522236.954623,10163
1659522236.993536,10151
1659522237.03245,10150
1659522237.071364,10134
1659522237.11335,10129
1659522237.155337,10130
1659522237.194592,10144
1659522237.233847,10101
1659522237.273103,9869
1659522237.317137,9495
1659522237.361171,9218
1659522237.405205,9062
1659522237.443778,8945
1659522237.48235,8898
1659522237.520923,8896
1659522237.560178,8912
1659522237.599433,8909
1659522237.638689,8911
1659522237.67692,8948
1659522237.715151,8990
1659522237.753382,9036
1659522237.794857,9089
1659522237.836331,9149
1659522237.876269,9218
1659522237.916207,9306
1659522237.956145,9385
1659522237.997107,9478
1659522238.038069,9559
1659522238.076641,9565
1659522238.115214,9432
1659522238.153787,9275
1659522238.196285,9210
1659522238.238783,9182
1659522238.282476,9172
1659522238.326169,9213
1659522238.369861,9265
1659522238.403143,9302
1659522238.436425,9330
1659522238.4808,9374
1659522238.525176,9426
1659522238.569551,9501
1659522238.602321,9584
1659522238.635091,9643
1659522238.678783,9713
1659522238.722476,9780
1659522238.766169,9858
1659522238.805766,9922
1659522238.845362,10014
1659522238.884959,10082
1659522238.926433,10077
1659522238.967907,9924
1659522239.006139,9721
1659522239.04437,9631
1659522239.082601,9592
1659522239.122198,9597
1659522239.161794,9636
1659522239.201391,9683
1659522239.243377,9711
1659522239.285363,9750
1659522239.323594,9814
1659522239.361826,9883
1659522239.400057,9970
1659522239.442555,10033
1659522239.485053,10108
1659522239.523626,10178
1659522239.562198,10258
1659522239.600771,10322
1659522239.639344,10383
1659522239.677916,10435
1659522239.716489,10392
1659522239.758987,10213
1659522239.801485,10023
1659522239.842959,9926
1659522239.884433,9892
1659522239.922664,9868
1659522239.960896,9903
1659522239.999127,9912
1659522240.041625,9903
1659522240.084123,9897
1659522240.123379,9921
1659522240.162634,9944
1659522240.201889,9993
1659522240.245923,10038
1659522240.289958,10072
1659522240.333992,10129
1659522240.367273,10181
1659522240.400555,10236
1659522240.445613,10288
1659522240.490671,10343
1659522240.53573,10305
1659522240.577716,10101
1659522240.619702,9893
1659522240.658274,9783
1659522240.696847,9715
1659522240.73542,9678
1659522240.774334,9669
1659522240.813248,9683
1659522240.852162,9682
1659522240.892612,9680
1659522240.933062,9694
1659522240.971634,9735
1659522241.010207,9788
1659522241.048779,9853
1659522241.088035,9913
1659522241.12729,9960
1659522241.166545,10011
1659522241.208019,10056
1659522241.249493,10122
1659522241.288407,10182
1659522241.327321,10189
1659522241.366235,10019
1659522241.408221,9817
1659522241.450207,9712
1659522241.489121,9666
1659522241.528035,9669
1659522241.566949,9690
1659522241.608423,9717
1659522241.649897,9720
1659522241.68847,9722
1659522241.727043,9733
1659522241.765615,9781
1659522241.806577,9813
1659522241.847539,9857
1659522241.891573,9912
1659522241.935608,9969
1659522241.979642,10022
1659522242.018556,10080
1659522242.05747,10138
1659522242.096384,10156
1659522242.13837,10014
1659522242.180356,9784
1659522242.218929,9631
1659522242.257501,9545
1659522242.296074,9476
1659522242.337548,9469
1659522242.379022,9445
1659522242.417936,9402
1659522242.45685,9381
1659522242.495764,9395
1659522242.535019,9428
1659522242.574274,9490
1659522242.61353,9574
1659522242.652444,9637
1659522242.691358,9719
1659522242.730272,9782
1659522242.774647,9855
1659522242.819023,9928
1659522242.863398,10001
1659522242.896168,10037
1659522242.928937,9926
1659522242.973313,9690
1659522243.017689,9533
1659522243.062064,9487
1659522243.100978,9439
1659522243.139892,9434
1659522243.178806,9472
1659522243.220792,9467
1659522243.262778,9457
1659522243.301351,9458
1659522243.339923,9491
1659522243.378496,9524
1659522243.420994,9575
1659522243.463492,9623
1659522243.502065,9651
1659522243.540637,9705
1659522243.57921,9737
1659522243.618124,9788
1659522243.657038,9836
1659522243.695952,9778
1659522243.738962,9571
1659522243.781972,9387
1659522243.820203,9291
1659522243.858435,9238
1659522243.896666,9227
1659522243.937628,9249
1659522243.97859,9278
1659522244.017845,9279
1659522244.057101,9284
1659522244.096356,9340
1659522244.13783,9396
1659522244.179304,9466
1659522244.217877,9540
1659522244.256449,9630
1659522244.295022,9703
1659522244.336496,9796
1659522244.37797,9867
1659522244.416201,9942
1659522244.454432,10034
1659522244.492664,9988
1659522244.536698,9771
1659522244.580732,9556
1659522244.624766,9435
1659522244.659072,9350
1659522244.693378,9328
1659522244.737753,9330
1659522244.782129,9349
1659522244.826504,9362
1659522244.865077,9347
1659522244.90365,9354
1659522244.942222,9392
1659522244.983696,9454
1659522245.02517,9512
1659522245.064084,9591
1659522245.102998,9675
1659522245.141912,9748
1659522245.182362,9821
1659522245.222812,9897
1659522245.261726,9979
1659522245.30064,9996
1659522245.339554,9880
1659522245.380772,9671
1659522245.42199,9550
1659522245.463208,9501
1659522245.504426,9464
1659522245.537708,9479
1659522245.57099,9500
1659522245.616048,9506
1659522245.661106,9498
1659522245.706164,9517
1659522245.744737,9577
1659522245.783309,9630
1659522245.821882,9701
1659522245.86438,9754
1659522245.906878,9813
1659522245.946134,9855
1659522245.985389,9921
1659522246.024644,9976
1659522246.065606,10025
1659522246.106568,10094
1659522246.145141,10096
1659522246.183714,9954
1659522246.222286,9745
1659522246.261883,9648
1659522246.301479,9629
1659522246.341076,9648
1659522246.382038,9671
1659522246.423,9694
1659522246.461573,9697
1659522246.500145,9713
1659522246.538718,9750
1659522246.580192,9824
1659522246.621666,9910
1659522246.660921,9983
1659522246.700177,10069
1659522246.739432,10155
1659522246.780906,10233
1659522246.82238,10320
1659522246.861294,10403
1659522246.900208,10488
1659522246.939122,10549
1659522246.981108,10548
1659522247.023094,10406
1659522247.06747,10239
1659522247.111845,10183
1659522247.156221,10190
1659522247.190015,10228
1659522247.223808,10265
1659522247.268525,10272
1659522247.313242,10250
1659522247.357959,10259
1659522247.39619,10305
1659522247.434422,10344
1659522247.472653,10401
1659522247.513615,10455
1659522247.554577,10514
1659522247.593832,10569
1659522247.633087,10626
1659522247.672343,10671
1659522247.710915,10715
1659522247.749488,10757
1659522247.78806,10703
1659522247.829535,10501
1659522247.871009,10324
1659522247.909923,10268
1659522247.948837,10268
1659522247.987751,10296
1659522248.029737,10330
1659522248.071723,10333
1659522248.109954,10321
1659522248.148185,10325
1659522248.186416,10373
1659522248.226013,10416
1659522248.26561,10474
1659522248.305206,10526
1659522248.345656,10593
1659522248.386106,10653
1659522248.424338,10708
1659522248.462569,10770
1659522248.5008,10813
1659522248.54381,10782
1659522248.58682,10551
1659522248.630855,10322
1659522248.674889,10221
1659522248.718923,10200
1659522248.750669,10225
1659522248.782414,10253
1659522248.827472,10241
1659522248.872531,10202
1659522248.917589,10207
1659522248.951383,10213
1659522248.985176,10250
1659522249.029893,10297
1659522249.07461,10335
1659522249.119327,10375
1659522249.158582,10424
1659522249.197838,10455
1659522249.237093,10511
1659522249.279079,10536
1659522249.321065,10421
1659522249.359296,10143
1659522249.397528,9928
1659522249.435759,9863
1659522249.478257,9841
1659522249.520755,9865
1659522249.559669,9895
1659522249.598583,9923
1659522249.637497,9918
1659522249.676069,9917
1659522249.714642,9950
1659522249.753215,9982
1659522249.794689,10023
1659522249.836163,10056
1659522249.875077,10059
1659522249.913991,10078
1659522249.952905,10100
1659522249.994379,10143
1659522250.035853,10173
1659522250.075108,10090
1659522250.114363,9828
1659522250.153619,9618
1659522250.195605,9525
1659522250.237591,9493
1659522250.275822,9505
1659522250.314054,9559
1659522250.352285,9590
1659522250.394271,9588
1659522250.436257,9600
1659522250.475512,9620
1659522250.514768,9675
1659522250.554023,9718
1659522250.597716,9770
1659522250.641408,9837
1659522250.685102,9879
1659522250.726063,9914
1659522250.767025,9943
1659522250.805598,10001
1659522250.844171,10038
1659522250.882743,9948
1659522250.924729,9699
1659522250.966716,9534
1659522251.004947,9498
1659522251.043178,9478
1659522251.081409,9491
1659522251.120665,9524
1659522251.15992,9554
1659522251.199175,9547
1659522251.240137,9568
1659522251.281099,9589
1659522251.320354,9644
1659522251.35961,9719
1659522251.398865,9781
1659522251.440851,9842
1659522251.482837,9896
1659522251.521751,9978
1659522251.560665,10048
1659522251.599579,10130
1659522251.638152,10175
1659522251.676724,10057
1659522251.715297,9845
1659522251.757283,9710
1659522251.799269,9668
1659522251.838183,9645
1659522251.877097,9669
1659522251.916011,9690
1659522251.956461,9696
1659522251.996911,9703
1659522252.035142,9722
1659522252.073374,9778
1659522252.111605,9843
1659522252.154615,9916
1659522252.197625,9973
1659522252.241659,10028
1659522252.285693,10079
1659522252.329728,10134
1659522252.363009,10190
1659522252.396291,10241
1659522252.441008,10202
1659522252.485725,9995
1659522252.530442,9801
1659522252.569697,9692
1659522252.608952,9639
1659522252.648208,9617
1659522252.690194,9632
1659522252.73218,9653
1659522252.771435,9669
1659522252.81069,9679
1659522252.849946,9705
1659522252.890908,9758
1659522252.93187,9806
1659522252.970442,9874
1659522253.009015,9925
1659522253.047588,9979
1659522253.086843,10026
1659522253.126098,10089
1659522253.165354,10157
1659522253.203585,10224
1659522253.241816,10285
1659522253.280047,10231
1659522253.324423,10029
1659522253.368798,9879
1659522253.413174,9815
1659522253.45277,9794
1659522253.492367,9783
1659522253.531964,9816
1659522253.572926,9861
1659522253.613888,9897
1659522253.652461,9944
1659522253.691033,10018
1659522253.729606,10091
1659522253.771592,10168
1659522253.813578,10242
1659522253.852492,10285
1659522253.891406,10332
1659522253.93032,10378
1659522253.968892,10425
1659522254.007465,10470
1659522254.046037,10512
1659522254.087512,10552
1659522254.128986,10533
1659522254.166876,10324
1659522254.204766,10016
1659522254.242655,9816
1659522254.284642,9695
1659522254.326627,9608
1659522254.3652,9572
1659522254.403773,9573
1659522254.442345,9541
1659522254.483819,9516
1659522254.525294,9532
1659522254.563866,9571
1659522254.602439,9639
1659522254.641011,9677
1659522254.683509,9721
1659522254.726007,9760
1659522254.764921,9828
1659522254.803835,9892
1659522254.842749,9962
1659522254.886784,10013
1659522254.930818,10045
1659522254.974852,9987
1659522255.016838,9696
1659522255.058824,9413
1659522255.097397,9271
1659522255.135969,9207
1659522255.174542,9151
1659522255.213115,9145
1659522255.251687,9157
1659522255.29026,9154
1659522255.332758,9186
1659522255.375256,9329
1659522255.413829,9541
1659522255.452401,9774
1659522255.490974,9956
1659522255.532448,10120
1659522255.573922,10256
1659522255.613177,10357
1659522255.652432,10449
1659522255.691688,10530
1659522255.730602,10605
1659522255.769516,10668
1659522255.80843,10733
1659522255.850416,10684
1659522255.892402,10490
1659522255.931657,10328
1659522255.970912,10274
1659522256.010168,10250
1659522256.05113,10239
1659522256.092092,10250
1659522256.130323,10244
1659522256.168554,10226
1659522256.206786,10199
1659522256.248772,10206
1659522256.290758,10241
1659522256.329672,10268
1659522256.368586,10310
1659522256.4075,10334
1659522256.448462,10364
1659522256.489424,10405
1659522256.533458,10446
1659522256.577492,10497
1659522256.621526,10554
1659522256.660782,10579
1659522256.700037,10491
1659522256.739292,10303
1659522256.780766,10169
1659522256.82224,10117
1659522256.861154,10057
1659522256.900068,10012
1659522256.938982,9995
1659522256.980968,9979
1659522257.022954,9953
1659522257.061527,9947
1659522257.1001,9981
1659522257.138672,10013
1659522257.177927,10083
1659522257.217183,10135
1659522257.256438,10182
1659522257.2974,10224
1659522257.338362,10273
1659522257.377276,10320
1659522257.41619,10363
1659522257.455104,10416
1659522257.495554,10457
1659522257.536004,10413
1659522257.575259,10206
1659522257.614515,10003
1659522257.65377,9910
1659522257.692343,9857
1659522257.730915,9823
1659522257.769488,9842
1659522257.81045,9843
1659522257.851412,9839
1659522257.892886,9839
1659522257.93436,9861
1659522257.974298,9902
1659522258.014236,9956
1659522258.054174,10013
1659522258.098208,10062
1659522258.142242,10126
1659522258.186277,10194
1659522258.219558,10254
1659522258.25284,10332
1659522258.297557,10401
1659522258.342274,10472
1659522258.386991,10435
1659522258.425563,10308
1659522258.464136,10227
1659522258.502708,10203
1659522258.544695,10179
1659522258.586681,10164
1659522258.625936,10168
1659522258.665191,10167
1659522258.704447,10175
1659522258.742337,10182
1659522258.780226,10224
1659522258.818116,10265
1659522258.860102,10321
1659522258.902088,10382
1659522258.941685,10436
1659522258.981282,10499
1659522259.020878,10554
1659522259.059451,10624
1659522259.098024,10677
1659522259.136596,10733
1659522259.179094,10799
1659522259.221592,10827
1659522259.260848,10766
1659522259.300103,10675
1659522259.339358,10649
1659522259.379808,10658
1659522259.420258,10678
1659522259.464293,10697
1659522259.508327,10732
1659522259.552361,10767
1659522259.586667,10784
1659522259.620972,10824
1659522259.665007,10870
1659522259.709041,10914
1659522259.753075,10959
1659522259.785333,11010
1659522259.81759,11064
1659522259.862307,11109
1659522259.907024,11156
1659522259.951741,11200
1659522259.989972,11255
1659522260.028203,11302
1659522260.066435,11337
1659522260.108421,11356
1659522260.150407,11277
1659522260.189321,11171
1659522260.228235,11128
1659522260.267149,11118
1659522260.305721,11107
1659522260.344294,11136
1659522260.382866,11134
1659522260.42434,11149
1659522260.465815,11164
1659522260.505411,11177
1659522260.545008,11201
1659522260.584605,11244
1659522260.625567,11268
1659522260.666529,11296
1659522260.70476,11332
1659522260.742991,11351
1659522260.781222,11374
1659522260.822696,11401
1659522260.864171,11433
1659522260.903426,11469
1659522260.942681,11510
1659522260.981936,11510
1659522261.022898,11429
1659522261.063861,11374
1659522261.102775,11346
1659522261.141688,11345
1659522261.180602,11335
1659522261.225319,11326
1659522261.270036,11331
1659522261.314753,11305
1659522261.348547,11276
1659522261.38234,11281
1659522261.426716,11314
1659522261.471092,11342
1659522261.515467,11372
1659522261.548749,11389
1659522261.582031,11403
1659522261.626065,11429
1659522261.670099,11439
1659522261.714133,11471
1659522261.753047,11503
1659522261.791961,11549
1659522261.830875,11547
1659522261.872861,11454
1659522261.914847,11273
1659522261.95342,11143
1659522261.991992,11101
1659522262.030565,11053
1659522262.071527,11031
1659522262.112489,11027
1659522262.151744,11001
1659522262.191,10975
1659522262.230255,10968
1659522262.269169,10978
1659522262.308083,11004
1659522262.346997,11032
1659522262.388983,11053
1659522262.430969,11076
1659522262.470224,11103
1659522262.50948,11116
1659522262.548735,11146
1659522262.590209,11175
1659522262.631683,11211
1659522262.669914,11250
1659522262.708145,11200
1659522262.746377,10998
1659522262.788875,10813
1659522262.831373,10721
1659522262.869946,10656
1659522262.908518,10610
1659522262.947091,10600
1659522262.987541,10600
1659522263.027991,10588
1659522263.072366,10567
1659522263.116742,10573
1659522263.161118,10588
1659522263.200032,10617
1659522263.238945,10634
1659522263.277859,10671
1659522263.319333,10699
1659522263.360807,10747
1659522263.399721,10797
1659522263.438635,10840
1659522263.477549,10901
1659522263.519535,10955
1659522263.561522,10998
1659522263.599753,10934
1659522263.637984,10760
1659522263.676215,10608
1659522263.715129,10555
1659522263.754043,10531
1659522263.792957,10501
1659522263.832212,10502
1659522263.871468,10474
1659522263.910723,10407
1659522263.951173,10335
1659522263.991623,10280
1659522264.030537,10252
1659522264.069451,10238
1659522264.108365,10244
1659522264.149327,10272
1659522264.190289,10329
1659522264.229203,10386
1659522264.268117,10453
1659522264.307031,10533
1659522264.348505,10612
1659522264.389979,10682
1659522264.435037,10724
1659522264.480095,10630
1659522264.525154,10450
1659522264.557411,10349
1659522264.589669,10331
1659522264.634386,10337
1659522264.679103,10355
1659522264.72382,10372
1659522264.763758,10378
1659522264.803696,10363
1659522264.843634,10361
1659522264.885108,10359
1659522264.926582,10370
1659522264.965154,10374
1659522265.003727,10399
1659522265.0423,10440
1659522265.083774,10511
1659522265.125248,10627
1659522265.164162,10738
1659522265.203076,10829
1659522265.24199,10919
1659522265.280562,11003
1659522265.319135,10971
1659522265.357707,10799
1659522265.399181,10640
1659522265.440655,10592
1659522265.479228,10577
1659522265.517801,10591
1659522265.556373,10633
1659522265.598359,10678
1659522265.640346,10695
1659522265.679601,10706
1659522265.718856,10746
1659522265.758111,10802
1659522265.797025,10858
1659522265.835939,10924
1659522265.874853,10987
1659522265.916327,11059
1659522265.957801,11116
1659522265.999788,11155
1659522266.041774,11181
1659522266.080346,11201
1659522266.118919,11218
1659522266.157491,11126
1659522266.201525,10873
1659522266.24556,10630
1659522266.289594,10510
1659522266.322364,10437
1659522266.355133,10374
1659522266.399509,10338
1659522266.443884,10316
1659522266.48826,10276
1659522266.526491,10260
1659522266.564722,10264
1659522266.602954,10294
1659522266.64494,10357
1659522266.686926,10401
1659522266.72584,10450
1659522266.764754,10503
1659522266.803668,10568
1659522266.842582,10631
1659522266.881495,10715
1659522266.920409,10786
1659522266.961884,10848
1659522267.003358,10844
1659522267.042613,10657
1659522267.081868,10486
1659522267.121124,10425
1659522267.160038,10434
1659522267.198951,10441
1659522267.237865,10478
1659522267.278827,10460
1659522267.319789,10403
1659522267.361264,10380
1659522267.402738,10395
1659522267.44131,10423
1659522267.479883,10478
1659522267.518456,10551
1659522267.562831,10636
1659522267.607207,10704
1659522267.651582,10771
1659522267.685888,10833
1659522267.720194,10912
1659522267.764228,10962
1659522267.808262,10920
1659522267.852296,10678
1659522267.885066,10452
1659522267.917835,10326
1659522267.962894,10252
1659522268.007952,10185
1659522268.05301,10168
1659522268.092607,10169
1659522268.132204,10142
1659522268.1718,10141
1659522268.213274,10150
1659522268.254748,10199
1659522268.293662,10269
1659522268.332576,10312
1659522268.37149,10356
1659522268.412964,10367
1659522268.454438,10406
1659522268.493011,10412
1659522268.531584,10460
1659522268.570156,10468
1659522268.609411,10331
1659522268.648667,10060
1659522268.687922,9852
1659522268.728884,9773
1659522268.769846,9732
1659522268.808419,9741
1659522268.846991,9787
1659522268.885564,9818
1659522268.927379,9836
1659522268.969195,9860
1659522269.01101,9922
1659522269.052825,9991
1659522269.094641,10060
1659522269.136456,10121
1659522269.17537,10181
1659522269.214284,10249
1659522269.253198,10326
1659522269.295696,10400
1659522269.338194,10452
1659522269.376426,10373
1659522269.414657,10131
1659522269.452888,9952
1659522269.491119,9854
1659522269.529351,9807
1659522269.567582,9798
1659522269.609056,9803
1659522269.65053,9833
1659522269.689444,9844
1659522269.728358,9857
1659522269.767272,9893
1659522269.808234,9963
1659522269.849196,10031
1659522269.88811,10112
1659522269.927024,10190
1659522269.965938,10251
1659522270.007412,10313
1659522270.048886,10381
1659522270.0878,10446
1659522270.126714,10385
1659522270.165628,10156
1659522270.210686,9894
1659522270.255744,9752
1659522270.300803,9691
1659522270.342277,9667
1659522270.383751,9699
1659522270.422323,9751
1659522270.460896,9786
1659522270.499469,9825
1659522270.540943,9873
1659522270.582417,9946
1659522270.622013,10018
1659522270.66161,10090
1659522270.701207,10163
1659522270.739438,10240
1659522270.777669,10315
1659522270.8159,10373
1659522270.857374,10452
1659522270.898849,10533
1659522270.937421,10601
1659522270.975994,10581
1659522271.014566,10353
1659522271.05348,10065
1659522271.092394,9890
1659522271.131308,9774
1659522271.173294,9728
1659522271.21528,9762
1659522271.254877,9809
1659522271.294474,9827
1659522271.33407,9837
1659522271.375032,9838
1659522271.415994,9877
1659522271.454908,9934
1659522271.493822,9998
1659522271.532736,10066
1659522271.575234,10144
1659522271.617733,10228
1659522271.656305,10308
1659522271.694878,10401
1659522271.73345,10476
1659522271.774412,10560
1659522271.815374,10624
1659522271.85975,10661
1659522271.904125,10544
1659522271.948501,10301
1659522271.982295,10125
1659522272.016088,10036
1659522272.059781,9967
1659522272.103474,9945
1659522272.147167,9966
1659522272.186081,9975
1659522272.224995,9971
1659522272.263909,9986
1659522272.305895,10027
1659522272.347881,10095
1659522272.386454,10176
1659522272.425026,10260
1659522272.463599,10335
1659522272.505585,10420
1659522272.547571,10504
1659522272.586826,10573
1659522272.626082,10645
1659522272.665337,10717
1659522272.703568,10787
1659522272.741799,10868
1659522272.780031,10928
1659522272.820993,10938
1659522272.861955,10782
1659522272.900869,10571
1659522272.939783,10458
1659522272.978697,10419
1659522273.017269,10377
1659522273.055842,10396
1659522273.094414,10429
1659522273.135888,10438
1659522273.177362,10457
1659522273.218837,10489
1659522273.260311,10539
1659522273.298542,10590
1659522273.336773,10662
1659522273.375004,10715
1659522273.419721,10775
1659522273.464438,10827
1659522273.509155,10878
1659522273.542949,10932
1659522273.576742,10996
1659522273.621118,11046
1659522273.665493,11112
1659522273.709869,11172
1659522273.743151,11191
1659522273.776433,11079
1659522273.821149,10804
1659522273.865866,10623
1659522273.910583,10552
1659522273.949497,10513
1659522273.988411,10516
1659522274.027325,10541
1659522274.068287,10564
1659522274.109249,10567
1659522274.147992,10613
1659522274.186736,10691
1659522274.225479,10788
1659522274.264222,10887
1659522274.302965,10965
1659522274.341709,11048
1659522274.380964,11094
1659522274.420219,11141
1659522274.459475,11171
1659522274.501973,11228
1659522274.544471,11272
1659522274.583044,11324
1659522274.621616,11379
1659522274.660189,11399
1659522274.701663,11299
1659522274.743137,11021
1659522274.788195,10800
1659522274.833253,10697
1659522274.878312,10629
1659522274.911081,10577
1659522274.943851,10579
1659522274.988226,10588
1659522275.032602,10575
1659522275.076977,10591
1659522275.109747,10603
1659522275.142517,10656
1659522275.186551,10701
1659522275.230585,10747
1659522275.274619,10791
1659522275.312851,10836
1659522275.351082,10888
1659522275.389313,10920
1659522275.431811,10971
1659522275.474309,11013
1659522275.512882,11057
1659522275.551455,11132
1659522275.590027,11180
1659522275.628941,11102
1659522275.667855,10885
1659522275.706769,10700
1659522275.748243,10632
1659522275.789717,10610
1659522275.828631,10608
1659522275.867545,10619
1659522275.906459,10643
1659522275.945373,10645
1659522275.984287,10650
1659522276.023201,10662
1659522276.064163,10698
1659522276.105125,10753
1659522276.149159,10812
1659522276.193193,10859
1659522276.237228,10909
1659522276.269997,10956
1659522276.302767,10990
1659522276.347142,11015
1659522276.391518,11032
1659522276.435894,11057
1659522276.475149,11080
1659522276.514404,11028
1659522276.553659,10812
1659522276.594621,10551
1659522276.635583,10397
1659522276.674839,10316
1659522276.714094,10302
1659522276.753349,10306
1659522276.794823,10344
1659522276.836298,10375
1659522276.875553,10393
1659522276.914808,10420
1659522276.954063,10466
1659522276.992977,10501
1659522277.031891,10551
1659522277.070805,10617
1659522277.113303,10674
1659522277.155802,10756
1659522277.194033,10833
1659522277.232264,10914
1659522277.270495,10988
1659522277.312481,11067
1659522277.354467,11134
1659522277.393723,11124
1659522277.432978,10909
1659522277.472233,10635
1659522277.513196,10475
1659522277.554157,10386
1659522277.592389,10312
1659522277.63062,10282
1659522277.668851,10283
1659522277.711861,10270
1659522277.754872,10260
1659522277.793785,10270
1659522277.832699,10321
1659522277.871613,10420
1659522277.915989,10531
1659522277.960364,10681
1659522278.00474,10813
1659522278.038534,10910
1659522278.072327,11008
1659522278.117044,11083
1659522278.161761,11131
1659522278.206478,11146
1659522278.239248,11155
1659522278.272017,11041
1659522278.316734,10760
1659522278.361451,10497
1659522278.406168,10408
1659522278.444399,10407
1659522278.48263,10432
1659522278.520862,10482
1659522278.561312,10520
1659522278.601762,10526
1659522278.640676,10530
1659522278.67959,10570
1659522278.718504,10586
1659522278.757076,10635
1659522278.795649,10686
1659522278.834221,10718
1659522278.875695,10750
1659522278.91717,10760
1659522278.956425,10764
1659522278.99568,10760
1659522279.034935,10779
1659522279.07641,10782
1659522279.117884,10652
1659522279.156456,10387
1659522279.195029,10163
1659522279.233602,10008
1659522279.2761,9861
1659522279.318598,9737
1659522279.357512,9660
1659522279.396425,9626
1659522279.435339,9590
1659522279.474868,9574
1659522279.514396,9606
1659522279.553925,9674
1659522279.593453,9757
1659522279.632982,9832
1659522279.67548,9911
1659522279.717978,9980
1659522279.762012,10023
1659522279.806046,10081
1659522279.85008,10158
1659522279.888653,10246
1659522279.927226,10297
1659522279.965798,10180
1659522280.007784,9935
1659522280.04977,9795
1659522280.088343,9730
1659522280.126915,9661
1659522280.165488,9634
1659522280.207986,9664
1659522280.250484,9672
1659522280.28974,9660
1659522280.328995,9686
1659522280.36825,9738
1659522280.407164,9831
1659522280.446078,9949
1659522280.484992,10069
1659522280.526722,10185
1659522280.568452,10257
1659522280.610182,10264
1659522280.651912,10252
1659522280.693387,10300
1659522280.734861,10349
1659522280.773092,10299
1659522280.811323,10166
1659522280.849554,10066
1659522280.888468,10028
1659522280.927382,10041
1659522280.966296,10121
1659522281.008282,10159
1659522281.050268,10120
1659522281.088841,10079
1659522281.127414,10112
1659522281.165986,10182
1659522281.20746,10229
1659522281.248934,10255
1659522281.287848,10280
1659522281.326762,10333
1659522281.365676,10405
1659522281.404931,10485
1659522281.444187,10536
1659522281.483442,10522
1659522281.524916,10349
1659522281.56639,10146
1659522281.604963,10062
1659522281.643535,10053
1659522281.682108,10050
1659522281.72307,10074
1659522281.764032,10126
1659522281.802605,10177
1659522281.841177,10255
1659522281.87975,10327
1659522281.921224,10396
1659522281.962698,10450
1659522282.006732,10502
1659522282.050766,10560
1659522282.0948,10622
1659522282.133714,10697
1659522282.172628,10781
1659522282.211542,10847
1659522282.253529,10824
1659522282.295515,10707
1659522282.335111,10629
1659522282.374708,10653
1659522282.414304,10701
1659522282.455267,10753
1659522282.496229,10819
1659522282.535143,10886
1659522282.574057,10971
1659522282.612971,11055
1659522282.651543,11157
1659522282.690116,11237
1659522282.728688,11315
1659522282.770162,11403
1659522282.811636,11485
1659522282.85055,11569
1659522282.889464,11639
1659522282.928378,11671
1659522282.969852,11598
1659522283.011326,11465
1659522283.049216,11397
1659522283.087106,11402
1659522283.124996,11397
1659522283.164251,11394
1659522283.203507,11438
1659522283.242762,11460
1659522283.284748,11482
1659522283.326734,11491
1659522283.368208,11491
1659522283.409682,11497
1659522283.448938,11545
1659522283.488193,11628
1659522283.527448,11708
1659522283.569946,11765
1659522283.612444,11743
1659522283.651017,11606
1659522283.68959,11503
1659522283.728162,11495
1659522283.772879,11525
1659522283.817596,11545
1659522283.862313,11574
1659522283.895595,11619
1659522283.928876,11666
1659522283.972911,11654
1659522284.016945,11672
1659522284.060979,11728
1659522284.099551,11799
1659522284.138124,11869
1659522284.176697,11940
1659522284.219195,12015
1659522284.261693,12069
1659522284.299583,12119
1659522284.337473,12074
1659522284.375363,11953
1659522284.416837,11881
1659522284.458311,11874
1659522284.497566,11882
1659522284.536821,11899
1659522284.576077,11943
1659522284.614649,11976
1659522284.653222,11992
1659522284.691794,12017
1659522284.733781,12052
1659522284.775767,12103
1659522284.817753,12155
1659522284.859739,12205
1659522284.89797,12249
1659522284.936201,12297
1659522284.974433,12319
1659522285.013005,12220
1659522285.051578,12061
1659522285.09015,11949
1659522285.132137,11874
1659522285.174123,11839
1659522285.212354,11860
1659522285.250585,11853
1659522285.288816,11815
1659522285.329778,11769
1659522285.37074,11753
1659522285.409654,11768
1659522285.448568,11798
1659522285.487482,11799
1659522285.529468,11808
1659522285.571455,11828
1659522285.61583,11821
1659522285.660206,11712
1659522285.704581,11452
1659522285.737863,11246
1659522285.771144,11120
1659522285.816203,11052
1659522285.861261,11033
1659522285.906319,11064
1659522285.944892,11090
1659522285.983464,11105
1659522286.022037,11109
1659522286.064535,11135
1659522286.107033,11179
1659522286.145606,11240
1659522286.184179,11310
1659522286.222751,11379
1659522286.264225,11438
1659522286.305699,11428
1659522286.344272,11179
1659522286.382844,10798
1659522286.421417,10553
1659522286.463915,10433
1659522286.506413,10392
1659522286.544986,10386
1659522286.583559,10403
1659522286.622131,10420
1659522286.661045,10446
1659522286.699959,10477
1659522286.738873,10515
1659522286.780859,10561
1659522286.822845,10642
1659522286.862442,10687
1659522286.902038,10719
1659522286.941635,10733
1659522286.982597,10653
1659522287.023559,10480
1659522287.062814,10346
1659522287.10207,10276
1659522287.141325,10216
1659522287.182799,10203
1659522287.224273,10188
1659522287.262846,10174
1659522287.301418,10193
1659522287.339991,10226
1659522287.380953,10293
1659522287.421915,10354
1659522287.46117,10413
1659522287.500426,10444
1659522287.539681,10487
1659522287.583374,10519
1659522287.627067,10552
1659522287.670759,10481
1659522287.712234,10286
1659522287.753708,10126
1659522287.793304,10021
1659522287.832901,9985
1659522287.872498,10020
1659522287.910729,10079
1659522287.94896,10116
1659522287.987191,10158
1659522288.028665,10217
1659522288.070139,10284
1659522288.109736,10349
1659522288.149333,10393
1659522288.188929,10449
1659522288.230403,10517
1659522288.271878,10616
1659522288.31045,10685
1659522288.349023,10640
1659522288.387595,10523
1659522288.426168,10459
1659522288.464741,10448
1659522288.503313,10420
1659522288.543763,10432
1659522288.584213,10461
1659522288.622786,10451
1659522288.661358,10433
1659522288.699931,10427
1659522288.742429,10437
1659522288.784927,10441
1659522288.8235,10482
1659522288.862072,10493
1659522288.900645,10544
1659522288.942631,10603
1659522288.984617,10635
1659522289.023873,10548
1659522289.063128,10327
1659522289.102383,10142
1659522289.144369,10033
1659522289.186355,9965
1659522289.23039,9957
1659522289.274424,10007
1659522289.318458,10049
1659522289.35174,10070
1659522289.385021,10102
1659522289.429397,10137
1659522289.473772,10179
1659522289.518148,10223
1659522289.55672,10284
1659522289.595293,10352
1659522289.633866,10447
1659522289.676364,10538
1659522289.718862,10601
1659522289.757776,10524
1659522289.79669,10366
1659522289.835604,10269
1659522289.873835,10239
1659522289.912066,10257
1659522289.950298,10318
1659522289.99044,10411
1659522290.030583,10490
1659522290.070726,10569
1659522290.110869,10673
1659522290.151011,10755
1659522290.192998,10842
1659522290.234984,10938
1659522290.273898,11018
1659522290.312812,11091
1659522290.351726,11171
1659522290.390981,11241
1659522290.430236,11255
1659522290.469491,11096
1659522290.509942,10817
1659522290.550391,10618
1659522290.594767,10496
1659522290.639143,10415
1659522290.683518,10406
1659522290.7168,10430
1659522290.750082,10434
1659522290.794116,10433
1659522290.83815,10466
1659522290.882184,10536
1659522290.920757,10624
1659522290.959329,10709
1659522290.997902,10766
1659522291.039376,10828
1659522291.08085,10890
1659522291.119764,10942
1659522291.158678,10985
1659522291.197592,10873
1659522291.239066,10567
1659522291.28054,10291
1659522291.319454,10119
1659522291.358368,10008
1659522291.397282,9973
1659522291.436537,9969
1659522291.475792,9945
1659522291.515048,9922
1659522291.556522,9901
1659522291.597996,9917
1659522291.63691,9967
1659522291.675824,10038
1659522291.714738,10101
1659522291.7557,10179
1659522291.796662,10243
1659522291.834552,10324
1659522291.872442,10397
1659522291.910331,10450
1659522291.949587,10342
1659522291.988842,10094
1659522292.028097,9896
1659522292.070084,9823
1659522292.11207,9774
1659522292.153032,9776
1659522292.193994,9830
1659522292.233249,9862
1659522292.272504,9886
1659522292.31176,9913
1659522292.356477,9966
1659522292.401193,10032
1659522292.44591,10113
1659522292.47868,10186
1659522292.51145,10273
1659522292.556508,10333
1659522292.601566,10391
1659522292.646624,10466
1659522292.679394,10541
1659522292.712164,10496
1659522292.756198,10257
1659522292.800232,10047
1659522292.844266,9956
1659522292.88318,9898
1659522292.922094,9873
1659522292.961008,9892
1659522293.003506,9916
1659522293.046004,9906
1659522293.083894,9880
1659522293.121784,9889
1659522293.159674,9926
1659522293.200636,9981
1659522293.241598,10028
1659522293.281195,10091
1659522293.320791,10146
1659522293.360388,10196
1659522293.398619,10241
1659522293.436851,10308
1659522293.475082,10377
1659522293.51758,10347
1659522293.560078,10101
1659522293.598992,9803
1659522293.637906,9646
1659522293.67682,9556
1659522293.717782,9517
1659522293.758744,9520
1659522293.797317,9556
1659522293.835889,9604
1659522293.874462,9617
1659522293.91696,9665
1659522293.959458,9738
1659522293.997689,9829
1659522294.035921,9919
1659522294.074152,10040
1659522294.115114,10114
1659522294.156076,10185
1659522294.200793,10255
1659522294.24551,10306
1659522294.290227,10375
1659522294.328458,10421
1659522294.366689,10385
1659522294.40492,10176
1659522294.446394,9979
1659522294.487869,9906
1659522294.527124,9867
1659522294.566379,9884
1659522294.605634,9901
1659522294.644207,9922
1659522294.68278,9919
1659522294.721352,9912
1659522294.762826,9943
1659522294.8043,10005
1659522294.843897,10080
1659522294.883494,10151
1659522294.92309,10237
1659522294.964052,10307
1659522295.005014,10378
1659522295.043246,10425
1659522295.081477,10482
1659522295.119708,10554
1659522295.158622,10621
1659522295.197536,10605
1659522295.23645,10398
1659522295.276388,10107
1659522295.316326,9929
1659522295.356264,9854
1659522295.396202,9801
1659522295.43614,9800
1659522295.478126,9814
1659522295.520112,9811
1659522295.559709,9823
1659522295.599305,9863
1659522295.638902,9946
1659522295.680376,10027
1659522295.72185,10112
1659522295.766567,10198
1659522295.811284,10277
1659522295.856001,10362
1659522295.889283,10440
1659522295.922564,10521
1659522295.966599,10603
1659522296.010633,10690
1659522296.054667,10743
1659522296.09324,10627
1659522296.131812,10419
1659522296.170385,10316
1659522296.212883,10326
1659522296.255381,10368
1659522296.293953,10434
1659522296.332526,10485
1659522296.371099,10507
1659522296.409671,10529
1659522296.448244,10566
1659522296.486816,10623
1659522296.528291,10679
1659522296.569765,10747
1659522296.608679,10807
1659522296.647593,10877
1659522296.686507,10926
1659522296.728492,10971
1659522296.770479,11026
1659522296.809734,11083
1659522296.848989,11148
1659522296.888245,11144
1659522296.926817,10984
1659522296.96539,10779
1659522297.003962,10697
1659522297.044924,10690
1659522297.085886,10721
1659522297.128385,10776
1659522297.170883,10785
1659522297.209797,10790
1659522297.248711,10813
1659522297.287625,10871
1659522297.331317,10932
1659522297.37501,11005
1659522297.418703,11073
1659522297.451473,11141
1659522297.484242,11203
1659522297.528618,11268
1659522297.572994,11332
1659522297.617369,11387
1659522297.650139,11438
1659522297.682908,11402
1659522297.727625,11186
1659522297.772342,10976
1659522297.817059,10895
1659522297.856314,10889
1659522297.89557,10906
1659522297.934825,10931
1659522297.975787,10920
1659522298.016749,10883
1659522298.056004,10879
1659522298.09526,10907
1659522298.134515,10946
1659522298.17377,10990
1659522298.213026,11044
1659522298.252281,11093
1659522298.292731,11138
1659522298.333181,11171
1659522298.372436,11221
1659522298.411691,11286
1659522298.450947,11295
1659522298.489519,11136
1659522298.528092,10906
1659522298.566664,10783
1659522298.608139,10755
1659522298.649613,10757
1659522298.691087,10794
1659522298.732561,10805
1659522298.771816,10792
1659522298.811071,10778
1659522298.850327,10807
1659522298.891801,10856
1659522298.933275,10911
1659522298.97253,10975
1659522299.011786,11032
1659522299.051041,11085
1659522299.096099,11137
1659522299.141157,11212
1659522299.186216,11271
1659522299.218985,11285
1659522299.251755,11119
1659522299.296472,10905
1659522299.341189,10811
1659522299.385906,10775
1659522299.424819,10788
1659522299.463733,10820
1659522299.502647,10836
1659522299.544122,10815
1659522299.585596,10819
1659522299.624168,10850
1659522299.662741,10899
1659522299.701313,10972
1659522299.742787,11027
1659522299.784261,11082
1659522299.822493,11123
1659522299.860724,11188
1659522299.898955,11241
1659522299.937869,11287
1659522299.976783,11202
1659522300.015697,10960
1659522300.058195,10757
1659522300.100693,10669
1659522300.139266,10632
1659522300.177839,10637
1659522300.216411,10673
1659522300.257373,10672
1659522300.298335,10689
1659522300.337249,10733
1659522300.376163,10811
1659522300.415077,10882
1659522300.457063,10953
1659522300.499049,11031
1659522300.538578,11088
1659522300.578106,11148
1659522300.617634,11188
1659522300.657163,11246
1659522300.696691,11256
1659522300.735605,11079
1659522300.774519,10847
1659522300.813433,10692
1659522300.855419,10649
1659522300.897405,10629
1659522300.941098,10650
1659522300.984791,10667
1659522301.028484,10652
1659522301.061765,10672
1659522301.095047,10732
1659522301.139423,10811
1659522301.183798,10901
1659522301.228174,11003
1659522301.261455,11080
1659522301.294737,11136
1659522301.339795,11203
1659522301.384854,11264
1659522301.429912,11333
1659522301.469167,11351
1659522301.508422,11231
1659522301.547678,11040
1659522301.588128,10961
1659522301.628578,10943
1659522301.667492,10947
1659522301.706406,10996
1659522301.74532,11021
1659522301.783892,11020
1659522301.822465,11032
1659522301.861037,11070
1659522301.903023,11126
1659522301.945009,11211
1659522301.983923,11275
1659522302.022837,11266
1659522302.061751,11112
