LocalTimestamp,PG
1659514912.339985,15494
1659514912.385095,15638
1659514912.430205,15656
1659514912.475315,15713
1659514912.507609,15765
1659514912.539904,15786
1659514912.583988,15795
1659514912.628073,15800
1659514912.672158,15803
1659514912.711458,15780
1659514912.750758,15796
1659514912.790058,15827
1659514912.832092,15873
1659514912.874126,15935
1659514912.912743,16006
1659514912.95136,15561
1659514912.989977,14709
1659514913.031498,13910
1659514913.07302,13111
1659514913.111636,12830
1659514913.150253,11858
1659514913.18887,10631
1659514913.227828,10014
1659514913.266787,9634
1659514913.305745,9693
1659514913.347779,9772
1659514913.389813,9852
1659514913.42843,9911
1659514913.467047,9968
1659514913.505663,10018
1659514913.547185,10055
1659514913.588706,10097
1659514913.628007,10129
1659514913.667307,10143
1659514913.706607,10175
1659514913.747616,10224
1659514913.788625,10240
1659514913.8269,10260
1659514913.865175,10302
1659514913.90345,10318
1659514913.947876,10337
1659514913.992302,10357
1659514914.036729,10394
1659514914.070048,10439
1659514914.103368,10458
1659514914.147453,10467
1659514914.191537,10472
1659514914.235622,10481
1659514914.27458,10498
1659514914.313539,10505
1659514914.352497,10512
1659514914.394019,10529
1659514914.43554,10543
1659514914.474157,10545
1659514914.512774,10573
1659514914.55139,10561
1659514914.593425,10564
1659514914.635459,10573
1659514914.674417,10583
1659514914.713376,10603
1659514914.752334,10599
1659514914.790951,10624
1659514914.829567,10647
1659514914.868184,10674
1659514914.90868,10697
1659514914.949177,10733
1659514914.988135,10786
1659514915.027094,10825
1659514915.066052,10840
1659514915.108086,10859
1659514915.15012,10871
1659514915.188395,10907
1659514915.22667,10962
1659514915.264945,11015
1659514915.306467,11058
1659514915.347988,11095
1659514915.387289,11107
1659514915.426589,11124
1659514915.465889,11125
1659514915.507923,11112
1659514915.549957,11136
1659514915.594725,11149
1659514915.639493,11176
1659514915.684261,11199
1659514915.72322,11227
1659514915.762178,11246
1659514915.801136,11256
1659514915.842658,11256
1659514915.88418,11259
1659514915.923138,11274
1659514915.962096,11290
1659514916.001055,11292
1659514916.043089,11302
1659514916.085123,11288
1659514916.123398,11302
1659514916.161673,11309
1659514916.199948,11318
1659514916.238907,11324
1659514916.277865,11349
1659514916.316823,11366
1659514916.355098,11365
1659514916.393373,11369
1659514916.431648,11368
1659514916.476075,11366
1659514916.520501,11370
1659514916.564927,11387
1659514916.59876,11380
1659514916.632592,11380
1659514916.677018,11348
1659514916.721445,11337
1659514916.765871,11348
1659514916.798166,11335
1659514916.83046,11334
1659514916.87557,11334
1659514916.92068,11323
1659514916.965789,11294
1659514917.004064,11271
1659514917.042339,11258
1659514917.080614,11260
1659514917.122136,11278
1659514917.163657,11287
1659514917.202616,11286
1659514917.241574,11281
1659514917.280533,11283
1659514917.318808,11286
1659514917.357083,11299
1659514917.395358,11303
1659514917.435854,11287
1659514917.47635,11269
1659514917.51565,11252
1659514917.55495,11250
1659514917.594251,11243
1659514917.636285,11216
1659514917.678319,11216
1659514917.716936,11196
1659514917.755552,11204
1659514917.794169,11236
1659514917.835691,11262
1659514917.877212,11268
1659514917.916512,11255
1659514917.955812,11248
1659514917.995113,11235
1659514918.036634,11249
1659514918.078156,11245
1659514918.117114,11264
1659514918.156073,11304
1659514918.195031,11304
1659514918.239457,11306
1659514918.283884,11290
1659514918.32831,11258
1659514918.360605,11233
1659514918.392899,11248
1659514918.437325,11244
1659514918.481752,11265
1659514918.526178,11283
1659514918.568725,11287
1659514918.611271,11295
1659514918.649546,11296
1659514918.687821,11298
1659514918.726096,11283
1659514918.765397,11261
1659514918.804697,11264
1659514918.843997,11257
1659514918.886031,11268
1659514918.928065,11271
1659514918.967024,11284
1659514919.005982,11276
1659514919.04494,11274
1659514919.086462,11288
1659514919.127984,11307
1659514919.167284,11314
1659514919.206584,11318
1659514919.245884,11318
1659514919.284501,11315
1659514919.323117,11328
1659514919.361734,11327
1659514919.402743,11338
1659514919.443752,11350
1659514919.483052,11354
1659514919.522352,11364
1659514919.561653,11359
1659514919.603174,11361
1659514919.644696,11358
1659514919.682971,11368
1659514919.721246,11375
1659514919.759521,11383
1659514919.801042,11390
1659514919.842564,11403
1659514919.882205,11411
1659514919.921848,11412
1659514919.961489,11399
1659514920.002498,11392
1659514920.043507,11395
1659514920.087934,11396
1659514920.13236,11393
1659514920.176786,11406
1659514920.215745,11414
1659514920.254703,11416
1659514920.293662,11431
1659514920.334158,11423
1659514920.374654,11417
1659514920.413954,11414
1659514920.453254,11402
1659514920.492555,11396
1659514920.533564,11406
1659514920.574573,11409
1659514920.613189,11405
1659514920.651806,11425
1659514920.690423,11422
1659514920.728698,11426
1659514920.766973,11435
1659514920.805248,11435
1659514920.847794,11452
1659514920.890341,11448
1659514920.928958,11461
1659514920.967574,11466
1659514921.006191,11470
1659514921.045491,11466
1659514921.084792,11454
1659514921.124092,11470
1659514921.166126,11473
1659514921.20816,11496
1659514921.246777,11475
1659514921.285393,11457
1659514921.32401,11448
1659514921.365532,11457
1659514921.407053,11462
1659514921.446353,11468
1659514921.485654,11473
1659514921.524954,11473
1659514921.569038,11483
1659514921.613123,11478
1659514921.657207,11474
1659514921.695824,11471
1659514921.734441,11483
1659514921.773058,11505
1659514921.812016,11508
1659514921.850975,11524
1659514921.889933,11526
1659514921.930942,11527
1659514921.971951,11528
1659514922.012345,11534
1659514922.052738,11546
1659514922.093132,11556
1659514922.133526,11553
1659514922.17392,11535
1659514922.212536,11526
1659514922.251153,11527
1659514922.28977,11537
1659514922.331804,11558
1659514922.373838,11581
1659514922.413138,11608
1659514922.452438,11609
1659514922.491739,11588
1659514922.532748,11597
1659514922.573756,11585
1659514922.612031,11601
1659514922.650306,11620
1659514922.688581,11623
1659514922.730103,11610
1659514922.771624,11608
1659514922.810583,11606
1659514922.849541,11606
1659514922.8885,11620
1659514922.932584,11609
1659514922.976669,11607
1659514923.020753,11612
1659514923.062275,11581
1659514923.103796,11576
1659514923.142413,11563
1659514923.18103,11559
1659514923.219646,11558
1659514923.260655,11561
1659514923.301664,11570
1659514923.341306,11570
1659514923.380948,11584
1659514923.42059,11599
1659514923.459207,11606
1659514923.497823,11602
1659514923.53644,11609
1659514923.577962,11609
1659514923.619483,11616
1659514923.657758,11619
1659514923.696033,11642
1659514923.734308,11637
1659514923.772925,11642
1659514923.811542,11649
1659514923.850158,11647
1659514923.892193,11645
1659514923.934227,11643
1659514923.972843,11643
1659514924.01146,11644
1659514924.050077,11658
1659514924.091086,11654
1659514924.132095,11652
1659514924.171053,11666
1659514924.210011,11673
1659514924.24897,11670
1659514924.290491,11673
1659514924.332013,11670
1659514924.371655,11664
1659514924.411297,11676
1659514924.450939,11682
1659514924.49246,11676
1659514924.533982,11682
1659514924.578408,11683
1659514924.622834,11686
1659514924.667261,11680
1659514924.705877,11689
1659514924.744494,11680
1659514924.783111,11676
1659514924.825658,11679
1659514924.868204,11686
1659514924.906479,11704
1659514924.944754,11698
1659514924.983029,11679
1659514925.024551,11675
1659514925.066072,11675
1659514925.104689,11674
1659514925.143306,11670
1659514925.181922,11674
1659514925.220539,11690
1659514925.259156,11687
1659514925.297773,11692
1659514925.339807,11679
1659514925.381841,11695
1659514925.421141,11682
1659514925.460441,11698
1659514925.499741,11704
1659514925.54075,11713
1659514925.581759,11717
1659514925.621059,11723
1659514925.66036,11723
1659514925.69966,11724
1659514925.738618,11724
1659514925.777577,11726
1659514925.816535,11731
1659514925.857544,11730
1659514925.898553,11722
1659514925.939562,11734
1659514925.980571,11727
1659514926.019871,11722
1659514926.059171,11707
1659514926.098471,11707
1659514926.142214,11708
1659514926.185957,11722
1659514926.2297,11723
1659514926.263532,11723
1659514926.297364,11736
1659514926.341791,11733
1659514926.386217,11743
1659514926.430643,11736
1659514926.462938,11738
1659514926.495232,11741
1659514926.539317,11753
1659514926.583401,11752
1659514926.627486,11751
1659514926.667128,11755
1659514926.70677,11762
1659514926.746412,11774
1659514926.784687,11767
1659514926.822962,11765
1659514926.861237,11767
1659514926.900537,11771
1659514926.939837,11771
1659514926.979137,11766
1659514927.023564,11773
1659514927.06799,11773
1659514927.112416,11787
1659514927.144198,11775
1659514927.17598,11769
1659514927.220748,11782
1659514927.265516,11776
1659514927.310284,11788
1659514927.348901,11784
1659514927.387518,11784
1659514927.426134,11791
1659514927.467656,11804
1659514927.509177,11808
1659514927.548819,11798
1659514927.588461,11811
1659514927.628103,11817
1659514927.669625,11817
1659514927.711146,11823
1659514927.749763,11816
1659514927.78838,11810
1659514927.826996,11814
1659514927.869543,11816
1659514927.91209,11805
1659514927.95139,11811
1659514927.99069,11827
1659514928.02999,11840
1659514928.068265,11851
1659514928.10654,11856
1659514928.144815,11873
1659514928.185824,11862
1659514928.226833,11869
1659514928.266133,11867
1659514928.305434,11891
1659514928.344734,11879
1659514928.385743,11881
1659514928.426752,11883
1659514928.465368,11886
1659514928.503985,11884
1659514928.542602,11888
1659514928.584123,11895
1659514928.625645,11899
1659514928.664945,11901
1659514928.704245,11901
1659514928.743545,11896
1659514928.787972,11899
1659514928.832398,11885
1659514928.876824,11882
1659514928.910144,11900
1659514928.943464,11914
1659514928.98789,11933
1659514929.032316,11937
1659514929.076743,11946
1659514929.118264,11948
1659514929.159786,11956
1659514929.199428,11967
1659514929.239069,11963
1659514929.278712,11976
1659514929.316986,11995
1659514929.355261,12016
1659514929.393536,12018
1659514929.434033,12029
1659514929.474529,12049
1659514929.513146,12037
1659514929.551762,12032
1659514929.590379,12032
1659514929.629338,12048
1659514929.668296,12055
1659514929.707254,12052
1659514929.748776,12032
1659514929.790298,12032
1659514929.829256,12042
1659514929.868214,12039
1659514929.907173,12048
1659514929.949207,12049
1659514929.991241,12047
1659514930.029516,12050
1659514930.067791,12063
1659514930.106066,12075
1659514930.1481,12080
1659514930.190134,12085
1659514930.229776,12086
1659514930.269418,12088
1659514930.30906,12094
1659514930.349556,12088
1659514930.390053,12089
1659514930.434479,12098
1659514930.478905,12108
1659514930.523332,12121
1659514930.56229,12119
1659514930.601249,12112
1659514930.640207,12119
1659514930.682241,12095
1659514930.724275,12084
1659514930.76255,12094
1659514930.800825,12095
1659514930.8391,12090
1659514930.881134,12091
1659514930.923168,12106
1659514930.962127,12108
1659514931.001085,12115
1659514931.040044,12108
1659514931.07866,12113
1659514931.117277,12113
1659514931.155894,12118
1659514931.198953,12126
1659514931.242013,12127
1659514931.280971,12138
1659514931.319929,12139
1659514931.358888,12146
1659514931.399384,12150
1659514931.43988,12138
1659514931.479181,12143
1659514931.518481,12136
1659514931.557781,12128
1659514931.59674,12096
1659514931.635698,12086
1659514931.674656,12088
1659514931.715665,12108
1659514931.756674,12111
1659514931.795633,12114
1659514931.834591,12124
1659514931.87355,12131
1659514931.914558,12144
1659514931.955567,12137
1659514931.997345,12127
1659514932.039123,12117
1659514932.080901,12096
1659514932.122679,12078
1659514932.165226,12066
1659514932.207772,12069
1659514932.246047,12080
1659514932.284322,12110
1659514932.322597,12111
1659514932.361214,12107
1659514932.399831,12121
1659514932.438447,12111
1659514932.479969,12096
1659514932.52149,12073
1659514932.559765,12069
1659514932.59804,12068
1659514932.636315,12078
1659514932.678349,12092
1659514932.720383,12098
1659514932.759342,12113
1659514932.7983,12107
1659514932.837259,12097
1659514932.878268,12109
1659514932.919276,12102
1659514932.957551,12113
1659514932.995826,12143
1659514933.034101,12141
1659514933.076136,12126
1659514933.11817,12134
1659514933.157128,12125
1659514933.196087,12136
1659514933.235045,12137
1659514933.279471,12135
1659514933.323898,12150
1659514933.368324,12130
1659514933.410358,12110
1659514933.452392,12090
1659514933.491351,12101
1659514933.530309,12105
1659514933.569268,12115
1659514933.610789,12120
1659514933.652311,12124
1659514933.691269,12130
1659514933.730227,12129
1659514933.769186,12135
1659514933.807803,12137
1659514933.846419,12144
1659514933.885036,12132
1659514933.926045,12142
1659514933.967054,12141
1659514934.005671,12141
1659514934.044287,12155
1659514934.082904,12152
1659514934.124938,12155
1659514934.166972,12162
1659514934.205931,12163
1659514934.244889,12158
1659514934.283848,12148
1659514934.322806,12150
1659514934.361765,12145
1659514934.400723,12154
1659514934.442757,12154
1659514934.484791,12170
1659514934.524091,12179
1659514934.563392,12173
1659514934.602692,12178
1659514934.644213,12190
1659514934.685735,12190
1659514934.724693,12191
1659514934.763652,12198
1659514934.80261,12207
1659514934.843619,12222
1659514934.884628,12218
1659514934.928371,12209
1659514934.972114,12213
1659514935.015857,12212
1659514935.055157,12208
1659514935.094457,12192
1659514935.133757,12194
1659514935.174766,12181
1659514935.215775,12187
1659514935.25405,12181
1659514935.292325,12175
1659514935.3306,12193
1659514935.372121,12191
1659514935.413643,12198
1659514935.453285,12196
1659514935.492927,12193
1659514935.532569,12188
1659514935.570844,12203
1659514935.609119,12212
1659514935.647393,12193
1659514935.688915,12189
1659514935.730437,12187
1659514935.769395,12190
1659514935.808353,12188
1659514935.847312,12204
1659514935.885245,12213
1659514935.923178,12206
1659514935.961112,12190
1659514936.003658,12180
1659514936.046205,12187
1659514936.084822,12182
1659514936.123439,12201
1659514936.162055,12194
1659514936.202552,12187
1659514936.243048,12182
1659514936.287474,12180
1659514936.3319,12177
1659514936.376327,12174
1659514936.410159,12175
1659514936.443991,12168
1659514936.488418,12175
1659514936.532844,12167
1659514936.57727,12168
1659514936.61059,12170
1659514936.64391,12174
1659514936.68902,12169
1659514936.734129,12160
1659514936.779239,12140
1659514936.817514,12133
1659514936.855789,12172
1659514936.894064,12166
1659514936.936098,12171
1659514936.978132,12176
1659514937.017432,12181
1659514937.056733,12187
1659514937.096033,12183
1659514937.137042,12200
1659514937.178051,12210
1659514937.215471,12203
1659514937.252892,12206
1659514937.290313,12207
1659514937.327733,12202
1659514937.369255,12211
1659514937.410776,12227
1659514937.449735,12229
1659514937.488693,12231
1659514937.527652,12235
1659514937.57242,12240
1659514937.617188,12227
1659514937.661956,12220
1659514937.70399,12203
1659514937.746024,12199
1659514937.784641,12198
1659514937.823257,12195
1659514937.861874,12202
1659514937.903908,12208
1659514937.945942,12219
1659514937.985584,12221
1659514938.025226,12225
1659514938.064868,12224
1659514938.103143,12220
1659514938.141418,12219
1659514938.179693,12216
1659514938.220189,12226
1659514938.260686,12233
1659514938.299644,12238
1659514938.338603,12243
1659514938.377561,12250
1659514938.415836,12256
1659514938.454111,12259
1659514938.492386,12221
1659514938.53442,12189
1659514938.576454,12192
1659514938.614729,12185
1659514938.653004,12190
1659514938.691279,12201
1659514938.733313,12205
1659514938.775347,12209
1659514938.813964,12208
1659514938.852581,12197
1659514938.891197,12199
1659514938.933232,12201
1659514938.975266,12208
1659514939.014566,12215
1659514939.053866,12225
1659514939.093166,12230
1659514939.134175,12229
1659514939.175184,12222
1659514939.21961,12215
1659514939.264037,12210
1659514939.308463,12222
1659514939.34708,12213
1659514939.385696,12209
1659514939.424313,12212
1659514939.465835,12198
1659514939.507356,12197
1659514939.546315,12200
1659514939.585273,12213
1659514939.624232,12218
1659514939.665241,12236
1659514939.706249,12244
1659514939.745208,12264
1659514939.784166,12264
1659514939.823125,12271
1659514939.862083,12276
1659514939.901042,12286
1659514939.94,12293
1659514939.982547,12297
1659514940.025094,12299
1659514940.06371,12289
1659514940.102327,12307
1659514940.140944,12301
1659514940.182465,12320
1659514940.223987,12316
1659514940.263287,12302
1659514940.302587,12305
1659514940.341887,12301
1659514940.380846,12320
1659514940.419804,12321
1659514940.458763,12344
1659514940.499772,12321
1659514940.540781,12314
1659514940.582815,12326
1659514940.624849,12326
1659514940.663465,12328
1659514940.702082,12340
1659514940.740699,12352
1659514940.785125,12333
1659514940.829551,12348
1659514940.873978,12345
1659514940.908323,12345
1659514940.942668,12340
1659514940.987094,12340
1659514941.03152,12362
1659514941.075947,12345
1659514941.108241,12337
1659514941.140536,12333
1659514941.185646,12329
1659514941.230755,12335
1659514941.275865,12341
1659514941.309185,12341
1659514941.342505,12347
1659514941.386247,12353
1659514941.42999,12355
1659514941.473733,12363
1659514941.512691,12367
1659514941.55165,12366
1659514941.590608,12360
1659514941.631105,12362
1659514941.671601,12378
1659514941.710218,12381
1659514941.748834,12391
1659514941.787451,12393
1659514941.82641,12387
1659514941.865368,12397
1659514941.904326,12380
1659514941.945335,12355
1659514941.986344,12338
1659514942.024961,12323
1659514942.063578,12320
1659514942.102194,12339
1659514942.144741,12360
1659514942.187288,12370
1659514942.226246,12379
1659514942.265205,12395
1659514942.304163,12391
1659514942.345172,12390
1659514942.386181,12382
1659514942.425139,12380
1659514942.464098,12390
1659514942.503056,12394
1659514942.547483,12400
1659514942.591909,12423
1659514942.636335,12425
1659514942.669655,12427
1659514942.702975,12427
1659514942.747059,12412
1659514942.791144,12399
1659514942.835228,12393
1659514942.874187,12389
1659514942.913145,12409
1659514942.952104,12406
1659514942.990379,12424
1659514943.028654,12433
1659514943.066929,12425
1659514943.108963,12421
1659514943.150997,12411
1659514943.189955,12416
1659514943.228914,12426
1659514943.267872,12451
1659514943.307173,12452
1659514943.346473,12455
1659514943.385773,12468
1659514943.427294,12449
1659514943.468816,12440
1659514943.51085,12429
1659514943.552884,12436
1659514943.591501,12444
1659514943.630118,12445
1659514943.668734,12430
1659514943.713161,12425
1659514943.757587,12430
1659514943.802013,12421
1659514943.835846,12427
1659514943.869678,12436
1659514943.913763,12434
1659514943.957847,12447
1659514944.001932,12463
1659514944.034226,12472
1659514944.066521,12472
1659514944.111289,12469
1659514944.156057,12477
1659514944.200825,12479
1659514944.239783,12471
1659514944.278742,12470
1659514944.3177,12475
1659514944.359222,12491
1659514944.400743,12481
1659514944.43936,12471
1659514944.477977,12484
1659514944.516593,12481
1659514944.558627,12455
1659514944.600662,12446
1659514944.63962,12429
1659514944.678579,12435
1659514944.717537,12432
1659514944.756495,12428
1659514944.795454,12448
1659514944.834412,12450
1659514944.875421,12460
1659514944.91643,12466
1659514944.954363,12468
1659514944.992297,12469
1659514945.03023,12461
1659514945.072264,12466
1659514945.114298,12469
1659514945.153256,12460
1659514945.192215,12462
1659514945.231174,12456
1659514945.27167,12459
1659514945.312166,12471
1659514945.351125,12488
1659514945.390083,12476
1659514945.429041,12449
1659514945.473809,12436
1659514945.518578,12431
1659514945.563345,12431
1659514945.596153,12425
1659514945.62896,12424
1659514945.673386,12437
1659514945.717812,12439
1659514945.762239,12442
1659514945.804273,12444
1659514945.846307,12451
1659514945.884582,12467
1659514945.922857,12468
1659514945.961132,12463
1659514946.00009,12446
1659514946.039049,12464
1659514946.078007,12473
1659514946.120554,12484
1659514946.163101,12497
1659514946.201376,12503
1659514946.239651,12505
1659514946.277925,12502
1659514946.318934,12478
1659514946.359943,12447
1659514946.399585,12443
1659514946.439227,12452
1659514946.478869,12468
1659514946.517486,12485
1659514946.556103,12500
1659514946.594719,12494
1659514946.637266,12504
1659514946.679813,12486
1659514946.719113,12486
1659514946.758413,12499
1659514946.797713,12501
1659514946.838722,12504
1659514946.879731,12521
1659514946.918006,12524
1659514946.956281,12531
1659514946.994556,12542
1659514947.037103,12534
1659514947.07965,12516
1659514947.124076,12510
1659514947.168502,12493
1659514947.212929,12477
1659514947.245223,12489
1659514947.277518,12492
1659514947.321944,12496
1659514947.36637,12513
1659514947.410796,12523
1659514947.449413,12523
1659514947.48803,12526
1659514947.526647,12519
1659514947.568168,12515
1659514947.60969,12533
1659514947.64899,12530
1659514947.68829,12532
1659514947.72759,12540
1659514947.765011,12551
1659514947.802431,12551
1659514947.839852,12560
1659514947.877273,12556
1659514947.921699,12546
1659514947.966125,12545
1659514948.010552,12539
1659514948.05156,12531
1659514948.092569,12524
1659514948.130844,12518
1659514948.169119,12522
1659514948.207394,12530
1659514948.249429,12540
1659514948.291463,12553
1659514948.330421,12558
1659514948.36938,12551
1659514948.408338,12533
1659514948.446613,12553
1659514948.484888,12566
1659514948.523163,12584
1659514948.563659,12586
1659514948.604155,12591
1659514948.643456,12599
1659514948.682756,12606
1659514948.722056,12600
1659514948.76409,12590
1659514948.806124,12592
1659514948.845083,12590
1659514948.884041,12606
1659514948.923,12601
1659514948.9623,12594
1659514949.0016,12581
1659514949.0409,12568
1659514949.082934,12569
1659514949.124969,12568
1659514949.163585,12580
1659514949.202202,12579
1659514949.240819,12597
1659514949.281827,12596
1659514949.322836,12594
1659514949.367263,12618
1659514949.411689,12629
1659514949.456115,12637
1659514949.488922,12627
1659514949.521729,12629
1659514949.566156,12625
1659514949.610582,12625
1659514949.655009,12621
1659514949.689353,12619
1659514949.723698,12623
1659514949.767783,12621
1659514949.811867,12636
1659514949.855952,12647
1659514949.894911,12650
1659514949.933869,12635
1659514949.972827,12613
1659514950.014862,12594
1659514950.056896,12577
1659514950.096196,12559
1659514950.135496,12554
1659514950.174796,12577
1659514950.213413,12565
1659514950.25203,12570
1659514950.290646,12602
1659514950.33268,12624
1659514950.374715,12640
1659514950.41299,12644
1659514950.451265,12645
1659514950.48954,12645
1659514950.531061,12673
1659514950.572582,12674
1659514950.611883,12655
1659514950.651183,12687
1659514950.690483,12698
1659514950.728416,12695
1659514950.76635,12688
1659514950.804283,12679
1659514950.845804,12671
1659514950.887326,12662
1659514950.929873,12671
1659514950.972419,12683
1659514951.011036,12686
1659514951.049653,12690
1659514951.088269,12689
1659514951.132354,12686
1659514951.176439,12687
1659514951.220523,12697
1659514951.254356,12718
1659514951.288188,12715
1659514951.332614,12707
1659514951.377041,12714
1659514951.421467,12718
1659514951.454787,12720
1659514951.488106,12720
1659514951.532191,12734
1659514951.576275,12752
1659514951.62036,12741
1659514951.658635,12738
1659514951.69691,12730
1659514951.735185,12736
1659514951.775681,12728
1659514951.816177,12736
1659514951.855136,12724
1659514951.894094,12726
1659514951.933053,12750
1659514951.972011,12752
1659514952.01097,12745
1659514952.049928,12730
1659514952.09145,12727
1659514952.132971,12727
1659514952.172271,12754
1659514952.211572,12746
1659514952.250872,12752
1659514952.292906,12777
1659514952.33494,12785
1659514952.373557,12797
1659514952.412174,12785
1659514952.45079,12788
1659514952.493337,12781
1659514952.535884,12791
1659514952.5745,12803
1659514952.613117,12817
1659514952.651734,12810
1659514952.693255,12809
1659514952.734777,12821
1659514952.773052,12815
1659514952.811327,12811
1659514952.849602,12799
1659514952.89437,12798
1659514952.939138,12804
1659514952.983906,12808
1659514953.022864,12823
1659514953.061823,12817
1659514953.100781,12824
1659514953.13974,12802
1659514953.178698,12800
1659514953.217657,12802
1659514953.259178,12790
1659514953.3007,12803
1659514953.339316,12810
1659514953.377933,12810
1659514953.41655,12810
1659514953.455508,12813
1659514953.494467,12802
1659514953.533425,12787
1659514953.575459,12785
1659514953.617493,12780
1659514953.65611,12780
1659514953.694727,12777
1659514953.733344,12782
1659514953.774353,12787
1659514953.815361,12804
1659514953.859788,12800
1659514953.904214,12803
1659514953.94864,12821
1659514953.982473,12820
1659514954.016305,12812
1659514954.060048,12813
1659514954.103791,12809
1659514954.147533,12812
1659514954.186492,12815
1659514954.22545,12820
1659514954.264409,12811
1659514954.30593,12820
1659514954.347452,12814
1659514954.386069,12817
1659514954.424685,12813
1659514954.463302,12803
1659514954.505336,12815
1659514954.54737,12816
1659514954.58667,12815
1659514954.625971,12822
1659514954.665271,12822
1659514954.703546,12824
1659514954.741821,12818
1659514954.780096,12810
1659514954.821617,12810
1659514954.863139,12816
1659514954.901755,12817
1659514954.940372,12813
1659514954.978989,12813
1659514955.02051,12823
1659514955.062032,12818
1659514955.10099,12823
1659514955.139949,12818
1659514955.178907,12809
1659514955.220429,12815
1659514955.26195,12811
1659514955.300225,12796
1659514955.3385,12789
1659514955.376775,12791
1659514955.419322,12796
1659514955.461869,12796
1659514955.501169,12793
1659514955.540469,12791
1659514955.579769,12793
1659514955.624196,12788
1659514955.668622,12805
1659514955.713048,12796
1659514955.746368,12802
1659514955.779688,12796
1659514955.824456,12799
1659514955.869224,12801
1659514955.913992,12794
1659514955.946799,12796
1659514955.979606,12783
1659514956.023691,12793
1659514956.067775,12793
1659514956.11186,12797
1659514956.15116,12799
1659514956.19046,12783
1659514956.22976,12770
1659514956.270769,12772
1659514956.311778,12775
1659514956.351078,12766
1659514956.390378,12783
1659514956.429679,12781
1659514956.471713,12786
1659514956.513747,12792
1659514956.552364,12793
1659514956.59098,12788
1659514956.629597,12777
1659514956.668555,12782
1659514956.707514,12788
1659514956.746472,12800
1659514956.788507,12807
1659514956.830541,12804
1659514956.872575,12806
1659514956.914609,12809
1659514956.952884,12808
1659514956.991159,12826
1659514957.029434,12821
1659514957.070955,12806
1659514957.112477,12813
1659514957.151435,12819
1659514957.190394,12818
1659514957.229352,12835
1659514957.270361,12831
1659514957.31137,12844
1659514957.349645,12844
1659514957.38792,12832
1659514957.426195,12828
1659514957.467716,12822
1659514957.509238,12816
1659514957.548196,12819
1659514957.587155,12833
1659514957.626113,12851
1659514957.667635,12857
1659514957.709156,12863
1659514957.748115,12859
1659514957.787073,12858
1659514957.826032,12846
1659514957.870458,12860
1659514957.914884,12841
1659514957.959311,12836
1659514957.993143,12833
1659514958.026975,12856
1659514958.071743,12855
1659514958.116511,12844
1659514958.161279,12872
1659514958.201776,12868
1659514958.242272,12872
1659514958.28123,12850
1659514958.320189,12862
1659514958.359147,12862
1659514958.397764,12873
1659514958.436381,12882
1659514958.474998,12871
1659514958.517544,12875
1659514958.560091,12871
1659514958.598366,12884
1659514958.636641,12873
1659514958.674916,12877
1659514958.71695,12880
1659514958.758984,12889
1659514958.798284,12886
1659514958.837584,12870
1659514958.876885,12871
1659514958.915502,12872
1659514958.954118,12888
1659514958.992735,12875
1659514959.034769,12877
1659514959.076803,12890
1659514959.116103,12887
1659514959.155404,12883
1659514959.194704,12882
1659514959.2352,12885
1659514959.275696,12892
1659514959.314655,12906
1659514959.353613,12897
1659514959.392572,12897
1659514959.435118,12906
1659514959.477665,12913
1659514959.515598,12922
1659514959.553532,12921
1659514959.591465,12923
1659514959.632474,12914
1659514959.673483,12924
1659514959.718592,12931
1659514959.763702,12925
1659514959.808812,12940
1659514959.847429,12944
1659514959.886045,12933
1659514959.924662,12943
1659514959.966696,12942
1659514960.00873,12948
1659514960.048031,12944
1659514960.087331,12942
1659514960.126631,12939
1659514960.164906,12958
1659514960.203181,12966
1659514960.241456,12969
1659514960.281952,12976
1659514960.322448,12990
1659514960.361749,13000
1659514960.401049,12982
1659514960.440349,12963
1659514960.481871,12955
1659514960.523392,12962
1659514960.562009,12972
1659514960.600626,12987
1659514960.639242,12982
1659514960.677859,12981
1659514960.716476,12987
1659514960.755092,12974
1659514960.796101,12972
1659514960.83711,12975
1659514960.876069,12982
1659514960.915027,12975
1659514960.953985,12988
1659514960.99602,12990
1659514961.038054,12987
1659514961.08248,13000
1659514961.126906,12996
1659514961.171333,13000
1659514961.20414,12993
1659514961.236947,12997
1659514961.282057,12988
1659514961.327167,12989
1659514961.372276,12985
1659514961.405596,12981
1659514961.438916,12989
1659514961.482659,12983
1659514961.526402,12996
1659514961.570144,12991
1659514961.609444,13005
1659514961.648745,13010
1659514961.688045,12999
1659514961.729054,12989
1659514961.770063,12992
1659514961.809363,13012
1659514961.848663,13020
1659514961.887963,13038
1659514961.928972,13035
1659514961.969981,13035
1659514962.009281,13033
1659514962.048581,13025
1659514962.087882,13020
1659514962.126498,13023
1659514962.165115,13039
1659514962.203732,13038
1659514962.246279,13047
1659514962.288825,13030
1659514962.327784,13026
1659514962.366742,13039
1659514962.405701,13038
1659514962.447222,13040
1659514962.488744,13041
1659514962.52736,13038
1659514962.565977,13021
1659514962.604594,13030
1659514962.647141,13015
1659514962.689687,13019
1659514962.727962,13030
1659514962.766237,13038
1659514962.804512,13040
1659514962.848938,13044
1659514962.893365,13044
1659514962.937791,13049
1659514962.970086,13065
1659514963.00238,13077
1659514963.046806,13073
1659514963.091233,13086
1659514963.135659,13081
1659514963.174276,13093
1659514963.212893,13078
1659514963.251509,13077
1659514963.293543,13089
1659514963.335577,13085
1659514963.374194,13089
1659514963.412811,13091
1659514963.451427,13106
1659514963.490386,13096
1659514963.529345,13100
1659514963.568303,13077
1659514963.60692,13074
1659514963.645536,13081
1659514963.684153,13075
1659514963.725162,13084
1659514963.766171,13092
1659514963.804788,13106
1659514963.843404,13112
1659514963.882021,13140
1659514963.924055,13126
1659514963.966089,13122
1659514964.009832,13121
1659514964.053575,13117
1659514964.097318,13129
1659514964.136276,13133
1659514964.175235,13155
1659514964.214193,13161
1659514964.255715,13168
1659514964.297236,13181
1659514964.336878,13169
1659514964.37652,13171
1659514964.416162,13162
1659514964.457171,13157
1659514964.49818,13140
1659514964.53748,13129
1659514964.57678,13117
1659514964.61608,13125
1659514964.654697,13135
1659514964.693314,13129
1659514964.73193,13137
1659514964.773965,13124
1659514964.815999,13131
1659514964.854957,13127
1659514964.893916,13129
1659514964.932874,13121
1659514964.971149,13121
1659514965.009424,13130
1659514965.047699,13124
1659514965.088195,13129
1659514965.128691,13123
1659514965.167992,13132
1659514965.207292,13129
1659514965.246592,13127
1659514965.288626,13136
1659514965.33066,13125
1659514965.369277,13124
1659514965.407894,13116
1659514965.446511,13117
1659514965.488545,13116
1659514965.530579,13117
1659514965.575689,13122
1659514965.620798,13129
1659514965.665908,13136
1659514965.698715,13136
1659514965.731522,13139
1659514965.77629,13145
1659514965.821059,13141
1659514965.865827,13147
1659514965.899146,13147
1659514965.932466,13150
1659514965.976209,13145
1659514966.019952,13161
1659514966.063694,13156
1659514966.102311,13160
1659514966.140928,13164
1659514966.179545,13166
1659514966.222091,13157
1659514966.264638,13133
1659514966.302571,13125
1659514966.340504,13121
1659514966.378438,13136
1659514966.417396,13138
1659514966.456355,13150
1659514966.495313,13154
1659514966.536835,13156
1659514966.578356,13166
1659514966.616631,13157
1659514966.654906,13162
1659514966.693181,13167
1659514966.735215,13178
1659514966.777249,13178
1659514966.81655,13181
1659514966.85585,13187
1659514966.89515,13190
1659514966.935646,13194
1659514966.976142,13189
1659514967.014759,13194
1659514967.053376,13190
1659514967.091993,13181
1659514967.134539,13166
1659514967.177086,13165
1659514967.215703,13174
1659514967.254319,13179
1659514967.292936,13188
1659514967.337021,13179
1659514967.381105,13186
1659514967.42519,13190
1659514967.45851,13197
1659514967.491829,13209
1659514967.536256,13211
1659514967.580682,13219
1659514967.625108,13220
1659514967.664408,13215
1659514967.703709,13212
1659514967.743009,13221
1659514967.782309,13216
1659514967.821609,13222
1659514967.860909,13234
1659514967.902431,13232
1659514967.943953,13229
1659514967.982569,13219
1659514968.021186,13199
1659514968.059803,13179
1659514968.098761,13182
1659514968.13772,13172
1659514968.176678,13174
1659514968.219225,13197
1659514968.261771,13212
1659514968.300046,13214
1659514968.338321,13219
1659514968.376596,13225
1659514968.417605,13228
1659514968.458614,13218
1659514968.503041,13210
1659514968.547467,13210
1659514968.591893,13226
1659514968.625726,13235
1659514968.659558,13234
1659514968.699952,13242
1659514968.740345,13243
1659514968.780739,13241
1659514968.821133,13244
1659514968.861527,13245
1659514968.905269,13234
1659514968.949012,13231
1659514968.992755,13216
1659514969.031713,13212
1659514969.070672,13206
1659514969.10963,13210
1659514969.151664,13225
1659514969.193699,13229
1659514969.232315,13231
1659514969.270932,13229
1659514969.309549,13228
1659514969.347824,13227
1659514969.386099,13242
1659514969.424374,13238
1659514969.465895,13246
1659514969.507417,13271
1659514969.545692,13265
1659514969.583967,13275
1659514969.622242,13261
1659514969.663763,13258
1659514969.705285,13254
1659514969.744927,13268
1659514969.784569,13268
1659514969.824211,13270
1659514969.865219,13295
1659514969.906228,13294
1659514969.944845,13292
1659514969.983462,13265
1659514970.022079,13257
1659514970.065138,13252
1659514970.108197,13238
1659514970.146814,13235
1659514970.185431,13254
1659514970.224047,13266
1659514970.26779,13278
1659514970.311533,13292
1659514970.355276,13282
1659514970.388596,13280
1659514970.421915,13285
1659514970.466,13280
1659514970.510084,13284
1659514970.554169,13283
1659514970.587489,13291
1659514970.620808,13307
1659514970.665235,13319
1659514970.709661,13323
1659514970.754087,13322
1659514970.792704,13330
1659514970.831321,13324
1659514970.869937,13309
1659514970.910946,13301
1659514970.951955,13297
1659514970.991939,13290
1659514971.031923,13313
1659514971.071906,13318
1659514971.113428,13331
1659514971.154949,13352
1659514971.193908,13346
1659514971.232866,13324
1659514971.271825,13312
1659514971.310783,13313
1659514971.349742,13315
1659514971.3887,13326
1659514971.431247,13334
1659514971.473794,13351
1659514971.512069,13364
1659514971.550344,13365
1659514971.588619,13348
1659514971.63014,13353
1659514971.671661,13347
1659514971.710278,13346
1659514971.748895,13361
1659514971.787512,13362
1659514971.829546,13370
1659514971.87158,13384
1659514971.909855,13384
1659514971.94813,13349
1659514971.986405,13353
1659514972.028439,13343
1659514972.070473,13353
1659514972.114558,13353
1659514972.158642,13357
1659514972.202727,13358
1659514972.241685,13360
1659514972.280644,13362
1659514972.319602,13362
1659514972.361636,13363
1659514972.40367,13360
1659514972.441945,13354
1659514972.48022,13361
1659514972.518495,13359
1659514972.557112,13366
1659514972.595729,13373
1659514972.634345,13371
1659514972.675867,13370
1659514972.717388,13367
1659514972.755663,13372
1659514972.793938,13370
1659514972.832213,13352
1659514972.874248,13339
1659514972.916281,13331
1659514972.954556,13331
1659514972.992831,13345
1659514973.031106,13368
1659514973.070407,13363
1659514973.109707,13364
1659514973.149007,13365
1659514973.190016,13362
1659514973.231025,13354
1659514973.269983,13363
1659514973.308942,13350
1659514973.3479,13358
1659514973.390447,13382
1659514973.432994,13388
1659514973.471269,13405
1659514973.509544,13414
1659514973.547819,13401
1659514973.588828,13383
1659514973.629836,13382
1659514973.674263,13382
1659514973.718689,13390
1659514973.763115,13400
1659514973.796948,13399
1659514973.83078,13404
1659514973.875206,13414
1659514973.919633,13416
1659514973.964059,13400
1659514974.003017,13399
1659514974.041976,13398
1659514974.080934,13407
1659514974.121943,13424
1659514974.162952,13439
1659514974.20191,13444
1659514974.240869,13444
1659514974.279828,13438
1659514974.322887,13432
1659514974.365946,13433
1659514974.404563,13447
1659514974.44318,13443
1659514974.481796,13443
1659514974.520755,13430
1659514974.559713,13434
1659514974.598672,13419
1659514974.63763,13396
1659514974.676589,13386
1659514974.715547,13372
1659514974.757069,13354
1659514974.79859,13351
1659514974.837207,13348
1659514974.875823,13356
1659514974.91444,13375
1659514974.959208,13367
1659514975.003976,13370
1659514975.048744,13357
1659514975.089241,13356
1659514975.129737,13362
1659514975.168012,13352
1659514975.206287,13354
1659514975.244562,13363
1659514975.287621,13376
1659514975.330681,13376
1659514975.369297,13365
1659514975.407914,13363
1659514975.446531,13366
1659514975.485489,13379
1659514975.524448,13375
1659514975.563406,13367
1659514975.60544,13367
1659514975.647474,13359
1659514975.685749,13351
1659514975.724024,13358
1659514975.762299,13365
1659514975.800916,13376
1659514975.839533,13398
1659514975.878149,13401
1659514975.920183,13387
1659514975.962218,13389
1659514976.000493,13381
1659514976.038768,13375
1659514976.077043,13381
1659514976.118051,13389
1659514976.15906,13390
1659514976.198019,13398
1659514976.236977,13388
1659514976.275936,13387
1659514976.317457,13385
1659514976.358979,13384
1659514976.397595,13384
1659514976.436212,13388
1659514976.474829,13379
1659514976.516863,13365
1659514976.558897,13370
1659514976.603323,13373
1659514976.64775,13374
1659514976.692176,13386
1659514976.731134,13389
1659514976.770093,13389
1659514976.809051,13383
1659514976.851598,13384
1659514976.894145,13383
1659514976.932761,13382
1659514976.971378,13386
1659514977.009995,13389
1659514977.051004,13399
1659514977.092013,13391
1659514977.130971,13399
1659514977.16993,13390
1659514977.208888,13397
1659514977.248188,13391
1659514977.287488,13390
1659514977.326789,13389
1659514977.367798,13389
1659514977.408807,13393
1659514977.448107,13375
1659514977.487407,13390
1659514977.526707,13382
1659514977.568229,13393
1659514977.60975,13409
1659514977.64905,13404
1659514977.68835,13407
1659514977.727651,13406
1659514977.766609,13415
1659514977.805568,13414
1659514977.844526,13428
1659514977.88656,13421
1659514977.928594,13424
1659514977.970116,13426
1659514978.011637,13423
1659514978.050938,13422
1659514978.090238,13420
1659514978.129538,13428
1659514978.170547,13424
1659514978.211556,13426
1659514978.250172,13429
1659514978.288789,13424
1659514978.327406,13418
1659514978.371149,13396
1659514978.414891,13410
1659514978.458634,13392
1659514978.492979,13397
1659514978.527324,13401
1659514978.571067,13415
1659514978.61481,13429
1659514978.658553,13432
1659514978.697511,13443
1659514978.73647,13456
1659514978.775428,13465
1659514978.816437,13451
1659514978.857446,13446
1659514978.896746,13449
1659514978.936046,13454
1659514978.975347,13449
1659514979.016868,13443
1659514979.058389,13450
1659514979.097348,13448
1659514979.136307,13469
1659514979.175265,13461
1659514979.216274,13455
1659514979.257283,13446
1659514979.298292,13431
1659514979.3393,13428
1659514979.378259,13428
1659514979.417217,13430
1659514979.456176,13436
1659514979.49821,13434
1659514979.540244,13439
1659514979.578519,13439
1659514979.616794,13454
1659514979.655069,13453
1659514979.694027,13446
1659514979.732986,13450
1659514979.771944,13452
1659514979.814491,13460
1659514979.857038,13464
1659514979.895313,13473
1659514979.933588,13475
1659514979.971863,13480
1659514980.012872,13480
1659514980.05388,13484
1659514980.093523,13484
1659514980.133164,13479
1659514980.172806,13495
1659514980.21484,13484
1659514980.256875,13462
1659514980.295491,13456
1659514980.334108,13466
1659514980.372725,13470
1659514980.414246,13460
1659514980.455768,13465
1659514980.494385,13463
1659514980.533001,13480
1659514980.571618,13473
1659514980.615361,13475
1659514980.659104,13488
1659514980.702846,13499
1659514980.737191,13512
1659514980.771536,13524
1659514980.816304,13521
1659514980.861072,13522
1659514980.90584,13534
1659514980.946849,13526
1659514980.987858,13518
1659514981.027158,13516
1659514981.066459,13518
1659514981.105759,13513
1659514981.144717,13519
1659514981.183676,13523
1659514981.222634,13507
1659514981.264156,13507
1659514981.305677,13510
1659514981.344636,13502
1659514981.383594,13510
1659514981.422553,13507
1659514981.460828,13511
1659514981.499103,13511
1659514981.537378,13501
1659514981.578386,13498
1659514981.619395,13501
1659514981.658012,13511
1659514981.696629,13510
1659514981.735245,13518
1659514981.777792,13526
1659514981.820339,13538
1659514981.858614,13534
1659514981.896889,13541
1659514981.935164,13542
1659514981.976685,13532
1659514982.018207,13521
1659514982.057165,13527
1659514982.096124,13537
1659514982.135082,13539
1659514982.177116,13521
1659514982.219151,13513
1659514982.257767,13507
1659514982.296384,13520
1659514982.335001,13514
1659514982.379427,13522
1659514982.423853,13530
1659514982.46828,13537
1659514982.508776,13528
1659514982.549272,13541
1659514982.587889,13537
1659514982.626506,13547
1659514982.665122,13543
1659514982.707669,13539
1659514982.750216,13538
1659514982.788832,13538
1659514982.827449,13553
1659514982.866066,13552
1659514982.904341,13565
1659514982.942616,13574
1659514982.980891,13580
1659514983.022925,13586
1659514983.064959,13581
1659514983.104601,13585
1659514983.144243,13555
1659514983.183885,13544
1659514983.224894,13541
1659514983.265903,13549
1659514983.305203,13552
1659514983.344503,13558
1659514983.383803,13583
1659514983.423103,13587
1659514983.462404,13592
1659514983.501704,13586
1659514983.543225,13589
1659514983.584747,13610
1659514983.623705,13603
1659514983.662664,13601
1659514983.701622,13594
1659514983.743144,13606
1659514983.784665,13608
1659514983.822598,13596
1659514983.860532,13604
1659514983.898465,13610
1659514983.940499,13609
1659514983.982533,13602
1659514984.027301,13600
1659514984.072069,13588
1659514984.116837,13559
1659514984.155454,13552
1659514984.194071,13555
1659514984.232687,13559
1659514984.274209,13554
1659514984.31573,13577
1659514984.355372,13574
1659514984.395014,13580
1659514984.434656,13586
1659514984.472931,13595
1659514984.511206,13604
1659514984.549481,13607
1659514984.58844,13616
1659514984.627398,13605
1659514984.666357,13615
1659514984.708903,13613
1659514984.75145,13618
1659514984.789383,13622
1659514984.827317,13619
1659514984.86525,13616
1659514984.906771,13623
1659514984.948293,13630
1659514984.986909,13630
1659514985.025526,13632
1659514985.064143,13611
1659514985.105664,13583
1659514985.147186,13580
1659514985.185461,13578
1659514985.223736,13593
1659514985.262011,13593
1659514985.304045,13614
1659514985.346079,13630
1659514985.390505,13620
1659514985.434932,13623
1659514985.479358,13620
1659514985.518317,13630
1659514985.557275,13630
1659514985.596233,13648
1659514985.63878,13648
1659514985.681327,13651
1659514985.719602,13659
1659514985.757877,13671
1659514985.796152,13648
1659514985.836648,13639
1659514985.877144,13642
1659514985.916445,13636
1659514985.955745,13654
1659514985.995045,13652
1659514986.034003,13647
1659514986.072962,13638
1659514986.11192,13623
1659514986.153442,13623
1659514986.194963,13621
1659514986.233922,13642
1659514986.27288,13651
1659514986.311839,13647
1659514986.35336,13645
1659514986.394882,13646
1659514986.43384,13643
1659514986.472799,13633
1659514986.511757,13641
1659514986.551057,13645
1659514986.590357,13660
1659514986.629658,13663
1659514986.671179,13692
1659514986.712701,13700
1659514986.751659,13689
1659514986.790617,13682
1659514986.829576,13671
1659514986.87161,13672
1659514986.913644,13674
1659514986.958412,13665
1659514987.00318,13647
1659514987.047948,13632
1659514987.080243,13632
1659514987.112537,13628
1659514987.156964,13636
1659514987.20139,13646
1659514987.245816,13661
1659514987.279649,13649
1659514987.313481,13650
1659514987.357566,13657
1659514987.40165,13659
1659514987.445735,13667
1659514987.484693,13667
1659514987.523652,13677
1659514987.56261,13670
1659514987.604644,13670
1659514987.646678,13669
1659514987.685295,13670
1659514987.723912,13683
1659514987.762528,13692
1659514987.804563,13684
1659514987.846597,13668
1659514987.885555,13634
1659514987.924514,13632
1659514987.963472,13638
1659514988.002089,13634
1659514988.040705,13644
1659514988.079322,13660
1659514988.119818,13670
1659514988.160315,13677
1659514988.198931,13684
1659514988.237548,13680
1659514988.276165,13686
1659514988.318199,13699
1659514988.360233,13705
1659514988.398166,13695
1659514988.4361,13708
1659514988.474033,13710
1659514988.515554,13708
1659514988.557076,13713
1659514988.596376,13711
1659514988.635676,13725
1659514988.674977,13726
1659514988.719061,13729
1659514988.763146,13709
1659514988.80723,13674
1659514988.841063,13637
1659514988.874895,13639
1659514988.919663,13640
1659514988.964431,13649
1659514989.009199,13652
1659514989.050208,13655
1659514989.091217,13659
1659514989.129833,13666
1659514989.16845,13674
1659514989.207067,13672
1659514989.246025,13676
1659514989.284984,13680
1659514989.323942,13677
1659514989.365464,13697
1659514989.406985,13700
1659514989.445944,13699
1659514989.484902,13695
1659514989.523861,13695
1659514989.565382,13701
1659514989.606904,13707
1659514989.645179,13708
1659514989.683454,13705
1659514989.721729,13705
1659514989.761371,13666
1659514989.801013,13643
1659514989.840654,13634
1659514989.882176,13631
1659514989.923697,13649
1659514989.962314,13658
1659514990.000931,13658
1659514990.039548,13654
1659514990.081582,13661
1659514990.123616,13671
1659514990.163258,13675
1659514990.2029,13673
1659514990.242542,13679
1659514990.283038,13690
1659514990.323534,13691
1659514990.362151,13691
1659514990.400768,13686
1659514990.439384,13683
1659514990.480906,13689
1659514990.522427,13693
1659514990.566512,13696
1659514990.610597,13693
1659514990.654681,13678
1659514990.693981,13638
1659514990.733282,13621
1659514990.772582,13620
1659514990.814616,13618
1659514990.85665,13630
1659514990.894925,13643
1659514990.9332,13660
1659514990.971475,13660
1659514991.010092,13668
1659514991.048708,13665
1659514991.087325,13667
1659514991.126625,13690
1659514991.165926,13682
1659514991.205225,13684
1659514991.246747,13683
1659514991.288269,13687
1659514991.326885,13694
1659514991.365502,13692
1659514991.404119,13691
1659514991.445128,13690
1659514991.486136,13696
1659514991.524411,13699
1659514991.562686,13685
1659514991.600961,13650
1659514991.644704,13611
1659514991.688447,13620
1659514991.73219,13613
1659514991.771148,13622
1659514991.810107,13633
1659514991.849065,13649
1659514991.890587,13651
1659514991.932108,13662
1659514991.971067,13673
1659514992.010025,13689
1659514992.048984,13696
1659514992.087942,13684
1659514992.126901,13675
1659514992.165859,13678
1659514992.207893,13667
1659514992.249927,13672
1659514992.288886,13668
1659514992.327844,13686
1659514992.366803,13680
1659514992.408837,13701
1659514992.450871,13701
1659514992.489829,13688
1659514992.528788,13664
1659514992.567746,13640
1659514992.606021,13647
1659514992.644296,13648
1659514992.682571,13647
1659514992.724605,13655
1659514992.766639,13670
1659514992.808674,13673
1659514992.850708,13677
1659514992.888983,13677
1659514992.927258,13683
1659514992.965533,13683
1659514993.007054,13689
1659514993.048576,13696
1659514993.088559,13706
1659514993.128543,13714
1659514993.168527,13717
1659514993.212611,13708
1659514993.256696,13709
1659514993.30078,13714
1659514993.333587,13734
1659514993.366395,13732
1659514993.411846,13710
1659514993.457298,13674
1659514993.502749,13630
1659514993.543246,13614
1659514993.583742,13598
1659514993.623042,13606
1659514993.662342,13609
1659514993.701642,13645
1659514993.740942,13647
1659514993.780243,13651
1659514993.819543,13657
1659514993.860039,13657
1659514993.900536,13656
1659514993.938469,13658
1659514993.976402,13673
1659514994.014335,13657
1659514994.053977,13673
1659514994.093619,13676
1659514994.133261,13679
1659514994.174783,13694
1659514994.216304,13704
1659514994.255262,13700
1659514994.294221,13702
1659514994.333179,13679
1659514994.374701,13636
1659514994.416222,13614
1659514994.454839,13592
1659514994.493456,13601
1659514994.532073,13619
1659514994.573594,13619
1659514994.615116,13644
1659514994.654074,13640
1659514994.693033,13642
1659514994.731991,13642
1659514994.773,13657
1659514994.814009,13669
1659514994.852284,13675
1659514994.890559,13698
1659514994.928834,13697
1659514994.972508,13685
1659514995.016183,13681
1659514995.059857,13681
1659514995.103532,13687
1659514995.147206,13697
1659514995.185139,13711
1659514995.223073,13708
1659514995.261006,13706
1659514995.303552,13677
1659514995.346099,13655
1659514995.385058,13639
1659514995.424016,13656
1659514995.462975,13658
1659514995.501933,13668
1659514995.540891,13672
1659514995.57985,13677
1659514995.621884,13672
1659514995.663918,13680
1659514995.702877,13688
1659514995.741835,13692
1659514995.780794,13695
1659514995.82129,13696
1659514995.861786,13705
1659514995.900745,13726
1659514995.939703,13728
1659514995.978662,13728
1659514996.017962,13725
1659514996.057262,13723
1659514996.096562,13729
1659514996.138084,13740
1659514996.179605,13761
1659514996.218222,13749
1659514996.256839,13718
1659514996.295455,13685
1659514996.337489,13690
1659514996.379524,13714
1659514996.42395,13716
1659514996.468376,13721
1659514996.512802,13722
1659514996.546635,13734
1659514996.580467,13734
1659514996.625577,13736
1659514996.670687,13734
1659514996.715796,13735
1659514996.748604,13737
1659514996.781411,13735
1659514996.825154,13722
1659514996.868896,13737
1659514996.912639,13727
1659514996.946471,13721
1659514996.980304,13756
1659514997.024389,13752
1659514997.068473,13738
1659514997.112558,13735
1659514997.151174,13721
1659514997.189791,13699
1659514997.228408,13688
1659514997.269417,13692
1659514997.310426,13695
1659514997.349384,13707
1659514997.388342,13685
1659514997.427301,13659
1659514997.465918,13652
1659514997.504534,13652
1659514997.543151,13655
1659514997.582451,13656
1659514997.621751,13680
1659514997.661052,13672
1659514997.702573,13685
1659514997.744095,13683
1659514997.78237,13677
1659514997.820645,13705
1659514997.85892,13730
1659514997.901466,13720
1659514997.944013,13723
1659514997.988781,13726
1659514998.033549,13721
1659514998.078317,13711
1659514998.116592,13699
1659514998.154867,13677
1659514998.193142,13685
1659514998.234151,13673
1659514998.27516,13685
1659514998.314118,13685
1659514998.353077,13701
1659514998.392035,13705
1659514998.429969,13701
1659514998.467902,13697
1659514998.505835,13704
1659514998.547869,13720
1659514998.589903,13750
1659514998.629545,13750
1659514998.669187,13743
1659514998.708829,13729
1659514998.747104,13729
1659514998.785379,13733
1659514998.823654,13750
1659514998.866201,13749
1659514998.908747,13743
1659514998.948048,13709
1659514998.987348,13695
1659514999.026648,13702
1659514999.067657,13714
1659514999.108666,13716
1659514999.147624,13726
1659514999.186583,13731
1659514999.225541,13710
1659514999.267063,13730
1659514999.308584,13741
1659514999.352669,13728
1659514999.396753,13726
1659514999.440838,13726
1659514999.47467,13736
1659514999.508502,13761
1659514999.553271,13760
1659514999.598039,13749
1659514999.642807,13757
1659514999.681082,13755
1659514999.719357,13759
1659514999.757632,13765
1659514999.79864,13742
1659514999.839649,13723
1659514999.879633,13717
1659514999.919617,13728
1659514999.9596,13723
1659515000.000609,13748
1659515000.041618,13773
1659515000.080577,13763
1659515000.119535,13759
1659515000.158494,13764
1659515000.196769,13773
1659515000.235044,13759
1659515000.273319,13764
1659515000.311594,13773
1659515000.349869,13785
1659515000.388144,13792
1659515000.428332,13790
1659515000.468521,13799
1659515000.50871,13795
1659515000.548898,13794
1659515000.589087,13783
1659515000.63283,13771
1659515000.676573,13765
1659515000.720315,13763
1659515000.753635,13763
1659515000.786955,13771
1659515000.831381,13778
1659515000.875808,13788
1659515000.920234,13779
1659515000.958851,13782
1659515000.997467,13787
1659515001.036084,13793
1659515001.078118,13812
1659515001.120152,13817
1659515001.159452,13810
1659515001.198753,13824
1659515001.238053,13815
1659515001.276328,13819
1659515001.314603,13834
1659515001.352878,13848
1659515001.393374,13857
1659515001.43387,13853
1659515001.473171,13817
1659515001.512471,13790
1659515001.551771,13754
1659515001.59278,13756
1659515001.633789,13775
1659515001.672405,13797
1659515001.711022,13831
1659515001.749639,13835
1659515001.79116,13834
1659515001.832682,13837
1659515001.872324,13825
1659515001.911966,13826
1659515001.951608,13817
1659515001.993129,13824
1659515002.034651,13828
1659515002.073609,13835
1659515002.112568,13857
1659515002.151526,13862
1659515002.196294,13862
1659515002.241062,13850
1659515002.28583,13815
1659515002.327352,13758
1659515002.368873,13734
1659515002.408515,13731
1659515002.448157,13723
1659515002.487799,13736
1659515002.528808,13745
1659515002.569817,13754
1659515002.608434,13773
1659515002.64705,13786
1659515002.685667,13800
1659515002.724284,13822
1659515002.7629,13807
1659515002.801517,13791
1659515002.843295,13798
1659515002.885073,13794
1659515002.926851,13800
1659515002.968628,13802
1659515003.01015,13807
1659515003.051672,13828
1659515003.09063,13831
1659515003.129588,13812
1659515003.168547,13745
1659515003.207847,13669
1659515003.247147,13658
1659515003.286448,13664
1659515003.327456,13691
1659515003.368465,13723
1659515003.407765,13732
1659515003.447066,13735
1659515003.486366,13730
1659515003.527375,13714
1659515003.568384,13731
1659515003.607,13751
1659515003.645617,13750
1659515003.684234,13766
1659515003.723192,13763
1659515003.762151,13775
1659515003.801109,13763
1659515003.842118,13781
1659515003.883127,13789
1659515003.92106,13789
1659515003.958993,13790
1659515003.996927,13783
1659515004.039473,13767
1659515004.08202,13698
1659515004.120979,13646
1659515004.159937,13615
1659515004.198895,13625
1659515004.239904,13640
1659515004.280913,13670
1659515004.319872,13705
1659515004.35883,13719
1659515004.397789,13740
1659515004.442898,13724
1659515004.488008,13722
1659515004.533118,13721
1659515004.57464,13721
1659515004.616161,13735
1659515004.655119,13738
1659515004.694078,13748
1659515004.733036,13765
1659515004.774558,13755
1659515004.816079,13753
1659515004.854012,13757
1659515004.891946,13758
1659515004.929879,13766
1659515004.968496,13767
1659515005.007113,13730
1659515005.045729,13679
1659515005.084688,13652
1659515005.123646,13648
1659515005.162605,13649
1659515005.206689,13655
1659515005.250774,13670
1659515005.294858,13689
1659515005.329203,13690
1659515005.363548,13690
1659515005.405241,13715
1659515005.446933,13737
1659515005.488625,13745
1659515005.530318,13762
1659515005.57201,13770
1659515005.613703,13775
1659515005.653003,13768
1659515005.692303,13764
1659515005.731603,13759
1659515005.77022,13785
1659515005.808836,13777
1659515005.847453,13787
1659515005.889487,13790
1659515005.931521,13795
1659515005.970138,13783
1659515006.008755,13738
1659515006.047372,13715
1659515006.088893,13721
1659515006.130415,13744
1659515006.168689,13762
1659515006.206964,13766
1659515006.245239,13784
1659515006.290008,13773
1659515006.334776,13775
1659515006.379544,13767
1659515006.412863,13765
1659515006.446183,13780
1659515006.490609,13794
1659515006.535036,13794
1659515006.579462,13799
1659515006.612782,13808
1659515006.646101,13780
1659515006.690528,13784
1659515006.734954,13777
1659515006.779381,13790
1659515006.817655,13816
1659515006.85593,13832
1659515006.894205,13819
1659515006.936239,13764
1659515006.978274,13750
1659515007.01689,13746
1659515007.055507,13755
1659515007.094124,13746
1659515007.13274,13763
1659515007.171357,13774
1659515007.209974,13776
1659515007.25047,13778
1659515007.290967,13772
1659515007.330267,13787
1659515007.369567,13782
1659515007.408867,13794
1659515007.449648,13801
1659515007.490429,13807
1659515007.53121,13816
1659515007.571991,13816
1659515007.612772,13813
1659515007.653553,13820
1659515007.694335,13806
1659515007.735116,13818
1659515007.775897,13826
1659515007.814684,13818
1659515007.853472,13788
1659515007.892259,13784
1659515007.931047,13784
1659515007.969835,13782
1659515008.008622,13802
1659515008.050144,13803
1659515008.091665,13816
1659515008.133187,13808
1659515008.174708,13803
1659515008.216486,13802
1659515008.258264,13827
1659515008.300042,13837
1659515008.34182,13835
1659515008.383341,13843
1659515008.424863,13845
1659515008.463138,13843
1659515008.501412,13841
1659515008.539687,13850
1659515008.578988,13856
1659515008.618288,13851
1659515008.657588,13851
1659515008.700135,13860
1659515008.742682,13845
1659515008.780957,13827
1659515008.819232,13838
1659515008.857507,13841
1659515008.899028,13846
1659515008.940549,13871
1659515008.97985,13871
1659515009.01915,13862
1659515009.05845,13858
1659515009.096383,13862
1659515009.134316,13872
1659515009.17225,13886
1659515009.214797,13880
1659515009.257343,13893
1659515009.29596,13898
1659515009.334577,13887
1659515009.373193,13889
1659515009.41369,13898
1659515009.454186,13902
1659515009.492803,13902
1659515009.531419,13902
1659515009.570036,13879
1659515009.612583,13861
1659515009.655129,13838
1659515009.699556,13830
1659515009.743982,13845
1659515009.788409,13850
1659515009.821216,13856
1659515009.854023,13862
1659515009.899132,13856
1659515009.944242,13857
1659515009.989352,13868
1659515010.027627,13863
1659515010.065902,13870
1659515010.104177,13871
1659515010.145699,13870
1659515010.18722,13885
1659515010.226178,13883
1659515010.265137,13882
1659515010.304095,13888
1659515010.34237,13890
1659515010.380645,13904
1659515010.41892,13904
1659515010.459929,13902
1659515010.500938,13877
1659515010.539896,13850
1659515010.578855,13852
1659515010.617813,13848
1659515010.659335,13855
1659515010.700856,13863
1659515010.739815,13866
1659515010.778773,13866
1659515010.817732,13871
1659515010.85669,13879
1659515010.895649,13880
1659515010.934607,13886
1659515010.979033,13890
1659515011.02346,13901
1659515011.067886,13907
1659515011.10992,13902
1659515011.151954,13903
1659515011.191596,13909
1659515011.231238,13908
1659515011.27088,13923
1659515011.309497,13922
1659515011.348114,13915
1659515011.38673,13895
1659515011.427227,13856
1659515011.467723,13848
1659515011.506681,13850
1659515011.54564,13850
1659515011.584598,13862
1659515011.623215,13881
1659515011.661832,13881
1659515011.700449,13880
1659515011.742482,13895
1659515011.784517,13894
1659515011.823133,13886
1659515011.86175,13889
1659515011.900367,13903
1659515011.942914,13910
1659515011.98546,13917
1659515012.024077,13910
1659515012.062694,13910
1659515012.10131,13927
1659515012.143344,13933
1659515012.185379,13936
1659515012.225021,13931
1659515012.264663,13911
1659515012.304304,13887
1659515012.345313,13868
1659515012.386322,13854
1659515012.424597,13852
1659515012.462872,13867
1659515012.501147,13876
1659515012.545915,13891
1659515012.590683,13883
1659515012.635451,13879
1659515012.676973,13893
1659515012.718494,13893
1659515012.757111,13898
1659515012.795728,13902
1659515012.834344,13911
1659515012.875353,13908
1659515012.916362,13914
1659515012.955321,13914
1659515012.994279,13911
1659515013.033238,13928
1659515013.071513,13921
1659515013.109787,13926
1659515013.148062,13939
1659515013.190609,13934
1659515013.233156,13885
1659515013.271773,13846
1659515013.31039,13844
1659515013.349006,13846
1659515013.387965,13869
1659515013.426923,13876
1659515013.465882,13888
1659515013.507403,13902
1659515013.548924,13903
1659515013.587883,13911
1659515013.626842,13921
1659515013.6658,13905
1659515013.706296,13901
1659515013.746793,13902
1659515013.786093,13903
1659515013.825393,13907
1659515013.864693,13932
1659515013.905702,13943
1659515013.946711,13954
1659515013.991137,13964
1659515014.035563,13960
1659515014.07999,13953
1659515014.114335,13934
1659515014.14868,13907
1659515014.193448,13849
1659515014.238216,13820
1659515014.282984,13810
1659515014.321259,13823
1659515014.359534,13849
1659515014.397809,13867
1659515014.440356,13901
1659515014.482902,13900
1659515014.522202,13901
1659515014.561503,13892
1659515014.600803,13894
1659515014.641812,13901
1659515014.682821,13889
1659515014.721779,13911
1659515014.760737,13913
1659515014.799696,13928
1659515014.838313,13927
1659515014.87693,13925
1659515014.915546,13923
1659515014.957068,13919
1659515014.998589,13917
1659515015.037548,13924
1659515015.076506,13925
1659515015.115464,13887
1659515015.156986,13830
1659515015.198508,13828
1659515015.237124,13825
1659515015.275741,13827
1659515015.314358,13850
1659515015.353316,13868
1659515015.392275,13877
1659515015.431233,13884
1659515015.47378,13897
1659515015.516326,13900
1659515015.557335,13907
1659515015.598344,13910
1659515015.637303,13920
1659515015.676261,13924
1659515015.71522,13923
1659515015.757766,13934
1659515015.800313,13927
1659515015.838588,13928
1659515015.876863,13940
1659515015.915138,13939
1659515015.954507,13937
1659515015.993875,13942
1659515016.033244,13926
1659515016.072612,13886
1659515016.111981,13876
1659515016.156065,13872
1659515016.20015,13884
1659515016.244235,13892
1659515016.283193,13899
1659515016.322151,13909
1659515016.36111,13915
1659515016.403656,13918
1659515016.446203,13922
1659515016.48482,13929
1659515016.523437,13936
1659515016.562053,13947
1659515016.60067,13952
1659515016.639287,13947
1659515016.677904,13957
1659515016.719425,13958
1659515016.760947,13962
1659515016.799905,13963
1659515016.838864,13969
1659515016.877822,13974
1659515016.919343,13979
1659515016.960865,13976
1659515016.999482,13950
1659515017.038098,13947
1659515017.076715,13935
1659515017.118237,13936
1659515017.159758,13953
1659515017.198033,13957
1659515017.236308,13958
1659515017.274583,13964
1659515017.316617,13970
1659515017.358651,13971
1659515017.398293,13985
1659515017.437935,13976
1659515017.477577,13976
1659515017.521662,13991
1659515017.565746,13986
1659515017.609831,14003
1659515017.648789,13991
1659515017.687748,13996
1659515017.726706,13995
1659515017.769253,13998
1659515017.8118,14014
1659515017.850758,13995
1659515017.889717,13983
1659515017.928675,13983
1659515017.967633,13985
1659515018.006592,13990
1659515018.04555,13997
1659515018.087072,13996
1659515018.128593,14002
1659515018.166527,14000
1659515018.20446,14000
1659515018.242393,14019
1659515018.284427,14015
1659515018.326461,14022
1659515018.365762,14025
1659515018.405062,14031
1659515018.444362,14041
1659515018.484858,14037
1659515018.525355,14046
1659515018.564313,14040
1659515018.603271,14060
1659515018.64223,14054
1659515018.684777,14033
1659515018.727323,13994
1659515018.765598,13974
1659515018.803873,13986
1659515018.842148,13992
1659515018.886233,14003
1659515018.930317,14018
1659515018.974402,14025
1659515019.008234,14018
1659515019.042067,14018
1659515019.086151,14022
1659515019.130236,14022
1659515019.17432,14031
1659515019.20764,14034
1659515019.24096,14036
1659515019.285386,14035
1659515019.329813,14041
1659515019.374239,14050
1659515019.412514,14060
1659515019.450789,14060
1659515019.489064,14057
1659515019.52956,14060
1659515019.570056,14033
1659515019.609356,14006
1659515019.648657,14006
1659515019.687957,14001
1659515019.726573,13993
1659515019.76519,14013
1659515019.803807,14018
1659515019.845841,14022
1659515019.887875,14034
1659515019.927176,14032
1659515019.966475,14033
1659515020.005776,14044
1659515020.047297,14054
1659515020.088819,14060
1659515020.127094,14072
1659515020.165369,14074
1659515020.203644,14080
1659515020.246191,14084
1659515020.288737,14085
1659515020.327354,14087
1659515020.365971,14100
1659515020.404587,14090
1659515020.445596,14060
1659515020.486605,14024
1659515020.525222,14009
1659515020.563838,14018
1659515020.602455,14032
1659515020.647223,14039
1659515020.691991,14065
1659515020.736759,14071
1659515020.778281,14062
1659515020.819803,14051
1659515020.859103,14063
1659515020.898403,14055
1659515020.937703,14063
1659515020.979737,14060
1659515021.021771,14050
1659515021.060388,14059
1659515021.099005,14056
1659515021.137621,14059
1659515021.176922,14061
1659515021.216222,14069
1659515021.255522,14057
1659515021.296787,14076
1659515021.338053,14043
1659515021.379318,13997
1659515021.420583,13982
1659515021.4592,13983
1659515021.497816,13990
1659515021.536433,14001
1659515021.57898,14013
1659515021.621526,14018
1659515021.660143,14021
1659515021.69876,14033
1659515021.737377,14022
1659515021.777873,14030
1659515021.818369,14031
1659515021.857328,14019
1659515021.896286,14030
1659515021.935245,14038
1659515021.974886,14063
1659515022.014529,14066
1659515022.05417,14058
1659515022.095179,14050
1659515022.136188,14052
1659515022.174805,14058
1659515022.213422,14071
1659515022.252038,14029
1659515022.294072,13976
1659515022.336107,13969
1659515022.374723,13973
1659515022.41334,13982
1659515022.451957,14004
1659515022.492453,14016
1659515022.532949,14023
1659515022.572249,14031
1659515022.61155,14033
1659515022.65085,14034
1659515022.691346,14043
1659515022.731843,14059
1659515022.770801,14067
1659515022.809759,14072
1659515022.848718,14068
1659515022.893486,14060
1659515022.938254,14067
1659515022.983022,14071
1659515023.024544,14085
1659515023.066065,14087
1659515023.104682,14100
1659515023.143298,14093
1659515023.181915,14072
1659515023.223949,14028
1659515023.265983,14023
1659515023.305284,14039
1659515023.344584,14044
1659515023.383884,14046
1659515023.422159,14051
1659515023.460434,14063
1659515023.498709,14066
1659515023.540743,14073
1659515023.582777,14072
1659515023.621394,14076
1659515023.660011,14094
1659515023.698627,14087
1659515023.737244,14085
1659515023.775861,14096
1659515023.814477,14111
1659515023.857024,14120
1659515023.899571,14115
1659515023.937846,14105
1659515023.976121,14102
1659515024.014396,14117
1659515024.055917,14114
1659515024.097439,14089
1659515024.136739,14054
1659515024.176039,14065
1659515024.215339,14063
1659515024.257886,14077
1659515024.300433,14094
1659515024.33905,14093
1659515024.377666,14100
1659515024.416283,14093
1659515024.458317,14096
1659515024.500351,14087
1659515024.544777,14091
1659515024.589204,14104
1659515024.63363,14104
1659515024.671563,14116
1659515024.709496,14111
1659515024.74743,14134
1659515024.789977,14132
1659515024.832523,14136
1659515024.87114,14120
1659515024.909757,14135
1659515024.948373,14144
1659515024.98887,14116
1659515025.029366,14096
1659515025.067983,14076
1659515025.106599,14083
1659515025.145216,14079
1659515025.184175,14088
1659515025.223133,14105
1659515025.262091,14110
1659515025.303613,14128
1659515025.345134,14125
1659515025.384093,14131
1659515025.423051,14123
1659515025.46201,14121
1659515025.504044,14127
1659515025.546078,14151
1659515025.584695,14144
1659515025.623312,14147
1659515025.661928,14155
1659515025.701228,14149
1659515025.740529,14162
1659515025.779829,14162
1659515025.820325,14182
1659515025.860821,14167
1659515025.902343,14105
1659515025.943864,14065
1659515025.982139,14065
1659515026.020414,14092
1659515026.058689,14105
1659515026.103116,14116
1659515026.147542,14120
1659515026.191968,14119
1659515026.225801,14130
1659515026.259633,14138
1659515026.303376,14144
1659515026.347119,14151
1659515026.390862,14152
1659515026.42982,14144
1659515026.468778,14166
1659515026.507737,14164
1659515026.547925,14167
1659515026.588114,14173
1659515026.628303,14159
1659515026.668492,14148
1659515026.70868,14155
1659515026.747981,14167
1659515026.787281,14130
1659515026.826581,14049
1659515026.86554,13954
1659515026.904498,13930
1659515026.943456,13920
1659515026.984465,13921
1659515027.025474,13950
1659515027.064433,13963
1659515027.103391,13976
1659515027.142349,13974
1659515027.186434,13984
1659515027.230519,14000
1659515027.274603,14020
1659515027.307923,14031
1659515027.341243,14034
1659515027.386353,14039
1659515027.431462,14031
1659515027.476572,14029
1659515027.518094,14060
1659515027.559615,14075
1659515027.598232,14071
1659515027.636848,14074
1659515027.675465,14067
1659515027.714766,14072
1659515027.754066,14060
1659515027.793366,13971
1659515027.8354,13933
1659515027.877434,13942
1659515027.915367,13933
1659515027.9533,13954
1659515027.991234,13976
1659515028.031012,13996
1659515028.070791,13998
1659515028.11057,14007
1659515028.150348,13988
1659515028.190127,13990
1659515028.228744,14019
1659515028.26736,14027
1659515028.305977,14037
1659515028.347499,14050
1659515028.38902,14056
1659515028.427637,14072
1659515028.466254,14064
1659515028.50487,14055
1659515028.545879,14060
1659515028.586888,14070
1659515028.626188,14077
1659515028.665488,14042
1659515028.704789,13977
1659515028.74631,13951
1659515028.787832,13954
1659515028.832258,13941
1659515028.876684,13962
1659515028.921111,13972
1659515028.953918,13981
1659515028.986725,13996
1659515029.031493,14008
1659515029.076261,14023
1659515029.121029,14041
1659515029.159646,14044
1659515029.198262,14059
1659515029.236879,14051
1659515029.277375,14054
1659515029.317872,14043
1659515029.357172,14044
1659515029.396472,14064
1659515029.435772,14087
1659515029.474047,14092
1659515029.512322,14105
1659515029.550597,14104
1659515029.593144,14085
1659515029.635691,14067
1659515029.674991,13994
1659515029.714291,13962
1659515029.753591,13977
1659515029.7946,13970
1659515029.835609,13990
1659515029.874568,14002
1659515029.913526,14022
1659515029.952484,14018
1659515029.991785,14040
1659515030.031085,14033
1659515030.070385,14037
1659515030.112419,14058
1659515030.154453,14058
1659515030.19307,14059
1659515030.231687,14077
1659515030.270303,14079
1659515030.315071,14079
1659515030.359839,14092
1659515030.404608,14076
1659515030.443224,14080
1659515030.481841,14105
1659515030.520458,14107
1659515030.560954,14102
1659515030.60145,14069
1659515030.64075,14009
1659515030.680051,13996
1659515030.719351,14019
1659515030.761385,14040
1659515030.803419,14046
1659515030.842377,14060
1659515030.881336,14062
1659515030.920295,14058
1659515030.959253,14054
1659515030.998211,14064
1659515031.03717,14092
1659515031.079204,14096
1659515031.121238,14102
1659515031.160197,14097
1659515031.199155,14109
1659515031.238113,14114
1659515031.279122,14132
1659515031.320131,14129
1659515031.35909,14133
1659515031.398048,14160
1659515031.437006,14176
1659515031.477503,14189
1659515031.517999,14168
1659515031.556957,14155
1659515031.595916,14129
1659515031.634875,14157
1659515031.679301,14160
1659515031.723727,14161
1659515031.768153,14177
1659515031.804805,14174
1659515031.841457,14170
1659515031.878109,14173
1659515031.91476,14173
1659515031.959528,14184
1659515032.004296,14178
1659515032.049064,14164
1659515032.088365,14162
1659515032.127665,14165
1659515032.166965,14152
1659515032.205582,14156
1659515032.244198,14151
1659515032.282815,14149
1659515032.324849,14144
1659515032.366883,14149
1659515032.405158,14156
1659515032.443433,14152
1659515032.481708,14133
1659515032.523742,14071
1659515032.565777,14061
1659515032.607298,14047
1659515032.648819,14039
1659515032.690341,14061
1659515032.731863,14077
1659515032.770138,14088
1659515032.808413,14100
1659515032.846688,14118
1659515032.886329,14111
1659515032.925971,14131
1659515032.965613,14133
1659515033.007648,14145
1659515033.049682,14162
1659515033.087956,14167
1659515033.126231,14179
1659515033.164506,14166
1659515033.204148,14163
1659515033.24379,14153
1659515033.283432,14156
1659515033.325466,14158
1659515033.367501,14170
1659515033.406117,14192
1659515033.444734,14163
1659515033.483351,14120
1659515033.524872,14082
1659515033.566394,14069
1659515033.605352,14083
1659515033.644311,14103
1659515033.683269,14129
1659515033.727012,14123
1659515033.770755,14132
1659515033.814497,14130
1659515033.84833,14138
1659515033.882162,14152
1659515033.926589,14151
1659515033.971015,14159
1659515034.015441,14158
1659515034.053716,14154
1659515034.091991,14163
1659515034.130266,14181
1659515034.1723,14188
1659515034.214334,14188
1659515034.253293,14183
1659515034.292251,14184
1659515034.33121,14193
1659515034.372731,14178
1659515034.414253,14154
1659515034.453211,14119
1659515034.49217,14098
1659515034.531128,14096
1659515034.569745,14109
1659515034.608361,14124
1659515034.646978,14133
1659515034.687474,14146
1659515034.727971,14164
1659515034.766587,14161
1659515034.805204,14172
1659515034.843821,14170
1659515034.888247,14166
1659515034.932673,14177
1659515034.9771,14192
1659515035.016058,14203
1659515035.055017,14204
1659515035.093975,14208
1659515035.13225,14200
1659515035.170525,14211
1659515035.2088,14208
1659515035.250834,14225
1659515035.292868,14210
1659515035.331485,14171
1659515035.370102,14140
1659515035.408719,14147
1659515035.450753,14140
1659515035.492787,14156
1659515035.531745,14169
1659515035.570704,14175
1659515035.609662,14182
1659515035.648621,14179
1659515035.687579,14193
1659515035.726537,14198
1659515035.767034,14198
1659515035.80753,14204
1659515035.84683,14207
1659515035.88613,14210
1659515035.925431,14212
1659515035.967465,14216
1659515036.009499,14214
1659515036.047774,14210
1659515036.086049,14226
1659515036.124324,14233
1659515036.16875,14244
1659515036.213176,14229
1659515036.257603,14191
1659515036.299637,14138
1659515036.341671,14137
1659515036.380288,14139
1659515036.418904,14149
1659515036.457521,14160
1659515036.500068,14178
1659515036.542614,14194
1659515036.581573,14199
1659515036.620532,14203
1659515036.65949,14192
1659515036.698448,14205
1659515036.737407,14210
1659515036.776365,14216
1659515036.817374,14225
1659515036.858383,14223
1659515036.897341,14237
1659515036.9363,14235
1659515036.975258,14246
1659515037.015242,14242
1659515037.055226,14241
1659515037.09521,14228
1659515037.135193,14227
1659515037.175177,14192
1659515037.214545,14156
1659515037.253914,14155
1659515037.293283,14158
1659515037.332651,14157
1659515037.37202,14158
1659515037.411662,14173
1659515037.451303,14174
1659515037.490945,14197
1659515037.532979,14198
1659515037.575014,14193
1659515037.613289,14201
1659515037.651564,14207
1659515037.689839,14206
1659515037.731873,14223
1659515037.773907,14227
1659515037.818333,14232
1659515037.862759,14235
1659515037.907186,14241
1659515037.939993,14242
1659515037.9728,14246
1659515038.016543,14261
1659515038.060286,14237
1659515038.104028,14204
1659515038.136836,14176
1659515038.169643,14174
1659515038.213727,14184
1659515038.257812,14192
1659515038.301896,14215
1659515038.341197,14217
1659515038.380497,14216
1659515038.419797,14214
1659515038.461318,14223
1659515038.50284,14230
1659515038.541457,14229
1659515038.580073,14251
1659515038.61869,14261
1659515038.657649,14257
1659515038.696607,14256
1659515038.735565,14258
1659515038.778112,14271
1659515038.820659,14274
1659515038.859276,14282
1659515038.897892,14280
1659515038.936509,14272
1659515038.978543,14231
1659515039.020577,14200
1659515039.059536,14175
1659515039.098494,14183
1659515039.137453,14188
1659515039.179487,14212
1659515039.221521,14228
1659515039.259796,14230
1659515039.298071,14237
1659515039.336346,14253
1659515039.377867,14257
1659515039.419389,14261
1659515039.46091,14259
1659515039.502432,14268
1659515039.543953,14273
1659515039.585475,14294
1659515039.624433,14290
1659515039.663392,14292
1659515039.70235,14293
1659515039.744385,14302
1659515039.786418,14293
1659515039.825035,14293
1659515039.863652,14311
1659515039.902269,14273
1659515039.944303,14214
1659515039.986337,14193
1659515040.025637,14199
1659515040.064937,14203
1659515040.104238,14226
1659515040.142854,14246
1659515040.181471,14252
1659515040.220088,14250
1659515040.261096,14250
1659515040.302105,14265
1659515040.341406,14254
1659515040.380706,14260
1659515040.420006,14269
1659515040.461528,14299
1659515040.503049,14302
1659515040.541324,14296
1659515040.579599,14308
1659515040.617874,14302
1659515040.659395,14324
1659515040.700917,14333
1659515040.745343,14321
1659515040.78977,14334
1659515040.834196,14300
1659515040.868028,14255
1659515040.901861,14209
1659515040.945945,14211
1659515040.99003,14220
1659515041.034114,14226
1659515041.073073,14232
1659515041.112031,14241
1659515041.15099,14267
1659515041.191998,14272
1659515041.233007,14284
1659515041.272308,14274
1659515041.311608,14287
1659515041.350908,14290
1659515041.391917,14298
1659515041.432926,14310
1659515041.471543,14298
1659515041.510159,14302
1659515041.548776,14295
1659515041.587051,14307
1659515041.625326,14322
1659515041.663601,14321
1659515041.705635,14339
1659515041.747669,14332
1659515041.789703,14300
1659515041.831738,14261
1659515041.870012,14248
1659515041.908287,14252
1659515041.946562,14266
1659515041.988596,14294
1659515042.030631,14302
1659515042.070272,14313
1659515042.109915,14320
1659515042.149556,14319
1659515042.190565,14321
1659515042.231574,14342
1659515042.270533,14350
1659515042.309491,14349
1659515042.348449,14348
1659515042.387408,14344
1659515042.426367,14353
1659515042.465325,14358
1659515042.506846,14379
1659515042.548368,14380
1659515042.587326,14374
1659515042.626285,14369
1659515042.665243,14365
1659515042.706765,14364
1659515042.748286,14354
1659515042.786561,14356
1659515042.824836,14367
1659515042.863111,14373
1659515042.908221,14386
1659515042.953331,14393
1659515042.998441,14383
1659515043.040987,14385
1659515043.083534,14385
1659515043.121809,14385
1659515043.160084,14396
1659515043.198359,14397
1659515043.239881,14398
1659515043.281402,14406
1659515043.321044,14404
1659515043.360686,14414
1659515043.400328,14422
1659515043.438261,14431
1659515043.476194,14438
1659515043.514127,14427
1659515043.556674,14425
1659515043.599221,14420
1659515043.637838,14406
1659515043.676454,14378
1659515043.715071,14363
1659515043.755567,14371
1659515043.796064,14379
1659515043.834339,14388
1659515043.872614,14388
1659515043.910889,14382
1659515043.949847,14383
1659515043.988806,14400
1659515044.027764,14411
1659515044.069414,14416
1659515044.111063,14432
1659515044.152713,14428
1659515044.194363,14420
1659515044.236012,14402
1659515044.277662,14393
1659515044.319312,14394
1659515044.360961,14397
1659515044.399749,14404
1659515044.438536,14413
1659515044.477324,14434
1659515044.516112,14428
1659515044.554899,14416
1659515044.593687,14342
1659515044.632303,14314
1659515044.67092,14326
1659515044.709537,14333
1659515044.753622,14341
1659515044.797706,14359
1659515044.841791,14374
1659515044.880749,14363
1659515044.919708,14361
1659515044.958666,14359
1659515044.997966,14359
1659515045.037266,14378
1659515045.076567,14382
1659515045.117063,14385
1659515045.157559,14388
1659515045.196859,14394
1659515045.23616,14399
1659515045.27546,14398
1659515045.316981,14404
1659515045.358503,14411
1659515045.397803,14411
1659515045.437103,14411
1659515045.476403,14401
1659515045.515362,14380
1659515045.55432,14399
1659515045.593279,14403
1659515045.635313,14409
1659515045.677347,14413
1659515045.715622,14399
1659515045.753897,14408
1659515045.792172,14411
1659515045.834206,14411
1659515045.87624,14409
1659515045.920666,14408
1659515045.965093,14419
1659515046.009519,14421
1659515046.042326,14437
1659515046.075133,14435
1659515046.119218,14431
1659515046.163302,14426
1659515046.207387,14439
1659515046.241732,14434
1659515046.276077,14444
1659515046.320162,14428
1659515046.364246,14381
1659515046.408331,14348
1659515046.447289,14346
1659515046.486248,14364
1659515046.525206,14359
1659515046.56724,14384
1659515046.609274,14397
1659515046.648233,14395
1659515046.687191,14411
1659515046.72615,14407
1659515046.764083,14404
1659515046.802016,14410
1659515046.839949,14401
1659515046.883009,14418
1659515046.926068,14412
1659515046.964343,14422
1659515047.002618,14422
1659515047.040893,14440
1659515047.081389,14428
1659515047.121886,14429
1659515047.160844,14426
1659515047.199802,14397
1659515047.238761,14357
1659515047.280282,14326
1659515047.321804,14331
1659515047.360079,14325
1659515047.398354,14337
1659515047.436629,14352
1659515047.478663,14365
1659515047.520697,14368
1659515047.560681,14377
1659515047.600664,14395
1659515047.640648,14393
1659515047.680632,14398
1659515047.720615,14405
1659515047.759916,14399
1659515047.799216,14403
1659515047.838516,14415
1659515047.882942,14415
1659515047.927369,14417
1659515047.971795,14408
1659515048.009728,14422
1659515048.047661,14434
1659515048.085595,14424
1659515048.127629,14366
1659515048.169663,14300
1659515048.20828,14270
1659515048.246896,14262
1659515048.285513,14277
1659515048.327034,14309
1659515048.368556,14330
1659515048.407515,14331
1659515048.446473,14348
1659515048.485431,14346
1659515048.524732,14357
1659515048.564032,14388
1659515048.603332,14387
1659515048.644341,14379
1659515048.68535,14386
1659515048.724992,14389
1659515048.764634,14390
1659515048.804276,14404
1659515048.84631,14409
1659515048.888344,14419
1659515048.92696,14418
1659515048.965577,14418
1659515049.004194,14396
1659515049.045203,14352
1659515049.086212,14330
1659515049.125854,14322
1659515049.165496,14341
1659515049.205137,14356
1659515049.246146,14354
1659515049.287155,14376
1659515049.325772,14383
1659515049.364389,14398
1659515049.403006,14400
1659515049.447773,14398
1659515049.492542,14417
1659515049.53731,14413
1659515049.578319,14413
1659515049.619328,14429
1659515049.658286,14445
1659515049.697244,14432
1659515049.736203,14436
1659515049.778237,14430
1659515049.820271,14425
1659515049.858888,14447
1659515049.897505,14461
1659515049.936121,14430
1659515049.97508,14376
1659515050.014038,14343
1659515050.052997,14340
1659515050.095031,14345
1659515050.137065,14373
1659515050.175682,14401
1659515050.214298,14409
1659515050.252915,14411
1659515050.293411,14405
1659515050.333908,14425
1659515050.372524,14435
1659515050.411141,14456
1659515050.449758,14451
1659515050.488716,14450
1659515050.527675,14449
1659515050.566633,14448
1659515050.608155,14457
1659515050.649676,14470
1659515050.688634,14477
1659515050.727593,14484
1659515050.766551,14479
1659515050.808586,14481
1659515050.85062,14455
1659515050.889236,14378
1659515050.927853,14349
1659515050.96647,14349
1659515051.008504,14356
1659515051.050538,14367
1659515051.095306,14386
1659515051.140074,14401
1659515051.184842,14411
1659515051.217649,14427
1659515051.250456,14431
1659515051.294199,14441
1659515051.337942,14445
1659515051.381685,14455
1659515051.420643,14460
1659515051.459602,14462
1659515051.49856,14467
1659515051.536835,14466
1659515051.57511,14475
1659515051.613385,14477
1659515051.655419,14478
1659515051.697453,14480
1659515051.736754,14497
1659515051.776054,14500
1659515051.815354,14495
1659515051.853971,14466
1659515051.892587,14404
1659515051.931204,14377
1659515051.972726,14394
1659515052.014247,14391
1659515052.054231,14395
1659515052.094214,14435
1659515052.134198,14434
1659515052.17572,14431
1659515052.217241,14439
1659515052.2562,14456
1659515052.295158,14454
1659515052.334117,14476
1659515052.375638,14467
1659515052.41716,14466
1659515052.461244,14478
1659515052.505329,14482
1659515052.549413,14496
1659515052.582221,14507
1659515052.615028,14506
1659515052.659796,14495
1659515052.704564,14503
1659515052.749332,14509
1659515052.781626,14512
1659515052.813921,14524
1659515052.853904,14497
1659515052.893888,14479
1659515052.933872,14456
1659515052.973855,14454
1659515053.013839,14469
1659515053.058265,14483
1659515053.102692,14486
1659515053.147118,14487
1659515053.185393,14498
1659515053.223668,14501
1659515053.261943,14509
1659515053.303977,14503
1659515053.346011,14506
1659515053.385311,14520
1659515053.424612,14545
1659515053.463912,14533
1659515053.502187,14524
1659515053.540462,14523
1659515053.578737,14526
1659515053.619745,14546
1659515053.660754,14544
1659515053.699371,14554
1659515053.737988,14568
1659515053.776605,14565
1659515053.818126,14540
1659515053.859648,14507
1659515053.898264,14503
1659515053.936881,14506
1659515053.975498,14516
1659515054.017532,14536
1659515054.059566,14529
1659515054.098183,14532
1659515054.1368,14531
1659515054.175416,14535
1659515054.216938,14547
1659515054.258459,14548
1659515054.297759,14553
1659515054.337059,14559
1659515054.37636,14563
1659515054.420786,14560
1659515054.465212,14566
1659515054.509639,14569
1659515054.542446,14580
1659515054.575253,14580
1659515054.620021,14575
1659515054.664789,14582
1659515054.709557,14581
1659515054.747832,14593
1659515054.786107,14580
1659515054.824382,14564
1659515054.866416,14561
1659515054.90845,14570
1659515054.947409,14565
1659515054.986367,14577
1659515055.025326,14581
1659515055.066334,14582
1659515055.107343,14580
1659515055.146302,14583
1659515055.18526,14586
1659515055.224219,14590
1659515055.263519,14598
1659515055.302819,14591
1659515055.342119,14591
1659515055.384154,14610
1659515055.426188,14611
1659515055.464804,14614
1659515055.503421,14626
1659515055.542038,14620
1659515055.583559,14622
1659515055.625081,14629
1659515055.664381,14633
1659515055.703681,14622
1659515055.742981,14600
1659515055.784503,14569
1659515055.826024,14553
1659515055.864299,14567
1659515055.902574,14563
1659515055.940849,14582
1659515055.982883,14593
1659515056.024918,14599
1659515056.063193,14596
1659515056.101468,14605
1659515056.139742,14609
1659515056.184169,14614
1659515056.228595,14624
1659515056.273021,14627
1659515056.315056,14633
1659515056.35709,14631
1659515056.396048,14628
1659515056.435007,14629
1659515056.473965,14632
1659515056.515486,14634
1659515056.557008,14627
1659515056.595967,14638
1659515056.634925,14645
1659515056.673883,14644
1659515056.712842,14634
1659515056.7518,14594
1659515056.790759,14577
1659515056.831255,14573
1659515056.871751,14582
1659515056.911052,14578
1659515056.950352,14586
1659515056.989652,14595
1659515057.030148,14602
1659515057.070645,14607
1659515057.109261,14611
1659515057.147878,14621
1659515057.186495,14622
1659515057.225453,14620
1659515057.264411,14629
1659515057.30337,14642
1659515057.344892,14643
1659515057.386413,14641
1659515057.425371,14643
1659515057.46433,14642
1659515057.503289,14651
1659515057.545835,14640
1659515057.588382,14637
1659515057.63315,14645
1659515057.677918,14647
1659515057.722686,14624
1659515057.755493,14592
1659515057.7883,14576
1659515057.833068,14563
1659515057.877836,14573
1659515057.922604,14591
1659515057.956437,14595
1659515057.990269,14614
1659515058.034012,14617
1659515058.077755,14635
1659515058.121498,14625
1659515058.161481,14632
1659515058.201465,14641
1659515058.241449,14647
1659515058.281432,14652
1659515058.321416,14658
1659515058.359691,14668
1659515058.397966,14659
1659515058.436241,14669
1659515058.478788,14656
1659515058.521334,14659
1659515058.560635,14677
1659515058.599935,14680
1659515058.639235,14689
1659515058.680244,14675
1659515058.721253,14647
1659515058.760211,14601
1659515058.79917,14606
1659515058.838128,14597
1659515058.877087,14605
1659515058.916045,14619
1659515058.955003,14615
1659515058.996525,14622
1659515059.038046,14644
1659515059.076663,14638
1659515059.11528,14640
1659515059.153897,14642
1659515059.195418,14651
1659515059.23694,14654
1659515059.275215,14669
1659515059.31349,14674
1659515059.351764,14674
1659515059.393799,14672
1659515059.435833,14680
1659515059.474108,14672
1659515059.512383,14681
1659515059.550658,14682
1659515059.595084,14680
1659515059.63951,14653
1659515059.683937,14592
1659515059.717256,14577
1659515059.750576,14567
1659515059.795344,14568
1659515059.840112,14581
1659515059.88488,14597
1659515059.926402,14611
1659515059.967923,14607
1659515060.00654,14599
1659515060.045157,14607
1659515060.083773,14609
1659515060.122732,14612
1659515060.16169,14617
1659515060.200649,14634
1659515060.241658,14639
1659515060.282667,14644
1659515060.321283,14645
1659515060.3599,14646
1659515060.398517,14641
1659515060.440551,14662
1659515060.482585,14653
1659515060.521544,14655
1659515060.560502,14671
1659515060.59946,14658
1659515060.637735,14626
1659515060.67601,14596
1659515060.714285,14592
1659515060.755807,14595
1659515060.797328,14601
1659515060.837312,14616
1659515060.877296,14618
1659515060.917279,14642
1659515060.958288,14638
1659515060.999297,14646
1659515061.038255,14637
1659515061.077214,14634
1659515061.116173,14635
1659515061.158719,14645
1659515061.201266,14645
1659515061.240224,14641
1659515061.279183,14664
1659515061.318141,14670
1659515061.358638,14685
1659515061.399134,14679
1659515061.443902,14684
1659515061.48867,14682
1659515061.533438,14684
1659515061.572055,14671
1659515061.610672,14649
1659515061.649288,14620
1659515061.687563,14603
1659515061.725838,14619
1659515061.764113,14617
1659515061.807173,14615
1659515061.850232,14649
1659515061.888849,14640
1659515061.927465,14637
1659515061.966082,14634
1659515062.00504,14644
1659515062.043999,14656
1659515062.082957,14674
1659515062.124991,14676
1659515062.167026,14684
1659515062.205301,14690
1659515062.243576,14688
1659515062.28185,14679
1659515062.323884,14683
1659515062.365919,14686
1659515062.404535,14694
1659515062.443152,14707
1659515062.481769,14721
1659515062.522778,14704
1659515062.563787,14703
1659515062.602062,14661
1659515062.640337,14620
1659515062.678612,14589
1659515062.721158,14599
1659515062.763705,14609
1659515062.80779,14618
1659515062.851874,14629
1659515062.895959,14629
1659515062.934234,14643
1659515062.972509,14641
1659515063.010784,14645
1659515063.052818,14641
1659515063.094852,14647
1659515063.133469,14656
1659515063.172085,14649
1659515063.210702,14665
1659515063.249319,14652
1659515063.287935,14657
1659515063.326552,14647
1659515063.369099,14655
1659515063.411646,14647
1659515063.453167,14652
1659515063.494689,14655
1659515063.53621,14643
1659515063.577732,14597
1659515063.61464,14513
1659515063.651548,14447
1659515063.688456,14438
1659515063.725364,14435
1659515063.76791,14429
1659515063.810457,14447
1659515063.848732,14487
1659515063.887007,14495
1659515063.925282,14513
1659515063.967316,14517
1659515064.00935,14523
1659515064.048309,14532
1659515064.087267,14550
1659515064.126226,14555
1659515064.165526,14551
1659515064.204826,14562
1659515064.244126,14561
1659515064.285648,14578
1659515064.327169,14581
1659515064.369203,14584
1659515064.411237,14605
1659515064.452759,14594
1659515064.494281,14584
1659515064.535802,14524
1659515064.577324,14465
1659515064.61594,14445
1659515064.654557,14481
1659515064.693174,14486
1659515064.735208,14501
1659515064.777242,14529
1659515064.815517,14517
1659515064.853792,14516
1659515064.892067,14520
1659515064.930684,14536
1659515064.9693,14545
1659515065.007917,14545
1659515065.049438,14550
1659515065.09096,14553
1659515065.129919,14563
1659515065.168877,14558
1659515065.207835,14567
1659515065.24987,14573
1659515065.291904,14578
1659515065.331204,14580
1659515065.370504,14593
1659515065.409804,14578
1659515065.451326,14498
1659515065.492847,14428
1659515065.531122,14407
1659515065.569397,14415
1659515065.607672,14403
1659515065.650219,14429
1659515065.692766,14463
1659515065.73685,14466
1659515065.780935,14468
1659515065.825019,14470
1659515065.863294,14488
1659515065.901569,14502
1659515065.939844,14518
1659515065.980853,14524
1659515066.021862,14523
1659515066.060821,14529
1659515066.099779,14526
1659515066.138737,14534
1659515066.177012,14537
1659515066.215287,14537
1659515066.253562,14538
1659515066.293546,14562
1659515066.33353,14542
1659515066.373513,14453
1659515066.414522,14384
1659515066.455531,14349
1659515066.493806,14309
1659515066.532081,14313
1659515066.570356,14322
1659515066.612903,14349
1659515066.65545,14370
1659515066.69475,14369
1659515066.73405,14361
1659515066.77335,14366
1659515066.813846,14372
1659515066.854343,14391
1659515066.893643,14404
1659515066.932943,14425
1659515066.972243,14440
1659515067.013252,14454
1659515067.054261,14467
1659515067.09322,14475
1659515067.132178,14483
1659515067.171136,14483
1659515067.215904,14497
1659515067.260673,14488
1659515067.305441,14445
1659515067.344399,14339
1659515067.383358,14301
1659515067.422316,14283
1659515067.463325,14275
1659515067.504334,14269
1659515067.543634,14276
1659515067.582934,14312
1659515067.622234,14314
1659515067.664781,14308
1659515067.707328,14318
1659515067.745944,14324
1659515067.784561,14343
1659515067.823178,14374
1659515067.862478,14399
1659515067.901778,14421
1659515067.941079,14435
1659515067.9826,14427
1659515068.024122,14433
1659515068.062397,14443
1659515068.100672,14455
1659515068.138947,14457
1659515068.180981,14461
1659515068.223015,14460
1659515068.261973,14443
1659515068.300932,14342
1659515068.33989,14271
1659515068.380386,14242
1659515068.420883,14234
1659515068.459841,14214
1659515068.4988,14240
1659515068.537758,14260
1659515068.580305,14275
1659515068.622852,14292
1659515068.662425,14302
1659515068.701999,14306
1659515068.741572,14322
1659515068.781146,14351
1659515068.820719,14365
1659515068.865146,14378
1659515068.909572,14371
1659515068.953998,14358
1659515068.987318,14351
1659515069.020638,14370
1659515069.064723,14383
1659515069.108807,14404
1659515069.152892,14430
1659515069.185699,14447
1659515069.218506,14443
1659515069.262932,14323
1659515069.307359,14229
1659515069.351785,14194
1659515069.39006,14176
1659515069.428335,14195
1659515069.46661,14254
1659515069.508644,14299
1659515069.550678,14313
1659515069.589636,14308
1659515069.628595,14312
1659515069.667553,14311
1659515069.706512,14304
1659515069.74547,14304
1659515069.784429,14328
1659515069.82595,14335
1659515069.867472,14359
1659515069.906772,14367
1659515069.946072,14385
1659515069.985372,14394
1659515070.027406,14407
1659515070.06944,14399
1659515070.107715,14392
1659515070.14599,14399
1659515070.184265,14379
1659515070.225787,14295
1659515070.267308,14231
1659515070.305925,14228
1659515070.344542,14229
1659515070.383158,14223
1659515070.427243,14225
1659515070.471328,14249
1659515070.515412,14260
1659515070.549757,14260
1659515070.584102,14270
1659515070.628187,14291
1659515070.672271,14315
1659515070.716356,14334
1659515070.749163,14355
1659515070.78197,14348
1659515070.82708,14341
1659515070.87219,14354
1659515070.9173,14361
1659515070.9566,14365
1659515070.9959,14378
1659515071.0352,14397
1659515071.076722,14413
1659515071.118243,14399
1659515071.157202,14361
1659515071.19616,14269
1659515071.235118,14230
1659515071.276127,14254
1659515071.317136,14294
1659515071.355753,14324
1659515071.39437,14353
1659515071.432986,14347
1659515071.472286,14350
1659515071.511587,14358
1659515071.550887,14373
1659515071.591383,14382
1659515071.63188,14401
1659515071.669813,14394
1659515071.707746,14405
1659515071.745679,14410
1659515071.788226,14419
1659515071.830773,14426
1659515071.869731,14426
1659515071.90869,14446
1659515071.947648,14459
1659515071.988657,14447
1659515072.029666,14380
1659515072.068624,14311
1659515072.107583,14297
1659515072.146541,14322
1659515072.190968,14321
1659515072.235394,14335
1659515072.27982,14361
1659515072.321342,14381
1659515072.362863,14379
1659515072.40148,14375
1659515072.440097,14399
1659515072.478713,14407
1659515072.520235,14416
1659515072.561756,14413
1659515072.599689,14403
1659515072.637623,14428
1659515072.675556,14440
1659515072.714514,14462
1659515072.753473,14468
1659515072.792431,14481
1659515072.834466,14492
1659515072.8765,14500
1659515072.915116,14456
1659515072.953733,14349
1659515072.99235,14297
1659515073.034384,14286
1659515073.076418,14297
1659515073.115718,14282
1659515073.155018,14299
1659515073.194319,14337
1659515073.232935,14346
1659515073.271552,14360
1659515073.310169,14361
1659515073.352203,14378
1659515073.394237,14389
1659515073.433195,14406
1659515073.472154,14408
1659515073.511112,14410
1659515073.552121,14423
1659515073.59313,14429
1659515073.631747,14435
1659515073.670364,14458
1659515073.70898,14448
1659515073.751527,14459
1659515073.794074,14455
1659515073.838158,14391
1659515073.882243,14295
1659515073.926327,14285
1659515073.964005,14286
1659515074.001681,14277
1659515074.039358,14271
1659515074.077035,14274
1659515074.116677,14271
1659515074.156319,14282
1659515074.195961,14299
1659515074.23697,14312
1659515074.277979,14338
1659515074.316937,14364
1659515074.355896,14372
1659515074.394854,14397
1659515074.439281,14411
1659515074.483707,14419
1659515074.528133,14430
1659515074.570167,14434
1659515074.612201,14444
1659515074.650476,14447
1659515074.688751,14453
1659515074.727026,14452
1659515074.768548,14390
1659515074.810069,14280
1659515074.848344,14269
1659515074.886619,14285
1659515074.924894,14299
1659515074.963511,14322
1659515075.002128,14330
1659515075.040744,14335
1659515075.082266,14336
1659515075.123787,14358
1659515075.163088,14366
1659515075.202388,14372
1659515075.241688,14393
1659515075.279963,14403
1659515075.318238,14425
1659515075.356513,14423
1659515075.39906,14432
1659515075.441606,14450
1659515075.480565,14453
1659515075.519523,14458
1659515075.558482,14452
1659515075.599491,14447
1659515075.6405,14372
1659515075.6798,14300
1659515075.7191,14277
1659515075.7584,14278
1659515075.799409,14300
1659515075.840418,14316
1659515075.879035,14350
1659515075.917651,14359
1659515075.956268,14367
1659515076.001036,14370
1659515076.045804,14388
1659515076.090572,14389
1659515076.132094,14394
1659515076.173615,14417
1659515076.212232,14425
1659515076.250849,14431
1659515076.289465,14444
1659515076.330987,14435
1659515076.372508,14445
1659515076.41215,14458
1659515076.451792,14462
1659515076.491434,14466
1659515076.529709,14366
1659515076.567984,14277
1659515076.606259,14274
1659515076.648806,14268
1659515076.691353,14291
1659515076.729969,14344
1659515076.768586,14362
1659515076.807203,14365
1659515076.845819,14344
1659515076.884436,14346
1659515076.923053,14344
1659515076.9656,14345
1659515077.008146,14352
1659515077.047105,14355
1659515077.086063,14377
1659515077.125022,14377
1659515077.165518,14390
1659515077.206014,14390
1659515077.245314,14392
1659515077.284615,14406
1659515077.323915,14412
1659515077.366462,14383
1659515077.409008,14266
1659515077.453093,14201
1659515077.497177,14184
1659515077.541262,14183
1659515077.574069,14185
1659515077.606876,14219
1659515077.651986,14251
1659515077.697096,14257
1659515077.742206,14261
1659515077.780139,14264
1659515077.818072,14293
1659515077.856005,14310
1659515077.898552,14328
1659515077.941099,14343
1659515077.979374,14344
1659515078.017649,14357
1659515078.055924,14369
1659515078.093857,14384
1659515078.13179,14394
1659515078.169723,14400
1659515078.210732,14411
1659515078.251741,14393
1659515078.2907,14311
1659515078.329658,14232
1659515078.368617,14215
1659515078.410138,14200
1659515078.451659,14210
1659515078.490618,14249
1659515078.529577,14281
1659515078.568535,14292
1659515078.607152,14276
1659515078.645768,14277
1659515078.684385,14273
1659515078.726419,14295
1659515078.768453,14308
1659515078.807412,14312
1659515078.84637,14336
1659515078.885329,14340
1659515078.92685,14354
1659515078.968372,14358
1659515079.012456,14369
1659515079.056541,14377
1659515079.100625,14385
1659515079.133433,14379
1659515079.16624,14295
1659515079.206428,14206
1659515079.246617,14179
1659515079.286806,14176
1659515079.326994,14172
1659515079.367183,14172
1659515079.408192,14204
1659515079.449201,14226
1659515079.487818,14241
1659515079.526434,14242
1659515079.565051,14262
1659515079.607598,14273
1659515079.650145,14286
1659515079.694571,14305
1659515079.738997,14311
1659515079.783424,14331
1659515079.822382,14341
1659515079.861341,14345
1659515079.900299,14340
1659515079.942333,14350
1659515079.984367,14360
1659515080.022984,14365
1659515080.061601,14374
1659515080.100217,14357
1659515080.139518,14255
1659515080.178818,14177
1659515080.218118,14145
1659515080.25964,14132
1659515080.301161,14133
1659515080.339778,14152
1659515080.378394,14189
1659515080.417011,14225
1659515080.457507,14242
1659515080.498004,14253
1659515080.537646,14258
1659515080.577287,14269
1659515080.61693,14298
1659515080.655546,14312
1659515080.694163,14321
1659515080.73278,14330
1659515080.773788,14344
1659515080.814797,14347
1659515080.854098,14367
1659515080.893398,14372
1659515080.932698,14377
1659515080.975245,14394
1659515081.017792,14394
1659515081.056067,14397
1659515081.094342,14356
1659515081.132616,14285
1659515081.17465,14242
1659515081.216685,14267
1659515081.261111,14275
1659515081.305537,14290
1659515081.349963,14327
1659515081.382771,14332
1659515081.415578,14327
1659515081.459662,14315
1659515081.503747,14319
1659515081.547832,14346
1659515081.58679,14374
1659515081.625748,14379
1659515081.664707,14372
1659515081.705203,14379
1659515081.745699,14383
1659515081.784658,14399
1659515081.823616,14396
1659515081.862575,14395
1659515081.905122,14400
1659515081.947668,14401
1659515081.985943,14406
1659515082.024218,14402
1659515082.062493,14353
1659515082.101452,14274
1659515082.14041,14279
1659515082.179368,14268
1659515082.22089,14253
1659515082.262412,14279
1659515082.300687,14302
1659515082.338962,14320
1659515082.377236,14329
1659515082.416195,14336
1659515082.455153,14358
1659515082.494112,14367
1659515082.536659,14365
1659515082.579205,14379
1659515082.620214,14389
1659515082.661223,14387
1659515082.69984,14396
1659515082.738456,14406
1659515082.777073,14405
1659515082.81962,14409
1659515082.862167,14414
1659515082.901125,14417
1659515082.940084,14434
1659515082.979042,14440
1659515083.02381,14412
1659515083.068578,14288
1659515083.113346,14195
1659515083.146666,14160
1659515083.179986,14163
1659515083.224754,14169
1659515083.269522,14197
1659515083.31429,14215
1659515083.34761,14243
1659515083.380929,14260
1659515083.425356,14275
1659515083.469782,14308
1659515083.514208,14347
1659515083.552825,14372
1659515083.591442,14400
1659515083.630058,14394
1659515083.671067,14366
1659515083.712076,14367
1659515083.750693,14357
1659515083.78931,14358
1659515083.827926,14350
1659515083.867227,14361
1659515083.906527,14374
1659515083.945827,14386
1659515083.986836,14389
1659515084.027845,14361
1659515084.066803,14257
1659515084.105762,14213
1659515084.14472,14188
1659515084.186242,14177
1659515084.227763,14186
1659515084.267063,14218
1659515084.306363,14242
1659515084.345664,14251
1659515084.387185,14275
1659515084.428707,14295
1659515084.46828,14305
1659515084.507854,14321
1659515084.547427,14329
1659515084.587001,14335
1659515084.626575,14348
1659515084.665191,14359
1659515084.703808,14363
1659515084.742425,14371
1659515084.783946,14376
1659515084.825468,14373
1659515084.866989,14393
1659515084.908511,14402
1659515084.946444,14390
1659515084.984377,14340
1659515085.02231,14249
1659515085.067079,14228
1659515085.111847,14248
1659515085.156615,14269
1659515085.19096,14285
1659515085.225305,14312
1659515085.269389,14324
1659515085.313474,14335
1659515085.357558,14334
1659515085.391391,14342
1659515085.425223,14362
1659515085.469991,14368
1659515085.514759,14389
1659515085.559527,14395
1659515085.598144,14399
1659515085.63676,14401
1659515085.675377,14406
1659515085.716386,14423
1659515085.757395,14427
1659515085.796695,14436
1659515085.835995,14436
1659515085.875296,14440
1659515085.913229,14396
1659515085.951162,14297
1659515085.989095,14254
1659515086.031642,14251
1659515086.074189,14257
1659515086.113147,14259
1659515086.152106,14285
1659515086.191064,14296
1659515086.232586,14311
1659515086.274107,14309
1659515086.313066,14310
1659515086.352024,14320
1659515086.390983,14333
1659515086.433529,14340
1659515086.476076,14350
1659515086.514693,14365
1659515086.553309,14382
1659515086.591926,14377
1659515086.63396,14391
1659515086.675994,14381
1659515086.714611,14386
1659515086.753228,14395
1659515086.791845,14407
1659515086.833879,14404
1659515086.875913,14362
1659515086.914188,14234
1659515086.952463,14185
1659515086.990738,14179
1659515087.035506,14168
1659515087.080274,14182
1659515087.125042,14204
1659515087.165538,14209
1659515087.206034,14204
1659515087.244651,14203
1659515087.283268,14215
1659515087.321885,14232
1659515087.360843,14249
1659515087.399801,14268
1659515087.43876,14276
1659515087.480794,14274
1659515087.522828,14288
1659515087.561445,14299
1659515087.600062,14316
1659515087.638678,14326
1659515087.680712,14333
1659515087.722747,14344
1659515087.761022,14362
1659515087.799296,14338
1659515087.837571,14213
1659515087.875846,14153
1659515087.914121,14155
1659515087.952396,14155
1659515087.994431,14166
1659515088.036465,14187
1659515088.07474,14213
1659515088.113014,14232
1659515088.151289,14215
1659515088.195374,14214
1659515088.239459,14210
1659515088.283543,14220
1659515088.31635,14224
1659515088.349158,14250
1659515088.393925,14269
1659515088.438694,14285
1659515088.483462,14298
1659515088.517294,14314
1659515088.551126,14340
1659515088.595553,14342
1659515088.639979,14353
1659515088.684405,14358
1659515088.723364,14348
1659515088.762322,14249
1659515088.80128,14159
1659515088.842802,14134
1659515088.884324,14141
1659515088.923965,14139
1659515088.963608,14151
1659515089.003249,14183
1659515089.044258,14205
1659515089.085267,14209
1659515089.123884,14216
1659515089.162501,14233
1659515089.201117,14260
1659515089.239734,14268
1659515089.278351,14280
1659515089.316967,14296
1659515089.359514,14314
1659515089.402061,14323
1659515089.440678,14323
1659515089.479294,14339
1659515089.517911,14333
1659515089.559433,14355
1659515089.600954,14354
1659515089.640254,14360
1659515089.679554,14340
1659515089.718855,14203
1659515089.758428,14135
1659515089.798002,14127
1659515089.837575,14123
1659515089.877149,14121
1659515089.916723,14164
1659515089.95927,14191
1659515090.001816,14201
1659515090.043338,14212
1659515090.084859,14215
1659515090.123476,14226
1659515090.162093,14238
1659515090.200709,14260
1659515090.245136,14267
1659515090.289562,14298
1659515090.333988,14306
1659515090.367308,14311
1659515090.400628,14319
1659515090.444371,14326
1659515090.488113,14345
1659515090.531856,14351
1659515090.570815,14348
1659515090.609773,14355
1659515090.648731,14298
1659515090.691278,14172
1659515090.733825,14139
1659515090.7721,14145
1659515090.810375,14149
1659515090.84865,14162
1659515090.889659,14184
1659515090.930668,14211
1659515090.97031,14240
1659515091.009952,14236
1659515091.049593,14235
1659515091.087527,14250
1659515091.12546,14270
1659515091.163393,14275
1659515091.20594,14303
1659515091.248487,14289
1659515091.287103,14292
1659515091.32572,14319
1659515091.364337,14328
1659515091.404833,14335
1659515091.445329,14340
1659515091.483946,14335
1659515091.522563,14342
1659515091.56118,14339
1659515091.603726,14280
1659515091.646273,14152
1659515091.684548,14118
1659515091.722823,14113
1659515091.761098,14122
1659515091.803132,14136
1659515091.845166,14161
1659515091.884466,14168
1659515091.923767,14186
1659515091.963067,14187
1659515092.007493,14186
1659515092.051919,14201
1659515092.096346,14208
1659515092.129665,14222
1659515092.162985,14233
1659515092.208095,14241
1659515092.253205,14269
1659515092.298315,14286
1659515092.339324,14299
1659515092.380332,14307
1659515092.418949,14326
1659515092.457566,14342
1659515092.496182,14347
1659515092.534799,14360
1659515092.573416,14370
1659515092.612033,14310
1659515092.654579,14216
1659515092.697126,14202
1659515092.735401,14203
1659515092.773676,14199
1659515092.811951,14206
1659515092.853985,14237
1659515092.896019,14276
1659515092.934978,14286
1659515092.973936,14290
1659515093.012895,14312
1659515093.052195,14320
1659515093.091495,14333
1659515093.130795,14335
1659515093.172317,14352
1659515093.213838,14376
1659515093.253138,14381
1659515093.292439,14391
1659515093.331739,14401
1659515093.372235,14418
1659515093.412731,14417
1659515093.452032,14425
1659515093.491332,14433
1659515093.530632,14428
1659515093.571641,14420
1659515093.61265,14348
1659515093.651267,14290
1659515093.689883,14297
1659515093.7285,14308
1659515093.772243,14328
1659515093.815985,14369
1659515093.859728,14374
1659515093.90125,14375
1659515093.942771,14374
1659515093.98173,14371
1659515094.020688,14383
1659515094.059647,14392
1659515094.098605,14395
1659515094.137564,14399
1659515094.176522,14416
1659515094.218044,14418
1659515094.259565,14422
1659515094.298865,14435
1659515094.338166,14447
1659515094.377466,14468
1659515094.418987,14478
1659515094.460509,14483
1659515094.499809,14459
1659515094.539109,14368
1659515094.578409,14303
1659515094.616684,14286
1659515094.654959,14273
1659515094.693234,14265
1659515094.733731,14295
1659515094.774227,14308
1659515094.813527,14319
1659515094.852827,14332
1659515094.892128,14337
1659515094.934162,14354
1659515094.976196,14357
1659515095.015974,14371
1659515095.055753,14377
1659515095.095531,14403
1659515095.13531,14392
1659515095.175089,14402
1659515095.219857,14416
1659515095.264625,14422
1659515095.309393,14427
1659515095.3422,14416
1659515095.375007,14435
1659515095.419775,14435
1659515095.464543,14382
1659515095.509311,14269
1659515095.542631,14244
1659515095.575951,14236
1659515095.620035,14234
1659515095.66412,14240
1659515095.708205,14265
1659515095.747163,14282
1659515095.786121,14299
1659515095.82508,14298
1659515095.867627,14301
1659515095.910173,14307
1659515095.948107,14320
1659515095.98604,14335
1659515096.023973,14358
1659515096.064982,14365
1659515096.105991,14373
1659515096.145633,14391
1659515096.185275,14407
1659515096.224917,14417
1659515096.263192,14407
1659515096.301467,14419
1659515096.339741,14422
1659515096.382288,14404
1659515096.424835,14301
1659515096.463794,14221
1659515096.502752,14206
1659515096.54171,14200
1659515096.582719,14202
1659515096.623728,14226
1659515096.662003,14261
1659515096.700278,14279
1659515096.738553,14284
1659515096.7811,14283
1659515096.823647,14294
1659515096.861922,14306
1659515096.900197,14334
1659515096.938472,14342
1659515096.979481,14359
1659515097.020489,14363
1659515097.059106,14362
1659515097.097723,14379
1659515097.136339,14389
1659515097.180424,14403
1659515097.224509,14417
1659515097.268593,14428
1659515097.307552,14419
1659515097.34651,14338
1659515097.385468,14223
1659515097.424769,14190
1659515097.464069,14205
1659515097.503369,14212
1659515097.544378,14240
1659515097.585387,14259
1659515097.624345,14274
1659515097.663304,14265
1659515097.702262,14272
1659515097.744809,14294
1659515097.787356,14305
1659515097.825973,14313
1659515097.864589,14327
1659515097.903206,14354
1659515097.941481,14359
1659515097.979756,14367
1659515098.018031,14377
1659515098.059552,14386
1659515098.101074,14390
1659515098.140032,14382
1659515098.178991,14397
1659515098.217949,14366
1659515098.259471,14252
1659515098.300992,14165
1659515098.345418,14145
1659515098.389845,14157
1659515098.434271,14168
1659515098.468103,14179
1659515098.501936,14202
1659515098.54602,14213
1659515098.590105,14220
1659515098.63419,14221
1659515098.668022,14238
1659515098.701854,14245
1659515098.746622,14258
1659515098.79139,14273
1659515098.836158,14287
1659515098.875117,14305
1659515098.914075,14319
1659515098.953034,14322
1659515098.994043,14341
1659515099.035052,14356
1659515099.07401,14356
1659515099.112968,14379
1659515099.151927,14361
1659515099.190202,14220
1659515099.228477,14122
1659515099.266752,14093
1659515099.308786,14100
1659515099.35082,14108
1659515099.39012,14124
1659515099.42942,14164
1659515099.468721,14173
1659515099.50973,14168
1659515099.550738,14159
1659515099.589013,14180
1659515099.627288,14187
1659515099.665563,14208
1659515099.708623,14229
1659515099.751682,14244
1659515099.790299,14257
1659515099.828915,14285
1659515099.867532,14292
1659515099.908541,14307
1659515099.94955,14321
1659515099.988508,14336
1659515100.027467,14340
1659515100.066425,14267
1659515100.107691,14158
1659515100.148956,14137
1659515100.190221,14134
1659515100.231486,14129
1659515100.271675,14142
1659515100.311864,14184
1659515100.352052,14216
1659515100.392241,14219
1659515100.43243,14224
1659515100.470363,14222
1659515100.508296,14243
1659515100.546229,14235
1659515100.587751,14245
1659515100.629272,14261
1659515100.668573,14270
1659515100.707873,14279
1659515100.747173,14300
1659515100.789207,14313
1659515100.831241,14317
1659515100.8702,14347
1659515100.909158,14344
1659515100.948117,14332
1659515100.990151,14245
1659515101.032185,14194
1659515101.07046,14210
1659515101.108735,14245
1659515101.14701,14271
1659515101.189557,14301
1659515101.232103,14357
1659515101.27653,14384
1659515101.320956,14370
1659515101.365382,14386
1659515101.403657,14389
1659515101.441932,14404
1659515101.480207,14429
1659515101.518824,14501
1659515101.557441,14616
1659515101.596057,14744
1659515101.637579,14750
1659515101.6791,14679
1659515101.718059,14624
1659515101.757017,14393
1659515101.795976,13595
1659515101.83801,11906
1659515101.880044,9346
1659515101.919344,6427
1659515101.958644,4229
1659515101.997945,3207
