LocalTimestamp,PG
1659429748.900355,13865
1659429748.938609,13846
1659429748.976863,13810
1659429749.015118,13762
1659429749.057642,13744
1659429749.100165,13731
1659429749.138761,13713
1659429749.177357,13635
1659429749.215953,13539
1659429749.25694,13453
1659429749.297926,13352
1659429749.343012,13280
1659429749.388097,13276
1659429749.433183,13254
1659429749.466997,13228
1659429749.500811,13227
1659429749.544872,13207
1659429749.588933,13076
1659429749.632993,12965
1659429749.666807,12898
1659429749.700621,12818
1659429749.745024,12726
1659429749.789426,12609
1659429749.833828,12490
1659429749.872083,12374
1659429749.910337,12300
1659429749.948591,12223
1659429749.991115,12174
1659429750.033639,12127
1659429750.072576,12087
1659429750.111514,12090
1659429750.150451,12089
1659429750.188705,12082
1659429750.22696,12050
1659429750.265214,11991
1659429750.306201,11943
1659429750.347188,11907
1659429750.386467,11891
1659429750.425746,11871
1659429750.465025,11849
1659429750.507036,11818
1659429750.549047,11790
1659429750.587985,11770
1659429750.626922,11762
1659429750.66586,11778
1659429750.707871,11784
1659429750.749883,11788
1659429750.78882,11794
1659429750.827758,11816
1659429750.866695,11831
1659429750.908706,11857
1659429750.950718,11863
1659429750.989314,11873
1659429751.02791,11910
1659429751.066505,11931
1659429751.108005,11934
1659429751.149504,11935
1659429751.191003,11923
1659429751.232502,11893
1659429751.271098,11856
1659429751.309694,11826
1659429751.348289,11818
1659429751.389276,11811
1659429751.430263,11796
1659429751.4692,11785
1659429751.508138,11792
1659429751.547075,11792
1659429751.591136,11791
1659429751.635197,11800
1659429751.679258,11823
1659429751.713584,11846
1659429751.74791,11881
1659429751.791971,11892
1659429751.836032,11905
1659429751.880093,11905
1659429751.91903,11859
1659429751.957968,11808
1659429751.996905,11764
1659429752.037892,11731
1659429752.078879,11726
1659429752.117816,11707
1659429752.156754,11706
1659429752.195691,11710
1659429752.23719,11703
1659429752.278689,11694
1659429752.317968,11679
1659429752.357247,11659
1659429752.396526,11647
1659429752.43478,11642
1659429752.473035,11655
1659429752.511289,11661
1659429752.552788,11672
1659429752.594287,11667
1659429752.634249,11644
1659429752.674212,11606
1659429752.714174,11558
1659429752.755673,11519
1659429752.797172,11491
1659429752.835426,11471
1659429752.87368,11457
1659429752.911935,11452
1659429752.954458,11445
1659429752.996982,11426
1659429753.036261,11425
1659429753.07554,11414
1659429753.114819,11421
1659429753.155293,11429
1659429753.195768,11453
1659429753.234705,11449
1659429753.273643,11458
1659429753.31258,11462
1659429753.354079,11459
1659429753.395579,11427
1659429753.434516,11374
1659429753.473453,11344
1659429753.512391,11327
1659429753.557135,11329
1659429753.601879,11354
1659429753.646622,11352
1659429753.688122,11356
1659429753.729621,11368
1659429753.767875,11386
1659429753.806129,11389
1659429753.844384,11397
1659429753.883663,11403
1659429753.922942,11415
1659429753.962221,11439
1659429754.004744,11460
1659429754.047268,11464
1659429754.085522,11471
1659429754.123777,11449
1659429754.162031,11400
1659429754.204042,11349
1659429754.246054,11334
1659429754.28465,11334
1659429754.323246,11358
1659429754.361841,11361
1659429754.400096,11367
1659429754.43835,11386
1659429754.476604,11383
1659429754.518104,11392
1659429754.559603,11402
1659429754.59854,11403
1659429754.637478,11398
1659429754.676415,11407
1659429754.716889,11411
1659429754.757364,11416
1659429754.796301,11438
1659429754.835239,11418
1659429754.874176,11380
1659429754.9167,11338
1659429754.959224,11323
1659429754.998161,11325
1659429755.037098,11340
1659429755.076036,11357
1659429755.117023,11360
1659429755.15801,11355
1659429755.202753,11356
1659429755.247497,11364
1659429755.292241,11390
1659429755.330495,11394
1659429755.36875,11411
1659429755.407004,11436
1659429755.449016,11455
1659429755.491027,11464
1659429755.529964,11475
1659429755.568902,11438
1659429755.607839,11385
1659429755.646435,11346
1659429755.685031,11324
1659429755.723627,11327
1659429755.764101,11322
1659429755.804576,11320
1659429755.843855,11311
1659429755.883134,11304
1659429755.922413,11291
1659429755.964424,11296
1659429756.006436,11307
1659429756.045373,11294
1659429756.084311,11296
1659429756.123248,11279
1659429756.162185,11275
1659429756.201123,11294
1659429756.24006,11289
1659429756.282584,11258
1659429756.325108,11189
1659429756.364865,11130
1659429756.404622,11110
1659429756.444379,11087
1659429756.484136,11057
1659429756.523894,11046
1659429756.565392,11035
1659429756.606892,11019
1659429756.645488,11009
1659429756.684083,11016
1659429756.722679,11028
1659429756.764691,11039
1659429756.806702,11062
1659429756.84564,11063
1659429756.884577,11082
1659429756.923514,11089
1659429756.964501,11096
1659429757.005488,11092
1659429757.043742,11019
1659429757.081997,10969
1659429757.120251,10942
1659429757.164995,10928
1659429757.209739,10914
1659429757.254483,10912
1659429757.288297,10893
1659429757.322111,10865
1659429757.366172,10853
1659429757.410232,10831
1659429757.454293,10838
1659429757.495792,10846
1659429757.537291,10858
1659429757.574692,10864
1659429757.612092,10865
1659429757.649493,10869
1659429757.686893,10858
1659429757.728392,10825
1659429757.769891,10745
1659429757.808829,10690
1659429757.847766,10669
1659429757.886703,10658
1659429757.924958,10662
1659429757.963212,10677
1659429758.001467,10691
1659429758.041941,10710
1659429758.082415,10723
1659429758.124939,10742
1659429758.167463,10767
1659429758.2064,10784
1659429758.245338,10806
1659429758.284275,10841
1659429758.328336,10859
1659429758.372397,10875
1659429758.416457,10856
1659429758.450272,10802
1659429758.484086,10786
1659429758.52883,10776
1659429758.573573,10818
1659429758.618317,10900
1659429758.651107,11001
1659429758.683896,11112
1659429758.72864,11207
1659429758.773384,11340
1659429758.818128,11493
1659429758.856724,11636
1659429758.895319,11772
1659429758.933915,11887
1659429758.97439,11972
1659429759.014864,12039
1659429759.053802,12052
1659429759.092739,11974
1659429759.131676,11848
1659429759.1742,11720
1659429759.216724,11637
1659429759.25532,11571
1659429759.293916,11521
1659429759.332512,11438
1659429759.371791,11366
1659429759.41107,11314
1659429759.450349,11310
1659429759.49236,11300
1659429759.534372,11280
1659429759.572968,11259
1659429759.611563,11253
1659429759.650159,11239
1659429759.692171,11230
1659429759.734182,11208
1659429759.773119,11157
1659429759.812057,11047
1659429759.850994,10944
1659429759.891981,10875
1659429759.932968,10848
1659429759.971564,10818
1659429760.010159,10797
1659429760.048755,10795
1659429760.091279,10786
1659429760.133803,10784
1659429760.172399,10787
1659429760.210995,10807
1659429760.249591,10817
1659429760.29331,10843
1659429760.337029,10839
1659429760.380748,10846
1659429760.42276,10854
1659429760.464771,10826
1659429760.503367,10749
1659429760.541963,10678
1659429760.580559,10642
1659429760.62257,10627
1659429760.664582,10642
1659429760.703519,10641
1659429760.742456,10632
1659429760.781394,10633
1659429760.820331,10638
1659429760.859269,10637
1659429760.898206,10645
1659429760.938681,10655
1659429760.979155,10661
1659429761.018434,10676
1659429761.057713,10694
1659429761.096992,10703
1659429761.135929,10661
1659429761.174867,10586
1659429761.213804,10557
1659429761.254279,10540
1659429761.294753,10538
1659429761.333349,10537
1659429761.371945,10553
1659429761.410541,10549
1659429761.453065,10568
1659429761.495588,10605
1659429761.534184,10621
1659429761.57278,10635
1659429761.611376,10625
1659429761.653131,10624
1659429761.694886,10633
1659429761.736642,10610
1659429761.778397,10501
1659429761.817334,10384
1659429761.856272,10324
1659429761.895209,10296
1659429761.939612,10318
1659429761.984014,10309
1659429762.028416,10313
1659429762.061718,10306
1659429762.09502,10302
1659429762.139422,10302
1659429762.183825,10309
1659429762.228227,10324
1659429762.261016,10322
1659429762.293806,10358
1659429762.33855,10377
1659429762.383293,10374
1659429762.428037,10299
1659429762.466975,10174
1659429762.505912,10105
1659429762.54485,10053
1659429762.586349,10041
1659429762.627848,10049
1659429762.667127,10057
1659429762.706406,10067
1659429762.745685,10055
1659429762.788208,10070
1659429762.830732,10083
1659429762.868987,10110
1659429762.907241,10132
1659429762.945495,10141
1659429762.985116,10157
1659429763.024736,10182
1659429763.064357,10201
1659429763.105344,10188
1659429763.14633,10127
1659429763.184243,10013
1659429763.222156,9962
1659429763.260069,9920
1659429763.302593,9896
1659429763.345116,9910
1659429763.383712,9931
1659429763.422308,9947
1659429763.460904,9962
1659429763.501378,9982
1659429763.541853,10005
1659429763.580449,10045
1659429763.619045,10060
1659429763.65764,10079
1659429763.699652,10102
1659429763.741663,10118
1659429763.780259,10133
1659429763.818855,10145
1659429763.857451,10177
1659429763.902195,10199
1659429763.946939,10193
1659429763.991683,10109
1659429764.033694,10017
1659429764.075705,9984
1659429764.11396,9966
1659429764.152214,9967
1659429764.190468,9989
1659429764.229406,10002
1659429764.268343,10020
1659429764.307281,10033
1659429764.349292,10049
1659429764.391304,10065
1659429764.429558,10104
1659429764.467812,10117
1659429764.506066,10138
1659429764.547053,10149
1659429764.58804,10162
1659429764.626977,10197
1659429764.665915,10219
1659429764.704852,10239
1659429764.74379,10256
1659429764.782727,10273
1659429764.821665,10227
1659429764.862651,10159
1659429764.903638,10102
1659429764.942917,10081
1659429764.982196,10080
1659429765.021475,10084
1659429765.062974,10099
1659429765.104473,10102
1659429765.143752,10110
1659429765.183031,10126
1659429765.22231,10167
1659429765.264322,10184
1659429765.306333,10206
1659429765.350735,10235
1659429765.395138,10257
1659429765.43954,10278
1659429765.472329,10286
1659429765.505119,10307
1659429765.549521,10324
1659429765.593924,10355
1659429765.638326,10378
1659429765.677605,10363
1659429765.716884,10307
1659429765.756163,10234
1659429765.79715,10204
1659429765.838136,10185
1659429765.877415,10196
1659429765.916694,10205
1659429765.955973,10221
1659429765.997472,10233
1659429766.038971,10243
1659429766.077909,10271
1659429766.116846,10286
1659429766.155784,10306
1659429766.194721,10324
1659429766.233659,10362
1659429766.272596,10402
1659429766.314095,10432
1659429766.355594,10464
1659429766.39419,10472
1659429766.432786,10509
1659429766.471382,10521
1659429766.509636,10549
1659429766.54789,10556
1659429766.586145,10515
1659429766.629181,10478
1659429766.672217,10459
1659429766.710471,10467
1659429766.748726,10476
1659429766.78698,10488
1659429766.827454,10495
1659429766.867929,10502
1659429766.908096,10513
1659429766.948263,10523
1659429766.98843,10557
1659429767.028597,10582
1659429767.068764,10619
1659429767.109751,10659
1659429767.150738,10681
1659429767.190017,10712
1659429767.229295,10745
1659429767.268574,10780
1659429767.310586,10806
1659429767.352597,10819
1659429767.390852,10756
1659429767.429106,10657
1659429767.46736,10613
1659429767.509372,10587
1659429767.551383,10586
1659429767.595786,10594
1659429767.640188,10601
1659429767.68459,10596
1659429767.722503,10604
1659429767.760416,10600
1659429767.798328,10608
1659429767.84034,10629
1659429767.882351,10652
1659429767.92163,10677
1659429767.960909,10684
1659429768.000188,10700
1659429768.038101,10721
1659429768.076014,10745
1659429768.113927,10764
1659429768.15645,10779
1659429768.198974,10740
1659429768.237911,10653
1659429768.276849,10617
1659429768.315786,10605
1659429768.354724,10617
1659429768.393661,10624
1659429768.432599,10636
1659429768.475122,10641
1659429768.517646,10642
1659429768.556925,10653
1659429768.596204,10668
1659429768.635483,10687
1659429768.675958,10707
1659429768.716432,10725
1659429768.755369,10736
1659429768.794307,10754
1659429768.833244,10774
1659429768.875768,10797
1659429768.918292,10806
1659429768.956888,10810
1659429768.995484,10816
1659429769.03408,10760
1659429769.074554,10699
1659429769.115028,10662
1659429769.160114,10659
1659429769.205199,10673
1659429769.250285,10689
1659429769.288881,10702
1659429769.327477,10710
1659429769.366072,10715
1659429769.408596,10714
1659429769.45112,10739
1659429769.490057,10760
1659429769.528995,10778
1659429769.567932,10804
1659429769.609431,10817
1659429769.65093,10832
1659429769.689185,10844
1659429769.727439,10861
1659429769.765693,10868
1659429769.805314,10864
1659429769.844934,10816
1659429769.884555,10736
1659429769.925029,10715
1659429769.965504,10731
1659429770.0041,10756
1659429770.042696,10774
1659429770.081291,10768
1659429770.119546,10787
1659429770.1578,10799
1659429770.196054,10809
1659429770.238578,10839
1659429770.281102,10879
1659429770.319356,10910
1659429770.35761,10941
1659429770.395865,10971
1659429770.437364,10979
1659429770.478863,10993
1659429770.523265,10988
1659429770.567668,10970
1659429770.61207,10914
1659429770.645884,10854
1659429770.679698,10808
1659429770.724101,10806
1659429770.768503,10816
1659429770.812905,10811
1659429770.846719,10811
1659429770.880533,10804
1659429770.924253,10802
1659429770.967972,10802
1659429771.011691,10801
1659429771.050628,10809
1659429771.089566,10824
1659429771.128503,10837
1659429771.170515,10826
1659429771.212526,10828
1659429771.251464,10832
1659429771.290401,10844
1659429771.329338,10839
1659429771.369813,10770
1659429771.410287,10735
1659429771.449908,10725
1659429771.489528,10728
1659429771.529149,10740
1659429771.567745,10756
1659429771.606341,10768
1659429771.644937,10752
1659429771.686948,10767
1659429771.728959,10766
1659429771.768238,10774
1659429771.807517,10788
1659429771.846796,10798
1659429771.888295,10825
1659429771.929795,10844
1659429771.967707,10848
1659429772.00562,10844
1659429772.043533,10799
1659429772.086569,10744
1659429772.129605,10729
1659429772.168201,10737
1659429772.206797,10737
1659429772.245393,10739
1659429772.285867,10740
1659429772.326342,10735
1659429772.365279,10721
1659429772.404216,10722
1659429772.443154,10723
1659429772.487898,10720
1659429772.532642,10733
1659429772.577385,10735
1659429772.610175,10741
1659429772.642964,10742
1659429772.68805,10698
1659429772.733135,10635
1659429772.778221,10582
1659429772.81972,10555
1659429772.861219,10542
1659429772.899473,10542
1659429772.937727,10542
1659429772.975982,10533
1659429773.015261,10504
1659429773.05454,10494
1659429773.093819,10502
1659429773.13583,10497
1659429773.177842,10499
1659429773.215754,10504
1659429773.253667,10504
1659429773.29158,10501
1659429773.333079,10476
1659429773.374578,10406
1659429773.413174,10336
1659429773.45177,10319
1659429773.490366,10297
1659429773.529303,10295
1659429773.568241,10298
1659429773.607178,10296
1659429773.647652,10292
1659429773.688127,10294
1659429773.727406,10299
1659429773.766685,10307
1659429773.805964,10320
1659429773.846951,10329
1659429773.887937,10349
1659429773.927216,10358
1659429773.966495,10346
1659429774.005774,10305
1659429774.047786,10256
1659429774.089797,10236
1659429774.128735,10224
1659429774.167672,10244
1659429774.206609,10257
1659429774.25067,10264
1659429774.294731,10268
1659429774.338792,10274
1659429774.380291,10300
1659429774.42179,10321
1659429774.460727,10345
1659429774.499665,10370
1659429774.538602,10398
1659429774.580101,10418
1659429774.6216,10448
1659429774.660538,10460
1659429774.699475,10438
1659429774.738413,10410
1659429774.77735,10409
1659429774.816288,10413
1659429774.855225,10428
1659429774.896724,10452
1659429774.938223,10467
1659429774.977502,10484
1659429775.016781,10501
1659429775.05606,10517
1659429775.097559,10544
1659429775.139058,10567
1659429775.177996,10580
1659429775.216933,10617
1659429775.255871,10630
1659429775.294466,10656
1659429775.333062,10684
1659429775.371658,10696
1659429775.414182,10707
1659429775.456706,10708
1659429775.49496,10690
1659429775.533215,10672
1659429775.571469,10691
1659429775.612456,10701
1659429775.653442,10726
1659429775.697503,10754
1659429775.741564,10782
1659429775.785625,10806
1659429775.819439,10827
1659429775.853253,10857
1659429775.897655,10886
1659429775.942058,10925
1659429775.98646,10951
1659429776.020274,10971
1659429776.054088,11007
1659429776.098149,11024
1659429776.14221,11055
1659429776.18627,11060
1659429776.225208,11073
1659429776.264145,11084
1659429776.303083,11075
1659429776.34202,11063
1659429776.380957,11070
1659429776.419895,11082
1659429776.461394,11089
1659429776.502893,11122
1659429776.540806,11131
1659429776.578719,11153
1659429776.616631,11165
1659429776.658643,11183
1659429776.700654,11201
1659429776.738909,11209
1659429776.777163,11247
1659429776.815417,11286
1659429776.854696,11333
1659429776.893975,11353
1659429776.933254,11390
1659429776.974753,11425
1659429777.016252,11447
1659429777.054848,11437
1659429777.093444,11409
1659429777.13204,11378
1659429777.173027,11360
1659429777.214014,11371
1659429777.25944,11365
1659429777.304868,11376
1659429777.350295,11395
1659429777.389232,11400
1659429777.428169,11410
1659429777.467107,11418
1659429777.506044,11418
1659429777.544982,11430
1659429777.583919,11448
1659429777.625931,11464
1659429777.667942,11483
1659429777.706196,11490
1659429777.744451,11499
1659429777.782705,11527
1659429777.821301,11533
1659429777.859897,11535
1659429777.898493,11533
1659429777.941016,11501
1659429777.98354,11461
1659429778.021794,11434
1659429778.060049,11442
1659429778.098303,11444
1659429778.140314,11462
1659429778.182326,11450
1659429778.221263,11444
1659429778.260201,11453
1659429778.299138,11466
1659429778.341662,11491
1659429778.384186,11510
1659429778.422781,11534
1659429778.461377,11547
1659429778.499973,11564
1659429778.541985,11566
1659429778.583996,11563
1659429778.628398,11566
1659429778.672801,11567
1659429778.717203,11567
1659429778.755457,11578
1659429778.793712,11569
1659429778.831966,11512
1659429778.87449,11502
1659429778.917014,11503
1659429778.95561,11504
1659429778.994205,11533
1659429779.032801,11533
1659429779.073276,11552
1659429779.11375,11552
1659429779.153029,11550
1659429779.192308,11564
1659429779.231587,11579
1659429779.270183,11579
1659429779.308779,11578
1659429779.347375,11575
1659429779.389386,11575
1659429779.431398,11590
1659429779.469994,11586
1659429779.508589,11589
1659429779.547185,11603
1659429779.589197,11617
1659429779.631208,11630
1659429779.669804,11588
1659429779.7084,11533
1659429779.746996,11485
1659429779.786275,11489
1659429779.825554,11474
1659429779.864833,11458
1659429779.905819,11474
1659429779.946806,11481
1659429779.985744,11477
1659429780.024681,11467
1659429780.063618,11483
1659429780.104093,11498
1659429780.144567,11516
1659429780.189311,11523
1659429780.234055,11522
1659429780.278799,11536
1659429780.312613,11543
1659429780.346427,11547
1659429780.39083,11548
1659429780.435232,11549
1659429780.479634,11535
1659429780.512936,11511
1659429780.546238,11442
1659429780.590981,11397
1659429780.635725,11389
1659429780.680469,11388
1659429780.719407,11395
1659429780.758344,11383
1659429780.797282,11365
1659429780.839293,11374
1659429780.881305,11375
1659429780.920242,11380
1659429780.959179,11388
1659429780.998117,11402
1659429781.038591,11411
1659429781.079066,11432
1659429781.118345,11423
1659429781.157624,11414
1659429781.196903,11423
1659429781.236181,11418
1659429781.27546,11410
1659429781.314739,11368
1659429781.355214,11319
1659429781.395688,11280
1659429781.434967,11264
1659429781.474246,11246
1659429781.513525,11234
1659429781.556049,11241
1659429781.598573,11229
1659429781.636827,11221
1659429781.675081,11204
1659429781.713336,11214
1659429781.754835,11206
1659429781.796334,11226
1659429781.835955,11232
1659429781.875575,11233
1659429781.915196,11239
1659429781.956695,11234
1659429781.998194,11233
1659429782.03679,11186
1659429782.075386,11108
1659429782.113981,11042
1659429782.158384,11007
1659429782.202786,10977
1659429782.247189,10965
1659429782.278953,10956
1659429782.310718,10931
1659429782.354437,10909
1659429782.398156,10891
1659429782.441876,10898
1659429782.484912,10919
1659429782.527948,10931
1659429782.566544,10922
1659429782.605139,10922
1659429782.643735,10920
1659429782.682673,10902
1659429782.72161,10871
1659429782.760548,10767
1659429782.799144,10657
1659429782.837739,10585
1659429782.876335,10527
1659429782.917835,10492
1659429782.959334,10475
1659429782.997588,10477
1659429783.035842,10466
1659429783.074096,10461
1659429783.11662,10450
1659429783.159144,10443
1659429783.197398,10440
1659429783.235653,10438
1659429783.273907,10436
1659429783.314894,10435
1659429783.35588,10433
1659429783.394818,10429
1659429783.433755,10395
1659429783.472693,10299
1659429783.516754,10211
1659429783.560814,10161
1659429783.604875,10122
1659429783.638177,10111
1659429783.671479,10088
1659429783.716564,10078
1659429783.76165,10079
1659429783.806735,10075
1659429783.845331,10067
1659429783.883927,10082
1659429783.922523,10095
1659429783.964534,10098
1659429784.006546,10120
1659429784.045825,10125
1659429784.085104,10141
1659429784.124382,10156
1659429784.166394,10164
1659429784.208405,10146
1659429784.24666,10069
1659429784.284914,10004
1659429784.323168,9963
1659429784.362106,9950
1659429784.401043,9934
1659429784.439981,9938
1659429784.481992,9949
1659429784.524004,9943
1659429784.562599,9946
1659429784.601195,9947
1659429784.639791,9970
1659429784.680778,9973
1659429784.721765,9997
1659429784.761932,10023
1659429784.802099,10032
1659429784.842266,10051
1659429784.882433,10063
1659429784.9226,10093
1659429784.961537,10100
1659429785.000475,10103
1659429785.039412,10030
1659429785.081424,9967
1659429785.123435,9943
1659429785.162372,9930
1659429785.20131,9939
1659429785.240247,9951
1659429785.281746,9972
1659429785.323245,9969
1659429785.367648,9963
1659429785.41205,9979
1659429785.456452,9992
1659429785.489242,10021
1659429785.522031,10041
1659429785.56575,10080
1659429785.60947,10104
1659429785.653189,10137
1659429785.691443,10142
1659429785.729697,10153
1659429785.767952,10174
1659429785.810476,10169
1659429785.852999,10119
1659429785.891595,10066
1659429785.930191,10059
1659429785.968787,10050
1659429786.008066,10070
1659429786.047345,10086
1659429786.086624,10095
1659429786.128123,10106
1659429786.169622,10100
1659429786.207876,10106
1659429786.246131,10121
1659429786.284385,10136
1659429786.326909,10167
1659429786.369433,10194
1659429786.40837,10212
1659429786.447307,10221
1659429786.486245,10244
1659429786.524158,10258
1659429786.56207,10261
1659429786.599983,10180
1659429786.641994,10108
1659429786.684006,10093
1659429786.726017,10076
1659429786.768029,10075
1659429786.805942,10077
1659429786.843854,10106
1659429786.881767,10103
1659429786.926169,10117
1659429786.970572,10124
1659429787.014974,10138
1659429787.048788,10165
1659429787.082602,10185
1659429787.127005,10195
1659429787.171407,10207
1659429787.215809,10222
1659429787.249623,10236
1659429787.283437,10264
1659429787.328523,10228
1659429787.373608,10160
1659429787.418694,10108
1659429787.45729,10076
1659429787.495886,10060
1659429787.534482,10061
1659429787.575468,10073
1659429787.616455,10078
1659429787.655734,10080
1659429787.695013,10093
1659429787.734292,10099
1659429787.776303,10124
1659429787.818315,10142
1659429787.855715,10163
1659429787.893116,10181
1659429787.930516,10192
1659429787.967916,10213
1659429788.012319,10227
1659429788.056721,10220
1659429788.101124,10161
1659429788.139378,10108
1659429788.177632,10069
1659429788.215886,10063
1659429788.257898,10077
1659429788.299909,10078
1659429788.338847,10095
1659429788.377784,10108
1659429788.416722,10112
1659429788.458221,10127
1659429788.49972,10151
1659429788.538657,10168
1659429788.577595,10181
1659429788.616532,10187
1659429788.655128,10209
1659429788.693724,10231
1659429788.73232,10252
1659429788.772794,10251
1659429788.813269,10206
1659429788.851864,10138
1659429788.89046,10110
1659429788.929056,10108
1659429788.97158,10109
1659429789.014104,10114
1659429789.052358,10124
1659429789.090612,10140
1659429789.128867,10146
1659429789.170366,10178
1659429789.211865,10190
1659429789.250802,10201
1659429789.28974,10229
1659429789.328677,10245
1659429789.371201,10263
1659429789.413725,10282
1659429789.452321,10289
1659429789.490916,10281
1659429789.529512,10252
1659429789.574598,10188
1659429789.619683,10176
1659429789.664769,10176
1659429789.705243,10193
1659429789.745718,10209
1659429789.783972,10223
1659429789.822226,10230
1659429789.860481,10242
1659429789.903004,10267
1659429789.945528,10289
1659429789.984124,10301
1659429790.02272,10330
1659429790.061316,10345
1659429790.099911,10375
1659429790.138507,10378
1659429790.177103,10393
1659429790.218602,10363
1659429790.260102,10319
1659429790.299722,10294
1659429790.339343,10286
1659429790.378963,10305
1659429790.420462,10317
1659429790.461961,10349
1659429790.500899,10347
1659429790.539836,10366
1659429790.578773,10385
1659429790.618394,10406
1659429790.658015,10432
1659429790.697635,10449
1659429790.739134,10469
1659429790.780633,10477
1659429790.819571,10498
1659429790.858508,10490
1659429790.897446,10459
1659429790.939457,10412
1659429790.981468,10388
1659429791.019381,10387
1659429791.057294,10405
1659429791.095207,10429
1659429791.136706,10437
1659429791.178205,10460
1659429791.222607,10475
1659429791.26701,10493
1659429791.311412,10503
1659429791.344201,10511
1659429791.376991,10524
1659429791.421393,10535
1659429791.465796,10561
1659429791.510198,10573
1659429791.549135,10571
1659429791.588073,10518
1659429791.62701,10448
1659429791.669022,10411
1659429791.711033,10400
1659429791.749287,10403
1659429791.787542,10403
1659429791.825796,10404
1659429791.86832,10406
1659429791.910844,10400
1659429791.949098,10406
1659429791.987352,10417
1659429792.025606,10432
1659429792.063861,10449
1659429792.102115,10479
1659429792.140369,10494
1659429792.182893,10520
1659429792.225417,10530
1659429792.263671,10482
1659429792.301926,10410
1659429792.34018,10351
1659429792.378434,10329
1659429792.416688,10310
1659429792.454943,10327
1659429792.496954,10306
1659429792.538966,10309
1659429792.580977,10318
1659429792.622988,10306
1659429792.661584,10325
1659429792.70018,10337
1659429792.738776,10355
1659429792.78352,10367
1659429792.828264,10388
1659429792.873008,10398
1659429792.90631,10405
1659429792.939611,10425
1659429792.98333,10405
1659429793.02705,10341
1659429793.070769,10280
1659429793.110048,10248
1659429793.149327,10238
1659429793.188606,10246
1659429793.227885,10253
1659429793.267164,10256
1659429793.306443,10270
1659429793.345039,10273
1659429793.383635,10288
1659429793.42223,10306
1659429793.466974,10314
1659429793.511718,10342
1659429793.556462,10358
1659429793.588739,10382
1659429793.621016,10405
1659429793.66576,10428
1659429793.710504,10440
1659429793.755248,10454
1659429793.789062,10402
1659429793.822876,10371
1659429793.867279,10377
1659429793.911681,10375
1659429793.956083,10384
1659429793.994679,10410
1659429794.033275,10425
1659429794.071871,10418
1659429794.113882,10422
1659429794.155894,10430
1659429794.194148,10420
1659429794.232402,10437
1659429794.270657,10447
1659429794.312668,10447
1659429794.35468,10461
1659429794.393275,10462
1659429794.431871,10477
1659429794.470467,10493
1659429794.509404,10488
1659429794.548342,10442
1659429794.587279,10393
1659429794.627754,10364
1659429794.668228,10365
1659429794.707166,10358
1659429794.746103,10378
1659429794.785041,10396
1659429794.827052,10411
1659429794.869063,10435
1659429794.908001,10441
1659429794.946938,10459
1659429794.985876,10474
1659429795.027375,10505
1659429795.068874,10513
1659429795.107811,10534
1659429795.146749,10546
1659429795.185686,10565
1659429795.229405,10579
1659429795.273125,10581
1659429795.316844,10556
1659429795.350146,10496
1659429795.383447,10485
1659429795.42785,10476
1659429795.472252,10486
1659429795.516654,10510
1659429795.557641,10527
1659429795.598628,10535
1659429795.636882,10532
1659429795.675137,10544
1659429795.713391,10536
1659429795.753353,10550
1659429795.793315,10574
1659429795.833277,10583
1659429795.874776,10605
1659429795.916275,10625
1659429795.954871,10651
1659429795.993467,10672
1659429796.032063,10696
1659429796.074074,10683
1659429796.116086,10659
1659429796.155706,10663
1659429796.195327,10684
1659429796.234947,10729
1659429796.273543,10754
1659429796.312139,10780
1659429796.350735,10774
1659429796.392746,10775
1659429796.434758,10806
1659429796.473354,10816
1659429796.51195,10836
1659429796.550545,10852
1659429796.592045,10879
1659429796.633544,10882
1659429796.672481,10916
1659429796.711419,10903
1659429796.750356,10862
1659429796.791343,10812
1659429796.83233,10769
1659429796.870584,10747
1659429796.908838,10755
1659429796.947093,10776
1659429796.989616,10783
1659429797.03214,10789
1659429797.077225,10795
1659429797.122311,10808
1659429797.167396,10830
1659429797.205651,10840
1659429797.243905,10841
1659429797.282159,10848
1659429797.323658,10857
1659429797.365158,10865
1659429797.404778,10850
1659429797.444399,10796
1659429797.484019,10728
1659429797.525518,10689
1659429797.567017,10674
1659429797.605613,10674
1659429797.644209,10661
1659429797.682805,10653
1659429797.721401,10653
1659429797.759997,10628
1659429797.798593,10613
1659429797.839067,10617
1659429797.879541,10627
1659429797.918137,10631
1659429797.956733,10640
1659429797.995329,10638
1659429798.03734,10616
1659429798.079352,10556
1659429798.117948,10481
1659429798.156544,10437
1659429798.19514,10402
1659429798.234077,10390
1659429798.273014,10386
1659429798.311952,10395
1659429798.355193,10373
1659429798.398434,10360
1659429798.441675,10351
1659429798.484916,10350
1659429798.528157,10350
1659429798.565557,10355
1659429798.602958,10371
1659429798.640358,10377
1659429798.677759,10376
1659429798.720283,10322
1659429798.762806,10225
1659429798.801061,10172
1659429798.839315,10128
1659429798.877569,10106
1659429798.918556,10084
1659429798.959543,10065
1659429798.998139,10052
1659429799.036735,10046
1659429799.07533,10043
1659429799.114609,10040
1659429799.153888,10059
1659429799.193167,10057
1659429799.234666,10068
1659429799.276165,10062
1659429799.318177,10059
1659429799.360188,10070
1659429799.399467,10028
1659429799.438746,9970
1659429799.478025,9915
1659429799.519525,9889
1659429799.561023,9868
1659429799.600302,9881
1659429799.639581,9881
1659429799.67886,9884
1659429799.723263,9891
1659429799.767665,9892
1659429799.812068,9902
1659429799.844345,9924
1659429799.876622,9957
1659429799.921024,9982
1659429799.965426,10017
1659429800.009829,10036
1659429800.048424,10055
1659429800.08702,10080
1659429800.125616,10068
1659429800.167628,10022
1659429800.209639,9996
1659429800.248235,9985
1659429800.286831,9993
1659429800.325427,10012
1659429800.367438,10027
1659429800.40945,10034
1659429800.448045,10029
1659429800.486641,10044
1659429800.525237,10054
1659429800.564516,10090
1659429800.603795,10105
1659429800.643074,10137
1659429800.685086,10153
1659429800.727097,10167
1659429800.765351,10175
1659429800.803606,10200
1659429800.84186,10199
1659429800.882847,10160
1659429800.923834,10120
1659429800.962771,10104
1659429801.001709,10125
1659429801.040646,10151
1659429801.082145,10192
1659429801.123644,10231
1659429801.16224,10250
1659429801.200836,10256
1659429801.239432,10272
1659429801.280931,10301
1659429801.32243,10323
1659429801.360684,10338
1659429801.398938,10353
1659429801.437193,10367
1659429801.481254,10405
1659429801.525314,10419
1659429801.569375,10433
1659429801.612411,10430
1659429801.655447,10393
1659429801.694043,10378
1659429801.732639,10388
1659429801.771235,10418
1659429801.812222,10443
1659429801.853209,10488
1659429801.892488,10505
1659429801.931767,10529
1659429801.971045,10558
1659429802.009983,10585
1659429802.04892,10624
1659429802.087858,10662
1659429802.128332,10706
1659429802.168807,10727
1659429802.208086,10756
1659429802.247365,10798
1659429802.286644,10831
1659429802.324898,10883
1659429802.363152,10901
1659429802.401407,10865
1659429802.44393,10828
1659429802.486454,10823
1659429802.525733,10852
1659429802.565012,10904
1659429802.604291,10951
1659429802.64579,10985
1659429802.687289,11031
1659429802.725885,11060
1659429802.764481,11102
1659429802.803077,11116
1659429802.845601,11145
1659429802.888124,11187
1659429802.932868,11201
1659429802.977612,11229
1659429803.022356,11258
1659429803.054633,11282
1659429803.08691,11235
1659429803.131313,11189
1659429803.175715,11138
1659429803.220117,11120
1659429803.253931,11132
1659429803.287745,11131
1659429803.331465,11125
1659429803.375184,11116
1659429803.418903,11135
1659429803.45784,11142
1659429803.496778,11146
1659429803.535715,11141
1659429803.574482,11144
1659429803.613249,11157
1659429803.652015,11169
1659429803.690782,11183
1659429803.729548,11185
1659429803.768315,11157
1659429803.809814,11079
1659429803.851313,11017
1659429803.890592,10995
1659429803.929871,10969
1659429803.96915,10958
1659429804.010649,10951
1659429804.052149,10938
1659429804.091086,10928
1659429804.130023,10931
1659429804.168961,10942
1659429804.209948,10950
1659429804.250934,10960
1659429804.28953,10966
1659429804.328126,10988
1659429804.366722,11002
1659429804.410441,11012
1659429804.45416,11004
1659429804.49788,10939
1659429804.540403,10880
1659429804.582927,10844
1659429804.621181,10832
1659429804.659436,10830
1659429804.69769,10839
1659429804.739189,10837
1659429804.780688,10819
1659429804.819626,10778
1659429804.858563,10770
1659429804.897501,10791
1659429804.937121,10789
1659429804.976742,10792
1659429805.016362,10813
1659429805.057349,10828
1659429805.098336,10860
1659429805.137956,10873
1659429805.177577,10814
1659429805.217197,10714
1659429805.258184,10641
1659429805.299171,10621
1659429805.338108,10607
1659429805.377046,10604
1659429805.415983,10599
1659429805.455262,10586
1659429805.494541,10590
1659429805.53382,10577
1659429805.574807,10572
1659429805.615794,10571
1659429805.653707,10584
1659429805.691619,10593
1659429805.729532,10631
1659429805.772568,10644
1659429805.815604,10660
1659429805.860348,10636
1659429805.905092,10562
1659429805.949836,10499
1659429805.982113,10473
1659429806.01439,10479
1659429806.059134,10470
1659429806.103878,10472
1659429806.148622,10474
1659429806.182948,10479
1659429806.217274,10509
1659429806.261677,10519
1659429806.306079,10552
1659429806.350482,10568
1659429806.38976,10591
1659429806.429039,10611
1659429806.468318,10613
1659429806.509818,10594
1659429806.551317,10529
1659429806.589229,10480
1659429806.627142,10455
1659429806.665055,10451
1659429806.703992,10443
1659429806.74293,10439
1659429806.781867,10439
1659429806.824391,10431
1659429806.866915,10424
1659429806.904828,10423
1659429806.94274,10442
1659429806.980653,10461
1659429807.022665,10484
1659429807.064676,10496
1659429807.103613,10500
1659429807.142551,10526
1659429807.181488,10496
1659429807.220084,10412
1659429807.25868,10353
1659429807.297276,10314
1659429807.338775,10294
1659429807.380274,10289
1659429807.422286,10300
1659429807.464297,10299
1659429807.502551,10297
1659429807.540806,10293
1659429807.57906,10296
1659429807.623462,10304
1659429807.667865,10306
1659429807.712267,10318
1659429807.746081,10331
1659429807.779895,10349
1659429807.823956,10353
1659429807.868016,10341
1659429807.912077,10276
1659429807.950332,10208
1659429807.988586,10194
1659429808.02684,10177
1659429808.068852,10184
1659429808.110863,10192
1659429808.149459,10201
1659429808.188055,10204
1659429808.226651,10217
1659429808.268662,10224
1659429808.310674,10234
1659429808.349953,10245
1659429808.389232,10265
1659429808.428511,10283
1659429808.467448,10321
1659429808.506386,10336
1659429808.545323,10359
1659429808.585797,10340
1659429808.626272,10281
1659429808.665892,10245
1659429808.705513,10248
1659429808.745133,10259
1659429808.78612,10265
1659429808.827107,10286
1659429808.865703,10296
1659429808.904299,10325
1659429808.942894,10322
1659429808.983881,10346
1659429809.024868,10366
1659429809.06483,10381
1659429809.104792,10407
1659429809.144754,10430
1659429809.185741,10467
1659429809.226728,10494
1659429809.265665,10538
1659429809.304603,10548
1659429809.34354,10513
1659429809.385552,10470
1659429809.427563,10453
1659429809.466842,10468
1659429809.506121,10479
1659429809.5454,10502
1659429809.589802,10515
1659429809.634205,10532
1659429809.678607,10546
1659429809.720106,10564
1659429809.761605,10592
1659429809.79986,10602
1659429809.838114,10625
1659429809.876368,10650
1659429809.914964,10664
1659429809.95356,10677
1659429809.992156,10698
1659429810.034167,10722
1659429810.076179,10719
1659429810.114774,10678
1659429810.15337,10640
1659429810.191966,10634
1659429810.232441,10648
1659429810.272915,10661
1659429810.312194,10690
1659429810.351473,10708
1659429810.390752,10726
1659429810.429348,10735
1659429810.467944,10766
1659429810.50654,10785
1659429810.548039,10812
1659429810.589538,10841
1659429810.628817,10862
1659429810.668096,10890
1659429810.707375,10905
1659429810.748874,10934
1659429810.790373,10948
1659429810.828286,10936
1659429810.866199,10894
1659429810.904111,10880
1659429810.948855,10884
1659429810.993599,10914
1659429811.038343,10954
1659429811.071645,10982
1659429811.104947,11000
1659429811.148666,11026
1659429811.192385,11046
1659429811.236104,11063
1659429811.275383,11081
1659429811.314662,11100
1659429811.353941,11122
1659429811.39544,11157
1659429811.436939,11179
1659429811.475194,11195
1659429811.513448,11228
1659429811.551702,11239
1659429811.594738,11219
1659429811.637774,11186
1659429811.67637,11170
1659429811.714966,11202
1659429811.753562,11240
1659429811.7925,11286
1659429811.831437,11311
1659429811.870374,11325
1659429811.911361,11334
1659429811.952348,11349
1659429811.991968,11377
1659429812.031589,11392
1659429812.071209,11412
1659429812.111684,11440
1659429812.152158,11463
1659429812.191096,11487
1659429812.230033,11510
1659429812.268971,11527
1659429812.31047,11518
1659429812.351969,11484
1659429812.390906,11445
1659429812.429844,11438
1659429812.468781,11437
1659429812.51028,11450
1659429812.551779,11472
1659429812.596865,11474
1659429812.64195,11483
1659429812.687036,11489
1659429812.72529,11511
1659429812.763544,11525
1659429812.801799,11552
1659429812.84381,11571
1659429812.885822,11580
1659429812.925442,11593
1659429812.965063,11606
1659429813.004683,11599
1659429813.045158,11552
1659429813.085632,11502
1659429813.123886,11461
1659429813.162141,11468
1659429813.200395,11451
1659429813.239332,11466
1659429813.27827,11473
1659429813.317207,11480
1659429813.358706,11479
1659429813.400205,11482
1659429813.438801,11494
1659429813.477397,11499
1659429813.515993,11516
1659429813.554247,11530
1659429813.592502,11541
1659429813.630756,11576
1659429813.672767,11553
1659429813.714779,11475
1659429813.753375,11392
1659429813.791971,11346
1659429813.830566,11303
1659429813.872578,11284
1659429813.914589,11269
1659429813.953868,11246
1659429813.993147,11234
1659429814.032426,11202
1659429814.076487,11185
1659429814.120548,11171
1659429814.164609,11162
1659429814.203205,11163
1659429814.2418,11155
1659429814.280396,11159
1659429814.321895,11144
1659429814.363394,11092
1659429814.401649,10998
1659429814.439903,10916
1659429814.478158,10850
1659429814.517778,10794
1659429814.557399,10771
1659429814.597019,10754
1659429814.635615,10742
1659429814.674211,10708
1659429814.712807,10696
1659429814.754306,10679
1659429814.795805,10670
1659429814.837304,10662
1659429814.878803,10663
1659429814.918765,10668
1659429814.958727,10676
1659429814.998689,10669
1659429815.04275,10634
1659429815.086811,10546
1659429815.130872,10466
1659429815.164686,10416
1659429815.1985,10384
1659429815.242902,10366
1659429815.287305,10359
1659429815.331707,10344
1659429815.365009,10327
1659429815.39831,10331
1659429815.442713,10317
1659429815.487115,10318
1659429815.531517,10321
1659429815.570796,10322
1659429815.610075,10328
1659429815.649354,10335
1659429815.689829,10349
1659429815.730303,10358
1659429815.769241,10367
1659429815.808178,10313
1659429815.847116,10231
1659429815.890152,10187
1659429815.933188,10159
1659429815.971442,10154
1659429816.009696,10153
1659429816.047951,10163
1659429816.086888,10157
1659429816.125825,10170
1659429816.164763,10174
1659429816.206774,10181
1659429816.248786,10197
1659429816.28704,10198
1659429816.325294,10236
1659429816.363549,10254
1659429816.406072,10272
1659429816.448596,10308
1659429816.486851,10333
1659429816.525105,10358
1659429816.563359,10340
1659429816.604346,10286
1659429816.645333,10247
1659429816.683587,10248
1659429816.721841,10241
1659429816.760096,10259
1659429816.80484,10274
1659429816.849583,10293
1659429816.894327,10300
1659429816.927117,10307
1659429816.959906,10335
1659429817.004308,10347
1659429817.048711,10373
1659429817.093113,10387
1659429817.132051,10397
1659429817.170988,10426
1659429817.209925,10440
1659429817.251425,10456
1659429817.292924,10459
1659429817.33152,10429
1659429817.370116,10375
1659429817.408711,10354
1659429817.451235,10360
1659429817.493759,10370
1659429817.532013,10396
1659429817.570267,10399
1659429817.608522,10416
1659429817.646776,10417
1659429817.68503,10440
1659429817.723285,10456
1659429817.764784,10472
1659429817.806283,10498
1659429817.845562,10517
1659429817.884841,10542
1659429817.92412,10554
1659429817.965107,10576
1659429818.006094,10583
1659429818.045372,10544
1659429818.084651,10474
1659429818.12393,10419
1659429818.165429,10402
1659429818.206928,10391
1659429818.246549,10409
1659429818.28617,10419
1659429818.32579,10447
1659429818.367289,10445
1659429818.408788,10445
1659429818.453874,10450
1659429818.498959,10451
1659429818.544045,10454
1659429818.582299,10468
1659429818.620553,10496
1659429818.658808,10513
1659429818.700307,10539
1659429818.741806,10561
1659429818.781085,10569
1659429818.820364,10512
1659429818.859643,10428
1659429818.90063,10395
1659429818.941616,10364
1659429818.979871,10358
1659429819.018125,10363
1659429819.056379,10378
1659429819.095317,10384
1659429819.134254,10393
1659429819.173192,10400
1659429819.215203,10412
1659429819.257215,10431
1659429819.298714,10438
1659429819.340213,10452
1659429819.381712,10474
1659429819.423211,10494
1659429819.457537,10514
1659429819.491864,10537
1659429819.535924,10529
1659429819.579985,10467
1659429819.624046,10413
1659429819.662642,10374
1659429819.701238,10360
1659429819.739834,10364
1659429819.78082,10380
1659429819.821807,10396
1659429819.860403,10394
1659429819.898999,10407
1659429819.937595,10412
1659429819.976532,10435
1659429820.01547,10456
1659429820.054407,10459
1659429820.095906,10484
1659429820.137405,10504
1659429820.17566,10520
1659429820.213914,10528
1659429820.252168,10535
1659429820.293155,10523
1659429820.334142,10464
1659429820.374104,10411
1659429820.414066,10381
1659429820.454028,10391
1659429820.492282,10394
1659429820.530537,10422
1659429820.568791,10424
1659429820.609778,10437
1659429820.650764,10454
1659429820.693288,10462
1659429820.735812,10490
1659429820.775569,10507
1659429820.815326,10534
1659429820.855083,10547
1659429820.894841,10572
1659429820.934598,10585
1659429820.976609,10607
1659429821.018621,10636
1659429821.057217,10617
1659429821.095813,10557
1659429821.134408,10526
1659429821.173687,10517
1659429821.212966,10519
1659429821.252245,10549
1659429821.293745,10569
1659429821.335243,10578
1659429821.377255,10606
1659429821.419266,10627
1659429821.457862,10659
1659429821.496458,10680
1659429821.535054,10704
1659429821.579798,10734
1659429821.624542,10756
1659429821.669286,10771
1659429821.7031,10772
1659429821.736914,10774
1659429821.781316,10747
1659429821.825719,10700
1659429821.870121,10674
1659429821.908717,10689
1659429821.947313,10733
1659429821.985909,10756
1659429822.027408,10774
1659429822.068907,10776
1659429822.107844,10784
1659429822.146781,10809
1659429822.185719,10834
1659429822.224315,10860
1659429822.262911,10889
1659429822.301507,10940
1659429822.343006,10971
1659429822.384505,10996
1659429822.423101,10994
1659429822.461697,10935
1659429822.500292,10859
1659429822.542304,10828
1659429822.584315,10796
1659429822.623594,10787
1659429822.662873,10800
1659429822.702152,10801
1659429822.740748,10808
1659429822.779344,10792
1659429822.81794,10790
1659429822.859439,10791
1659429822.900938,10803
1659429822.94295,10813
1659429822.984961,10837
1659429823.023898,10860
1659429823.062836,10877
1659429823.101773,10842
1659429823.145493,10758
1659429823.189212,10678
1659429823.232931,10627
1659429823.26572,10592
1659429823.29851,10578
1659429823.342571,10570
1659429823.386631,10587
1659429823.430692,10587
1659429823.468946,10585
1659429823.507201,10591
1659429823.545455,10575
1659429823.587979,10577
1659429823.630502,10574
1659429823.66944,10581
1659429823.708377,10604
1659429823.747315,10624
1659429823.788814,10602
1659429823.830313,10523
1659429823.869592,10455
1659429823.908871,10421
1659429823.94815,10402
1659429823.990161,10400
1659429824.032173,10405
1659429824.071452,10421
1659429824.110731,10416
1659429824.15001,10411
1659429824.188264,10418
1659429824.226518,10431
1659429824.264773,10438
1659429824.306784,10456
1659429824.348796,10476
1659429824.38705,10473
1659429824.425304,10485
1659429824.463558,10455
1659429824.50557,10386
1659429824.547581,10320
1659429824.58686,10287
1659429824.626139,10275
1659429824.665418,10274
1659429824.706918,10299
1659429824.748417,10300
1659429824.786671,10320
1659429824.824925,10304
1659429824.863179,10312
1659429824.906216,10335
1659429824.949252,10347
1659429824.988189,10367
1659429825.027127,10384
1659429825.066064,10405
1659429825.110466,10434
1659429825.154869,10470
1659429825.199271,10469
1659429825.240258,10415
1659429825.281245,10369
1659429825.320182,10350
1659429825.359119,10360
1659429825.398057,10378
1659429825.439556,10399
1659429825.481055,10424
1659429825.519993,10432
1659429825.55893,10448
1659429825.597867,10471
1659429825.636122,10498
1659429825.674376,10531
1659429825.71263,10565
1659429825.753617,10579
1659429825.794604,10617
1659429825.834224,10651
1659429825.873845,10677
1659429825.913465,10657
1659429825.952061,10607
1659429825.990657,10603
1659429826.029253,10617
1659429826.07024,10660
1659429826.111227,10675
1659429826.150506,10698
1659429826.189785,10720
1659429826.229064,10734
1659429826.271075,10766
1659429826.313087,10799
1659429826.351341,10825
1659429826.389595,10829
1659429826.427849,10858
1659429826.468324,10865
1659429826.508798,10874
1659429826.553542,10854
1659429826.598286,10801
1659429826.64303,10772
1659429826.675819,10753
1659429826.708609,10757
1659429826.753011,10772
1659429826.797413,10778
1659429826.841816,10779
1659429826.880412,10784
1659429826.919008,10797
1659429826.957603,10803
1659429826.999102,10826
1659429827.040601,10833
1659429827.079539,10850
1659429827.118476,10873
1659429827.157414,10905
1659429827.199938,10873
1659429827.242461,10816
1659429827.281057,10784
1659429827.319653,10755
1659429827.358249,10772
1659429827.397528,10784
1659429827.436807,10803
1659429827.476086,10827
1659429827.517585,10844
1659429827.559084,10874
1659429827.59768,10891
1659429827.636276,10930
1659429827.674872,10960
1659429827.713126,11013
1659429827.75138,11045
1659429827.789635,11078
1659429827.832159,11099
1659429827.874682,11093
1659429827.913278,11084
1659429827.951874,11097
1659429827.99047,11119
1659429828.031969,11150
1659429828.073468,11190
1659429828.115479,11234
1659429828.157491,11269
1659429828.19677,11302
1659429828.236049,11335
1659429828.275328,11373
1659429828.319389,11418
1659429828.363449,11457
1659429828.40751,11487
1659429828.440812,11523
1659429828.474114,11557
1659429828.518516,11571
1659429828.562918,11580
1659429828.607321,11589
1659429828.641135,11609
1659429828.674949,11612
1659429828.71901,11636
1659429828.76307,11671
1659429828.807131,11701
1659429828.846069,11726
1659429828.885006,11755
1659429828.923944,11791
1659429828.964418,11816
1659429829.004892,11849
1659429829.04383,11863
1659429829.082767,11902
1659429829.121705,11934
1659429829.163716,11944
1659429829.205728,11952
1659429829.244665,11958
1659429829.283602,11976
1659429829.32254,11994
1659429829.360794,12017
1659429829.399048,12032
1659429829.437303,12045
1659429829.479826,12048
1659429829.52235,12055
1659429829.561288,12061
1659429829.600225,12073
1659429829.639163,12087
1659429829.680149,12096
1659429829.721136,12114
1659429829.763148,12129
1659429829.805159,12148
1659429829.84717,12163
1659429829.889182,12164
1659429829.930169,12172
1659429829.971155,12174
1659429830.00941,12168
1659429830.047664,12176
1659429830.085918,12194
1659429830.125197,12199
1659429830.164476,12224
1659429830.203755,12230
1659429830.245254,12235
1659429830.286753,12247
1659429830.325691,12252
1659429830.364628,12263
1659429830.403566,12261
1659429830.44609,12272
1659429830.488613,12271
1659429830.527209,12273
1659429830.565805,12293
1659429830.604401,12293
1659429830.643338,12310
1659429830.682276,12310
1659429830.721213,12309
1659429830.763737,12322
1659429830.806261,12316
1659429830.844515,12326
1659429830.882769,12333
1659429830.921024,12337
1659429830.962523,12344
1659429831.004022,12348
1659429831.046033,12341
1659429831.088045,12336
1659429831.126982,12345
1659429831.16592,12346
1659429831.204857,12341
1659429831.248576,12343
1659429831.292295,12353
1659429831.336015,12349
1659429831.369829,12362
1659429831.403643,12355
1659429831.448387,12351
1659429831.493131,12358
1659429831.537874,12366
1659429831.57647,12372
1659429831.615066,12371
1659429831.653662,12359
1659429831.696186,12362
1659429831.73871,12351
1659429831.777647,12350
1659429831.816585,12348
1659429831.855522,12352
1659429831.895996,12347
1659429831.936471,12355
1659429831.975408,12336
1659429832.014346,12333
1659429832.053283,12334
1659429832.092221,12309
1659429832.131158,12309
1659429832.170095,12310
1659429832.211082,12307
1659429832.252069,12303
1659429832.290323,12315
1659429832.328578,12307
1659429832.366832,12308
1659429832.408843,12309
1659429832.450855,12297
1659429832.489792,12295
1659429832.52873,12298
1659429832.567667,12290
1659429832.609166,12275
1659429832.650665,12263
1659429832.689603,12258
1659429832.72854,12246
1659429832.767478,12243
1659429832.809489,12231
1659429832.851501,12239
1659429832.890438,12223
1659429832.929375,12220
1659429832.968313,12227
1659429833.012715,12215
1659429833.057117,12206
1659429833.10152,12205
1659429833.134309,12198
1659429833.167099,12198
1659429833.210818,12199
1659429833.254537,12190
1659429833.298256,12182
1659429833.336852,12174
1659429833.375448,12172
1659429833.414044,12169
1659429833.456568,12159
1659429833.499091,12164
1659429833.537346,12145
1659429833.5756,12155
1659429833.613854,12144
1659429833.655866,12146
1659429833.697877,12158
1659429833.737156,12160
1659429833.776435,12174
1659429833.815714,12173
1659429833.85431,12181
1659429833.892906,12174
1659429833.931502,12156
1659429833.973513,12141
1659429834.015525,12142
1659429834.055145,12126
1659429834.094766,12119
1659429834.134386,12109
1659429834.174861,12113
1659429834.215335,12099
1659429834.254272,12072
1659429834.29321,12071
1659429834.332147,12056
1659429834.374671,12051
1659429834.417195,12048
1659429834.455108,12040
1659429834.493021,12051
1659429834.530933,12031
1659429834.57192,12017
1659429834.612907,12003
1659429834.657992,11981
1659429834.703078,11942
1659429834.748163,11907
1659429834.786759,11872
1659429834.825355,11854
1659429834.863951,11833
1659429834.905962,11803
1659429834.947973,11778
1659429834.987252,11765
1659429835.026531,11741
1659429835.06581,11717
1659429835.106797,11709
1659429835.147784,11691
1659429835.185697,11663
1659429835.22361,11645
1659429835.261522,11627
1659429835.300801,11629
1659429835.34008,11602
1659429835.379359,11562
1659429835.420858,11493
1659429835.462358,11438
1659429835.500953,11404
1659429835.539549,11393
1659429835.578145,11372
1659429835.6164,11356
1659429835.654654,11346
1659429835.692908,11308
1659429835.734407,11292
1659429835.775906,11290
1659429835.814844,11266
1659429835.853781,11250
1659429835.892719,11243
1659429835.93473,11226
1659429835.976741,11214
1659429836.021144,11215
1659429836.065546,11180
1659429836.109948,11132
1659429836.142738,11077
1659429836.175527,11026
1659429836.220271,11002
1659429836.265015,10986
1659429836.309759,10969
1659429836.343061,10946
1659429836.376362,10940
1659429836.420082,10925
1659429836.463801,10931
1659429836.50752,10911
1659429836.546799,10901
1659429836.586078,10896
1659429836.625357,10901
1659429836.665831,10891
1659429836.706306,10881
1659429836.745585,10872
1659429836.784864,10840
1659429836.824143,10789
1659429836.862739,10720
1659429836.901335,10685
1659429836.93993,10684
1659429836.981942,10672
1659429837.023953,10670
1659429837.062549,10664
1659429837.101145,10671
1659429837.139741,10662
1659429837.182265,10673
1659429837.224788,10663
1659429837.263726,10669
1659429837.302663,10674
1659429837.341601,10667
1659429837.380538,10669
1659429837.419476,10666
1659429837.458413,10665
1659429837.4994,10626
1659429837.540387,10564
1659429837.58291,10506
1659429837.625434,10472
1659429837.663688,10462
1659429837.701943,10461
1659429837.740197,10460
1659429837.784599,10460
1659429837.829002,10452
1659429837.873404,10450
1659429837.906193,10456
1659429837.938983,10460
1659429837.983385,10451
1659429838.027787,10471
1659429838.07219,10470
1659429838.105492,10468
1659429838.138793,10472
1659429838.183537,10466
1659429838.228281,10461
1659429838.273025,10404
1659429838.311621,10339
1659429838.350217,10321
1659429838.388813,10314
1659429838.430312,10314
1659429838.471811,10327
1659429838.510065,10325
1659429838.54832,10327
1659429838.586574,10338
1659429838.629097,10352
1659429838.671621,10363
1659429838.709876,10355
1659429838.74813,10363
1659429838.786384,10364
1659429838.825322,10377
1659429838.864259,10374
1659429838.903197,10380
1659429838.944183,10361
1659429838.98517,10303
1659429839.023424,10265
1659429839.061679,10254
1659429839.099933,10252
1659429839.142457,10263
1659429839.184981,10270
1659429839.22426,10263
1659429839.263539,10257
1659429839.302818,10265
1659429839.343804,10267
1659429839.384791,10273
1659429839.42407,10274
1659429839.463349,10278
1659429839.502628,10289
1659429839.545152,10290
1659429839.587676,10300
1659429839.625588,10280
1659429839.663501,10235
1659429839.701414,10164
1659429839.745816,10129
1659429839.790219,10112
1659429839.834621,10118
1659429839.876632,10130
1659429839.918644,10136
1659429839.956898,10128
1659429839.995152,10128
1659429840.033407,10135
1659429840.073027,10138
1659429840.112648,10142
1659429840.152268,10147
1659429840.193767,10157
1659429840.235266,10167
1659429840.272667,10181
1659429840.310067,10189
1659429840.347468,10159
1659429840.384868,10084
1659429840.42688,10028
1659429840.468891,10008
1659429840.511415,9995
1659429840.553939,9997
1659429840.592535,10016
1659429840.63113,10017
1659429840.669726,10013
1659429840.71447,10013
1659429840.759214,10001
1659429840.803958,10018
1659429840.83726,10027
1659429840.870561,10046
1659429840.914622,10054
1659429840.958683,10070
1659429841.002744,10073
1659429841.04134,10087
1659429841.079936,10091
1659429841.118531,10037
1659429841.161055,9985
1659429841.203579,9957
1659429841.241492,9952
1659429841.279404,9962
1659429841.317317,9981
1659429841.356255,9989
1659429841.395192,10000
1659429841.434129,9998
1659429841.475629,10009
1659429841.517128,10027
1659429841.555723,10042
1659429841.594319,10058
1659429841.632915,10077
1659429841.674927,10075
1659429841.716938,10099
1659429841.756217,10105
1659429841.795496,10121
1659429841.834775,10111
1659429841.873029,10070
1659429841.911284,10029
1659429841.949538,10021
1659429841.990525,10035
1659429842.031512,10048
1659429842.073523,10063
1659429842.115535,10077
1659429842.15413,10084
1659429842.192726,10096
1659429842.231322,10115
1659429842.275041,10136
1659429842.31876,10151
1659429842.36248,10180
1659429842.395782,10184
1659429842.429083,10199
1659429842.473485,10221
1659429842.517888,10240
1659429842.56229,10252
1659429842.601228,10237
1659429842.640165,10205
1659429842.679102,10170
1659429842.721114,10177
1659429842.763125,10192
1659429842.802063,10208
1659429842.841,10236
1659429842.879938,10255
1659429842.920924,10265
1659429842.961911,10278
1659429843.001532,10290
1659429843.041152,10307
1659429843.080773,10336
1659429843.11971,10361
1659429843.158648,10378
1659429843.197585,10401
1659429843.238572,10415
1659429843.279559,10451
1659429843.318155,10456
1659429843.35675,10462
1659429843.395346,10441
1659429843.438382,10418
1659429843.481418,10410
1659429843.519673,10408
1659429843.557927,10428
1659429843.596181,10462
1659429843.637681,10478
1659429843.67918,10484
1659429843.7188,10501
1659429843.758421,10523
1659429843.798041,10534
1659429843.83954,10554
1659429843.881039,10572
1659429843.919294,10593
1659429843.957548,10610
1659429843.995802,10637
1659429844.038326,10655
1659429844.08085,10669
1659429844.119104,10701
1659429844.157359,10695
1659429844.195613,10672
1659429844.239674,10658
1659429844.283734,10653
1659429844.327795,10655
1659429844.369807,10666
1659429844.411818,10669
1659429844.450756,10680
1659429844.489693,10692
1659429844.52863,10718
1659429844.566543,10735
1659429844.604456,10756
1659429844.642369,10770
1659429844.684892,10785
1659429844.727416,10810
1659429844.766012,10835
1659429844.804608,10855
1659429844.843204,10870
1659429844.884703,10886
1659429844.926202,10879
1659429844.965481,10858
1659429845.00476,10832
1659429845.044039,10840
1659429845.082635,10855
1659429845.121231,10869
1659429845.159827,10879
1659429845.200301,10898
1659429845.240775,10903
1659429845.279713,10913
1659429845.31865,10935
1659429845.357588,10952
1659429845.399599,10964
1659429845.441611,10988
1659429845.479865,11013
1659429845.518119,11026
1659429845.556374,11044
1659429845.600776,11051
1659429845.645178,11056
1659429845.68958,11019
1659429845.728518,10984
1659429845.767455,10967
1659429845.806393,10974
1659429845.84738,10974
1659429845.888366,10997
1659429845.928329,11004
1659429845.968291,11004
1659429846.008253,11027
1659429846.04719,11033
1659429846.086128,11042
1659429846.125065,11052
1659429846.166564,11066
1659429846.208063,11085
1659429846.247,11102
1659429846.285938,11120
1659429846.324875,11138
1659429846.367399,11158
1659429846.409923,11149
1659429846.448177,11109
1659429846.486432,11068
1659429846.524686,11047
1659429846.566185,11039
1659429846.607684,11050
1659429846.645938,11050
1659429846.684193,11067
1659429846.722447,11077
1659429846.764971,11083
1659429846.807495,11081
1659429846.845749,11111
1659429846.884003,11116
1659429846.922258,11135
1659429846.964269,11157
1659429847.00628,11163
1659429847.045218,11179
1659429847.084155,11188
1659429847.123093,11205
1659429847.167495,11174
1659429847.211897,11141
1659429847.2563,11101
1659429847.295579,11075
1659429847.334858,11070
1659429847.374137,11076
1659429847.415636,11081
1659429847.457135,11095
1659429847.495731,11093
1659429847.534327,11106
1659429847.572922,11117
1659429847.614422,11128
1659429847.655921,11132
1659429847.694175,11147
1659429847.732429,11157
1659429847.770684,11176
1659429847.809279,11175
1659429847.847875,11187
1659429847.886471,11205
1659429847.92797,11205
1659429847.96947,11177
1659429848.008749,11117
1659429848.048028,11089
1659429848.087306,11080
1659429848.128293,11087
1659429848.16928,11081
1659429848.208217,11084
1659429848.247155,11097
1659429848.286092,11092
1659429848.328616,11096
1659429848.37114,11102
1659429848.409394,11110
1659429848.447648,11114
1659429848.485903,11139
1659429848.530305,11136
1659429848.574707,11138
1659429848.61911,11165
1659429848.660096,11175
1659429848.701083,11190
1659429848.739679,11176
1659429848.778275,11125
1659429848.816871,11077
1659429848.85615,11066
1659429848.895429,11067
1659429848.934708,11071
1659429848.976207,11083
1659429849.017706,11081
1659429849.056302,11076
1659429849.094898,11065
1659429849.133494,11066
1659429849.174993,11068
1659429849.216492,11087
1659429849.256454,11093
1659429849.296416,11102
1659429849.336378,11119
1659429849.374632,11127
1659429849.412887,11153
1659429849.451141,11150
1659429849.493153,11155
1659429849.535164,11152
1659429849.574101,11104
1659429849.613039,11064
1659429849.651976,11053
1659429849.693988,11039
1659429849.735999,11045
1659429849.774595,11065
1659429849.813191,11053
1659429849.851787,11057
1659429849.893286,11070
1659429849.934785,11073
1659429849.973039,11087
1659429850.011294,11091
1659429850.049548,11098
1659429850.093609,11106
1659429850.137669,11119
1659429850.18173,11125
1659429850.224766,11127
1659429850.267802,11138
1659429850.306398,11122
1659429850.344994,11084
1659429850.38359,11034
1659429850.424577,11009
1659429850.465564,10996
1659429850.505184,10999
1659429850.544805,10999
1659429850.584425,10993
1659429850.622679,10984
1659429850.660934,10978
1659429850.699188,10993
1659429850.741199,10984
1659429850.783211,10992
1659429850.824454,11003
1659429850.865697,11011
1659429850.90694,11010
1659429850.948183,11018
1659429850.986779,11029
1659429851.025374,11022
1659429851.06397,11005
1659429851.102908,10914
1659429851.141845,10853
1659429851.180783,10823
1659429851.221769,10798
1659429851.262756,10792
1659429851.301352,10783
1659429851.339948,10779
1659429851.378544,10760
1659429851.420043,10771
1659429851.461542,10756
1659429851.500821,10751
1659429851.5401,10755
1659429851.579379,10758
1659429851.617975,10759
1659429851.656571,10764
1659429851.695167,10771
1659429851.736666,10777
1659429851.778165,10757
1659429851.816761,10686
1659429851.855356,10614
1659429851.893952,10566
1659429851.936476,10538
1659429851.979,10527
1659429852.017254,10500
1659429852.055509,10497
1659429852.093763,10478
1659429852.135262,10468
1659429852.176761,10480
1659429852.215698,10480
1659429852.254636,10499
1659429852.293573,10501
1659429852.335073,10508
1659429852.376572,10510
1659429852.421657,10509
1659429852.466743,10525
1659429852.511828,10516
1659429852.550765,10462
1659429852.589703,10388
1659429852.62864,10336
1659429852.669627,10302
1659429852.710614,10308
1659429852.749893,10302
1659429852.789172,10296
1659429852.828451,10298
1659429852.870462,10301
1659429852.912473,10291
1659429852.951069,10285
1659429852.989665,10302
1659429853.028261,10305
1659429853.066857,10324
1659429853.105453,10337
1659429853.144049,10343
1659429853.185548,10358
1659429853.227047,10372
1659429853.265301,10355
1659429853.303556,10305
1659429853.34181,10224
1659429853.383821,10173
1659429853.425833,10162
1659429853.465112,10160
1659429853.504391,10166
1659429853.54367,10181
1659429853.581924,10179
1659429853.620178,10188
1659429853.658433,10187
1659429853.699932,10195
1659429853.741431,10214
1659429853.784467,10220
1659429853.827503,10228
1659429853.866099,10243
1659429853.904695,10266
1659429853.943291,10274
1659429853.987693,10299
1659429854.032095,10298
1659429854.076498,10270
1659429854.109799,10222
1659429854.143101,10168
1659429854.187162,10152
1659429854.231223,10163
1659429854.275284,10169
1659429854.308073,10166
1659429854.340862,10177
1659429854.385606,10178
1659429854.43035,10193
1659429854.475094,10206
1659429854.513348,10221
1659429854.551603,10231
1659429854.589857,10245
1659429854.630844,10261
1659429854.67183,10278
1659429854.711793,10294
1659429854.751755,10305
1659429854.791717,10323
1659429854.833216,10333
1659429854.874715,10298
1659429854.912969,10257
1659429854.951224,10240
1659429854.989478,10245
1659429855.029099,10256
1659429855.068719,10277
1659429855.10834,10286
1659429855.150351,10292
1659429855.192363,10306
1659429855.230958,10327
1659429855.269554,10354
1659429855.30815,10372
1659429855.349649,10388
1659429855.391148,10415
1659429855.429744,10425
1659429855.46834,10455
1659429855.506936,10474
1659429855.548435,10490
1659429855.589934,10477
1659429855.628871,10437
1659429855.667809,10409
1659429855.706746,10411
1659429855.748758,10421
1659429855.790769,10444
1659429855.829365,10459
1659429855.867961,10477
1659429855.906557,10485
1659429855.951301,10499
1659429855.996045,10522
1659429856.040789,10534
1659429856.078445,10555
1659429856.116102,10577
1659429856.153758,10582
1659429856.191415,10597
1659429856.231582,10611
1659429856.271749,10613
1659429856.311916,10574
1659429856.352083,10522
1659429856.39225,10491
1659429856.433237,10485
1659429856.474224,10493
1659429856.51282,10506
1659429856.551415,10516
1659429856.590011,10519
1659429856.630998,10529
1659429856.671985,10537
1659429856.716387,10550
1659429856.760789,10569
1659429856.805192,10587
1659429856.844129,10601
1659429856.883067,10617
1659429856.922004,10635
1659429856.964015,10644
1659429857.006027,10656
1659429857.044623,10614
1659429857.083219,10558
1659429857.121814,10523
1659429857.16041,10515
1659429857.199006,10508
1659429857.237602,10524
1659429857.279613,10537
1659429857.321625,10545
1659429857.360563,10557
1659429857.3995,10565
1659429857.438437,10582
1659429857.479424,10601
1659429857.520411,10620
1659429857.559007,10637
1659429857.597603,10657
1659429857.636199,10669
1659429857.675136,10682
1659429857.714073,10704
1659429857.753011,10676
1659429857.795022,10620
1659429857.837034,10583
1659429857.874946,10577
1659429857.912859,10575
1659429857.950772,10582
1659429857.993296,10589
1659429858.03582,10599
1659429858.07988,10622
1659429858.123941,10629
1659429858.168002,10646
1659429858.201303,10655
1659429858.234605,10672
1659429858.279349,10696
1659429858.324093,10716
1659429858.368837,10721
1659429858.402651,10735
1659429858.436465,10762
1659429858.480184,10759
1659429858.523904,10738
1659429858.567623,10690
1659429858.60656,10656
1659429858.645498,10647
1659429858.684435,10653
1659429858.726959,10662
1659429858.769483,10673
1659429858.807737,10689
1659429858.845991,10699
1659429858.884246,10718
1659429858.925232,10721
1659429858.966219,10740
1659429859.00584,10760
1659429859.04546,10773
1659429859.085081,10780
1659429859.123335,10789
1659429859.161589,10815
1659429859.199844,10828
1659429859.24288,10839
1659429859.285916,10792
1659429859.324853,10751
1659429859.363791,10743
1659429859.402728,10734
1659429859.443715,10741
1659429859.484702,10754
1659429859.523639,10782
1659429859.562577,10798
1659429859.601514,10821
1659429859.644038,10841
1659429859.686562,10872
1659429859.724474,10886
1659429859.762387,10888
1659429859.8003,10902
1659429859.841799,10908
1659429859.883298,10920
1659429859.921894,10929
1659429859.96049,10941
1659429859.999086,10939
1659429860.042805,10891
1659429860.086524,10854
1659429860.130243,10831
1659429860.163545,10828
1659429860.196847,10823
1659429860.241932,10824
1659429860.287018,10840
1659429860.332103,10836
1659429860.370357,10841
1659429860.408612,10851
1659429860.446866,10846
1659429860.488878,10852
1659429860.530889,10866
1659429860.569826,10882
1659429860.608764,10910
1659429860.647701,10935
1659429860.6892,10944
1659429860.730699,10953
1659429860.768954,10935
1659429860.807208,10887
1659429860.845462,10871
1659429860.8844,10887
1659429860.923337,10899
1659429860.962275,10913
1659429861.003774,10921
1659429861.045273,10921
1659429861.083869,10929
1659429861.122465,10937
1659429861.16106,10958
1659429861.202559,10974
1659429861.244059,11000
1659429861.285558,11026
1659429861.327057,11047
1659429861.368556,11064
1659429861.410055,11061
1659429861.452066,11025
1659429861.494078,10964
1659429861.533015,10933
1659429861.571953,10927
1659429861.61089,10932
1659429861.652389,10940
1659429861.693888,10942
1659429861.732826,10951
1659429861.771763,10944
1659429861.810701,10953
1659429861.849638,10954
1659429861.888576,10954
1659429861.927513,10970
1659429861.9685,10976
1659429862.009486,10995
1659429862.048082,11008
1659429862.086678,11004
1659429862.125274,10948
1659429862.167798,10894
1659429862.210322,10834
1659429862.249259,10795
1659429862.288197,10779
1659429862.327134,10772
1659429862.366071,10773
1659429862.405009,10761
1659429862.443946,10762
1659429862.485445,10749
1659429862.526944,10740
1659429862.569981,10728
1659429862.613017,10731
1659429862.651613,10750
1659429862.690208,10758
1659429862.728804,10761
1659429862.773548,10770
1659429862.818292,10734
1659429862.863036,10671
1659429862.896338,10621
1659429862.929639,10583
1659429862.973017,10541
1659429863.016395,10518
1659429863.059772,10508
1659429863.093074,10510
1659429863.126376,10498
1659429863.170778,10483
1659429863.215181,10495
1659429863.259583,10504
1659429863.298179,10507
1659429863.336775,10518
1659429863.375371,10528
1659429863.416357,10527
1659429863.457344,10539
1659429863.496623,10519
1659429863.535902,10485
1659429863.575181,10422
1659429863.613777,10369
1659429863.652373,10330
1659429863.690969,10316
1659429863.731955,10326
1659429863.772942,10344
1659429863.812563,10362
1659429863.852183,10358
1659429863.891804,10372
1659429863.933303,10390
1659429863.974802,10406
1659429864.013398,10439
1659429864.051994,10473
1659429864.09059,10530
1659429864.132601,10580
1659429864.174613,10640
1659429864.212867,10658
1659429864.251121,10638
1659429864.289375,10594
1659429864.330874,10553
1659429864.372374,10533
1659429864.411653,10509
1659429864.450932,10484
1659429864.490211,10482
1659429864.534271,10492
1659429864.578332,10518
1659429864.622393,10547
1659429864.655182,10563
1659429864.687972,10572
1659429864.732716,10585
1659429864.77746,10599
1659429864.822203,10634
1659429864.864727,10683
1659429864.907251,10705
1659429864.945505,10695
1659429864.98376,10653
1659429865.022014,10579
1659429865.064538,10516
1659429865.107061,10512
1659429865.145657,10506
1659429865.184253,10519
1659429865.222849,10548
1659429865.261445,10563
1659429865.300041,10573
1659429865.338637,10585
1659429865.38116,10606
1659429865.423684,10624
1659429865.462622,10658
1659429865.501559,10675
1659429865.540497,10710
1659429865.578751,10764
1659429865.617005,10786
1659429865.655259,10794
1659429865.697271,10769
1659429865.739282,10712
1659429865.77822,10688
1659429865.817157,10688
1659429865.856095,10685
1659429865.898106,10698
1659429865.940117,10709
1659429865.978713,10704
1659429866.017309,10709
1659429866.055905,10706
1659429866.097917,10711
1659429866.139928,10731
1659429866.183647,10748
1659429866.227366,10768
1659429866.271086,10774
1659429866.309681,10782
1659429866.348277,10800
1659429866.386873,10808
1659429866.428885,10764
1659429866.470896,10689
1659429866.510243,10647
1659429866.549591,10621
1659429866.588938,10613
1659429866.628285,10613
1659429866.667633,10630
1659429866.701447,10628
1659429866.735261,10646
1659429866.779321,10644
1659429866.823382,10658
1659429866.867443,10692
1659429866.908942,10710
1659429866.950441,10725
1659429866.989379,10744
1659429867.028316,10778
1659429867.067254,10796
1659429867.106191,10820
1659429867.145128,10813
1659429867.184066,10756
1659429867.225565,10704
1659429867.267064,10685
1659429867.306001,10686
1659429867.344939,10689
1659429867.383876,10705
1659429867.424863,10726
1659429867.46585,10741
1659429867.504446,10757
1659429867.543042,10809
1659429867.581637,10848
1659429867.620575,10873
1659429867.659512,10894
1659429867.69845,10918
1659429867.740461,10938
1659429867.782473,10966
1659429867.820727,10996
1659429867.858981,10991
1659429867.897236,10963
1659429867.938735,10912
1659429867.980234,10892
1659429868.020196,10885
1659429868.060158,10897
1659429868.10012,10914
1659429868.141619,10925
1659429868.183118,10926
1659429868.221714,10916
1659429868.26031,10917
1659429868.298906,10921
1659429868.34143,10945
1659429868.383953,10951
1659429868.428014,10947
1659429868.472075,10959
1659429868.516136,10980
1659429868.555415,11007
1659429868.594694,11004
1659429868.633973,10973
1659429868.675472,10939
1659429868.716971,10945
1659429868.755567,10947
1659429868.794163,10968
1659429868.832759,10997
1659429868.870671,11008
1659429868.908584,11030
1659429868.946497,11049
1659429868.989533,11074
1659429869.032569,11068
1659429869.071507,11033
1659429869.110444,10975
1659429869.149381,11005
1659429869.190368,11079
1659429869.231355,11115
1659429869.270634,11143
1659429869.309913,11148
1659429869.349192,11136
1659429869.388129,11146
1659429869.427067,11188
1659429869.466004,11209
1659429869.507503,11232
1659429869.549002,11229
1659429869.588281,11226
1659429869.62756,11248
1659429869.666839,11253
1659429869.707826,11262
1659429869.748813,11272
1659429869.792532,11269
1659429869.836251,11265
1659429869.879971,11278
1659429869.913785,11287
1659429869.947599,11272
1659429869.992001,11262
1659429870.036403,11252
1659429870.080806,11245
1659429870.11257,11236
1659429870.144335,11227
1659429870.189079,11224
1659429870.233823,11232
1659429870.278567,11220
1659429870.317504,11223
1659429870.356441,11211
1659429870.395379,11205
1659429870.436878,11210
1659429870.478377,11204
1659429870.517315,11200
1659429870.556252,11197
1659429870.59519,11195
1659429870.637201,11151
1659429870.679212,11134
1659429870.717467,11104
1659429870.755721,11098
1659429870.793975,11113
1659429870.832913,11110
1659429870.87185,11115
1659429870.910788,11128
1659429870.953311,11133
1659429870.995835,11128
1659429871.034431,11178
1659429871.073027,11204
1659429871.111623,11212
1659429871.15261,11210
1659429871.193596,11172
1659429871.232875,11136
1659429871.272154,11142
1659429871.311433,11173
1659429871.353445,11183
1659429871.395456,11180
1659429871.434394,11168
1659429871.473331,11154
1659429871.512269,11134
1659429871.553767,11109
1659429871.595267,11111
1659429871.634546,11090
1659429871.673825,11073
1659429871.713104,11052
1659429871.754347,11027
1659429871.795589,11002
1659429871.836832,10970
1659429871.878075,10949
1659429871.920599,10935
1659429871.963123,10936
1659429872.001719,10922
1659429872.040315,10902
1659429872.078911,10893
1659429872.119897,10890
1659429872.160884,10888
1659429872.19948,10904
1659429872.238076,10918
1659429872.276672,10934
1659429872.315951,10963
1659429872.35523,10965
1659429872.394509,10970
1659429872.436008,10962
1659429872.477507,10965
1659429872.516786,10975
1659429872.556065,10988
1659429872.595344,11004
1659429872.636843,11009
1659429872.678342,11026
1659429872.722403,11028
1659429872.766464,11039
1659429872.810524,11062
1659429872.843826,11073
1659429872.877128,11087
1659429872.92153,11101
1659429872.965932,11112
1659429873.010335,11090
1659429873.042612,11086
1659429873.074889,11087
1659429873.11895,11095
1659429873.163011,11112
1659429873.207071,11128
1659429873.246009,11153
1659429873.284946,11152
1659429873.323884,11155
1659429873.365383,11169
1659429873.406882,11196
1659429873.445136,11223
1659429873.48339,11255
1659429873.521645,11290
1659429873.564168,11332
1659429873.606692,11350
1659429873.645288,11328
1659429873.683884,11310
1659429873.72248,11313
1659429873.761417,11311
1659429873.800355,11315
1659429873.839292,11322
1659429873.881816,11343
1659429873.92434,11362
1659429873.962935,11410
1659429874.001531,11431
1659429874.040127,11466
1659429874.080602,11494
1659429874.121076,11526
1659429874.160355,11557
1659429874.199634,11577
1659429874.238913,11587
1659429874.280925,11584
1659429874.322936,11539
1659429874.361532,11477
1659429874.400128,11443
1659429874.438724,11425
1659429874.480223,11426
1659429874.521722,11456
1659429874.560659,11470
1659429874.599597,11494
1659429874.638534,11496
1659429874.682595,11501
1659429874.726656,11510
1659429874.770716,11520
1659429874.805043,11531
1659429874.839369,11543
1659429874.884113,11571
1659429874.928857,11573
1659429874.973601,11579
1659429875.014588,11585
1659429875.055574,11591
1659429875.094512,11576
1659429875.133449,11529
1659429875.172387,11461
1659429875.211666,11413
1659429875.250945,11381
1659429875.290224,11347
1659429875.330698,11344
1659429875.371173,11328
1659429875.41011,11311
1659429875.449047,11289
1659429875.487985,11281
1659429875.526239,11267
1659429875.564493,11271
1659429875.602748,11272
1659429875.644759,11284
1659429875.686771,11299
1659429875.725708,11285
1659429875.764646,11293
1659429875.803583,11295
1659429875.845594,11301
1659429875.887606,11306
1659429875.926202,11306
1659429875.964797,11300
1659429876.003393,11238
1659429876.045405,11155
1659429876.087416,11081
1659429876.126354,11016
1659429876.165291,10967
1659429876.204229,10947
1659429876.245728,10922
1659429876.287227,10906
1659429876.330946,10887
1659429876.374665,10856
1659429876.418385,10850
1659429876.457322,10838
1659429876.496259,10830
1659429876.535197,10827
1659429876.576696,10817
1659429876.618195,10817
1659429876.656791,10809
1659429876.695387,10810
1659429876.733983,10798
1659429876.775482,10797
1659429876.816981,10800
1659429876.855918,10815
1659429876.894856,10799
1659429876.933793,10766
1659429876.972389,10697
1659429877.010985,10593
1659429877.049581,10528
1659429877.089201,10480
1659429877.128822,10445
1659429877.168442,10408
1659429877.210454,10409
1659429877.252465,10375
1659429877.291061,10357
1659429877.329657,10346
1659429877.368253,10345
1659429877.412655,10334
1659429877.457057,10318
1659429877.50146,10325
1659429877.534761,10319
1659429877.568063,10338
1659429877.611783,10323
1659429877.655502,10325
1659429877.699221,10352
1659429877.741745,10349
1659429877.784268,10350
1659429877.822864,10359
1659429877.86146,10369
1659429877.900056,10363
1659429877.938993,10334
1659429877.977931,10272
1659429878.016868,10227
1659429878.058367,10207
1659429878.099867,10203
1659429878.139829,10212
1659429878.179791,10206
1659429878.219753,10203
1659429878.258007,10194
1659429878.296262,10199
1659429878.334516,10202
1659429878.37704,10212
1659429878.419563,10216
1659429878.458159,10216
1659429878.496755,10240
1659429878.535351,10233
1659429878.57685,10239
1659429878.618349,10263
1659429878.657287,10260
1659429878.696224,10274
1659429878.735162,10281
1659429878.776661,10288
1659429878.81816,10285
1659429878.856072,10261
1659429878.893985,10195
1659429878.931898,10158
1659429878.974422,10153
1659429879.016946,10138
1659429879.055883,10144
1659429879.09482,10161
1659429879.133758,10189
1659429879.177819,10184
1659429879.221879,10194
1659429879.26594,10199
1659429879.306927,10217
1659429879.347914,10232
1659429879.387534,10244
1659429879.427155,10254
1659429879.466775,10269
1659429879.508274,10279
1659429879.549773,10297
1659429879.588369,10326
1659429879.626965,10351
1659429879.665561,10391
1659429879.704157,10435
1659429879.742753,10469
1659429879.781349,10463
1659429879.822335,10399
1659429879.863322,10326
1659429879.901918,10293
1659429879.940514,10278
1659429879.97911,10301
1659429880.021634,10338
1659429880.064157,10385
1659429880.102412,10419
1659429880.140666,10457
1659429880.17892,10477
1659429880.218199,10493
1659429880.257478,10512
1659429880.296757,10517
1659429880.338769,10501
1659429880.38078,10491
1659429880.419718,10494
1659429880.458655,10500
1659429880.497592,10498
1659429880.539092,10486
1659429880.580591,10492
1659429880.622602,10488
1659429880.664613,10490
1659429880.703209,10450
1659429880.741805,10421
1659429880.780401,10379
1659429880.824803,10381
1659429880.869206,10393
1659429880.913608,10405
1659429880.94691,10449
1659429880.980212,10475
1659429881.024956,10481
1659429881.069699,10488
1659429881.114443,10505
1659429881.152698,10506
1659429881.190952,10519
1659429881.229206,10512
1659429881.271218,10513
1659429881.313229,10520
1659429881.352167,10510
1659429881.391104,10506
1659429881.430041,10504
1659429881.472053,10498
1659429881.514064,10467
1659429881.553002,10407
1659429881.591939,10358
1659429881.630877,10331
1659429881.670156,10332
1659429881.709435,10333
1659429881.748713,10349
1659429881.789188,10338
1659429881.829662,10307
1659429881.868941,10305
1659429881.90822,10316
1659429881.947499,10313
1659429881.988486,10294
1659429882.029473,10282
1659429882.068069,10279
1659429882.106665,10298
1659429882.145261,10325
1659429882.185735,10373
1659429882.226209,10384
1659429882.267965,10327
1659429882.30972,10236
1659429882.351475,10161
1659429882.39323,10136
1659429882.432168,10118
1659429882.471105,10139
1659429882.510043,10140
1659429882.552054,10149
1659429882.594066,10156
1659429882.633003,10148
1659429882.67194,10146
1659429882.710878,10148
1659429882.749474,10163
1659429882.78807,10180
1659429882.826665,10194
1659429882.86714,10201
1659429882.907614,10202
1659429882.946893,10193
1659429882.986172,10160
1659429883.025451,10095
1659429883.06695,10057
1659429883.108449,10047
1659429883.146704,10035
1659429883.184958,10035
1659429883.223212,10043
1659429883.265224,10037
1659429883.307235,10040
1659429883.34549,10033
1659429883.383744,10043
1659429883.421998,10046
1659429883.466401,10049
1659429883.510803,10062
1659429883.555205,10070
1659429883.597729,10075
1659429883.640253,10067
1659429883.67919,10080
1659429883.718128,10067
1659429883.757065,10021
1659429883.795661,9985
1659429883.834257,9989
1659429883.872853,9990
1659429883.915376,10002
1659429883.9579,10039
1659429883.997179,10087
1659429884.036458,10143
1659429884.075737,10175
1659429884.116212,10217
1659429884.156686,10243
1659429884.195965,10275
1659429884.235244,10295
1659429884.274523,10316
1659429884.312777,10329
1659429884.351032,10341
1659429884.389286,10318
1659429884.431297,10248
1659429884.473309,10178
1659429884.512246,10161
1659429884.551184,10179
1659429884.590121,10190
1659429884.63162,10214
1659429884.673119,10236
1659429884.711715,10222
1659429884.750311,10208
1659429884.788907,10195
1659429884.831431,10195
1659429884.873955,10189
1659429884.918698,10190
1659429884.963442,10179
1659429885.008186,10174
1659429885.040976,10165
1659429885.073765,10146
1659429885.117826,10120
1659429885.161886,10083
1659429885.205947,10070
1659429885.244543,10067
1659429885.283139,10084
1659429885.321735,10088
1659429885.363234,10114
1659429885.404733,10118
1659429885.443329,10120
1659429885.481925,10137
1659429885.520521,10163
1659429885.561507,10212
1659429885.602494,10265
1659429885.64109,10328
1659429885.679686,10370
1659429885.718282,10398
1659429885.757219,10367
1659429885.796157,10308
1659429885.835094,10267
1659429885.877618,10248
1659429885.920142,10258
1659429885.958738,10270
1659429885.997334,10296
1659429886.035929,10284
1659429886.077428,10300
1659429886.118927,10286
1659429886.157523,10276
1659429886.196119,10271
1659429886.234715,10269
1659429886.273653,10271
1659429886.31259,10284
1659429886.351527,10289
1659429886.393027,10288
1659429886.434526,10267
1659429886.476025,10233
1659429886.517524,10232
1659429886.55612,10244
1659429886.594716,10266
1659429886.633312,10286
1659429886.677031,10302
1659429886.72075,10317
1659429886.764469,10326
1659429886.798283,10339
1659429886.832097,10349
1659429886.876841,10365
1659429886.921585,10383
1659429886.966329,10411
1659429886.999631,10421
1659429887.032933,10401
1659429887.077676,10361
1659429887.12242,10331
1659429887.167164,10331
1659429887.206443,10337
1659429887.245722,10359
1659429887.285001,10371
1659429887.327013,10371
1659429887.369024,10377
1659429887.40762,10372
1659429887.446216,10395
1659429887.484812,10402
1659429887.524091,10420
1659429887.56337,10436
1659429887.602648,10457
1659429887.640561,10454
1659429887.678474,10395
1659429887.716387,10358
1659429887.761131,10366
1659429887.805875,10397
1659429887.850618,10413
1659429887.89263,10423
1659429887.934641,10410
1659429887.973237,10402
1659429888.011833,10404
1659429888.050429,10421
1659429888.089708,10451
1659429888.128987,10482
1659429888.168266,10507
1659429888.209765,10525
1659429888.251264,10536
1659429888.289518,10482
1659429888.327773,10418
1659429888.366027,10389
1659429888.404964,10377
1659429888.443902,10384
1659429888.482839,10398
1659429888.524851,10419
1659429888.566862,10440
1659429888.604775,10446
1659429888.642688,10449
1659429888.6806,10447
1659429888.7221,10465
1659429888.763599,10472
1659429888.802195,10467
1659429888.840791,10475
1659429888.879386,10473
1659429888.920885,10412
1659429888.962384,10359
1659429889.001663,10341
1659429889.040942,10341
1659429889.080221,10365
1659429889.122233,10397
1659429889.164244,10418
1659429889.20284,10422
1659429889.241436,10439
1659429889.280032,10447
1659429889.324776,10458
1659429889.36952,10458
1659429889.414264,10478
1659429889.456787,10508
1659429889.499311,10526
1659429889.537224,10551
1659429889.575137,10518
1659429889.61305,10459
1659429889.651645,10424
1659429889.690241,10430
1659429889.728837,10424
1659429889.770336,10438
1659429889.811835,10451
1659429889.850773,10455
1659429889.88971,10466
1659429889.928648,10480
1659429889.970147,10490
1659429890.011646,10501
1659429890.050583,10523
1659429890.089521,10533
1659429890.128458,10537
1659429890.167395,10561
1659429890.206333,10543
1659429890.24527,10483
1659429890.287282,10454
1659429890.329293,10448
1659429890.368572,10458
1659429890.407851,10489
1659429890.44713,10528
1659429890.488629,10552
1659429890.530128,10594
1659429890.569066,10609
1659429890.608003,10635
1659429890.646941,10630
1659429890.689464,10615
1659429890.731988,10627
1659429890.776049,10636
1659429890.82011,10657
1659429890.864171,10681
1659429890.896448,10657
1659429890.928725,10598
1659429890.973127,10559
1659429891.017529,10532
1659429891.061932,10558
1659429891.100186,10617
1659429891.13844,10671
1659429891.176695,10721
1659429891.218706,10743
1659429891.260717,10747
1659429891.299655,10753
1659429891.338592,10770
1659429891.37753,10781
1659429891.416467,10808
1659429891.455405,10811
1659429891.494342,10813
1659429891.535329,10823
1659429891.576316,10838
1659429891.618327,10821
1659429891.660338,10790
1659429891.70235,10760
1659429891.744361,10749
1659429891.782616,10762
1659429891.82087,10761
1659429891.859124,10778
1659429891.89772,10781
1659429891.936316,10792
1659429891.974912,10797
1659429892.016411,10825
1659429892.05791,10830
1659429892.096848,10837
1659429892.135785,10856
1659429892.174722,10858
1659429892.212635,10873
1659429892.250548,10876
1659429892.288461,10890
1659429892.330472,10901
1659429892.372483,10890
1659429892.411421,10869
1659429892.450358,10871
1659429892.489296,10888
1659429892.530795,10899
1659429892.572294,10922
1659429892.611573,10931
1659429892.650852,10934
1659429892.690131,10944
1659429892.732142,10952
1659429892.774154,10964
1659429892.812067,10961
1659429892.849979,10980
1659429892.887892,10994
1659429892.930928,11016
1659429892.973964,11013
1659429893.018367,11024
1659429893.062769,11043
1659429893.107171,11036
1659429893.145767,11024
1659429893.184363,11005
1659429893.222959,11003
1659429893.263946,11001
1659429893.304933,11023
1659429893.344212,11019
1659429893.383491,11015
1659429893.42277,11030
1659429893.464268,11035
1659429893.505768,11040
1659429893.544705,11054
1659429893.583642,11076
1659429893.62258,11082
1659429893.661859,11093
1659429893.701138,11094
1659429893.740417,11084
1659429893.781916,11089
1659429893.823415,11078
1659429893.862353,11056
1659429893.90129,11052
1659429893.940227,11050
1659429893.982751,11051
1659429894.025275,11073
1659429894.063529,11074
1659429894.101784,11073
1659429894.140038,11085
1659429894.178634,11075
1659429894.21723,11090
1659429894.255826,11080
1659429894.297325,11090
1659429894.338824,11095
1659429894.380835,11100
1659429894.422847,11106
1659429894.461101,11106
1659429894.499355,11099
1659429894.53761,11065
1659429894.582695,11051
1659429894.62778,11035
1659429894.672866,11034
1659429894.705143,11054
1659429894.73742,11053
1659429894.781822,11069
1659429894.826225,11078
1659429894.870627,11083
1659429894.904441,11089
1659429894.938255,11111
1659429894.982657,11110
1659429895.02706,11107
1659429895.071462,11126
1659429895.109716,11137
1659429895.147971,11148
1659429895.186225,11158
1659429895.227724,11143
1659429895.269223,11117
1659429895.308161,11096
1659429895.347098,11096
1659429895.386036,11094
1659429895.42429,11111
1659429895.462544,11121
1659429895.500798,11128
1659429895.542298,11128
1659429895.583797,11136
1659429895.622734,11137
1659429895.661672,11157
1659429895.700609,11171
1659429895.74262,11173
1659429895.784632,11185
1659429895.823911,11182
1659429895.86319,11196
1659429895.902469,11190
1659429895.943968,11170
1659429895.985467,11150
1659429896.024746,11156
1659429896.064025,11171
1659429896.103304,11181
1659429896.144803,11193
1659429896.186302,11198
1659429896.225581,11202
1659429896.26486,11195
1659429896.304139,11193
1659429896.347858,11196
1659429896.391577,11196
1659429896.435297,11182
1659429896.468086,11179
1659429896.500876,11180
1659429896.544936,11171
1659429896.588997,11172
1659429896.633058,11163
1659429896.671654,11137
1659429896.71025,11087
1659429896.748846,11046
1659429896.790857,11014
1659429896.832868,11011
1659429896.872147,11001
1659429896.911426,10991
1659429896.950705,10995
1659429896.992204,10992
1659429897.033704,10996
1659429897.072641,10983
1659429897.111578,10967
1659429897.150516,10964
1659429897.189795,10952
1659429897.229074,10949
1659429897.268353,10949
1659429897.310364,10941
1659429897.352376,10916
1659429897.390289,10871
1659429897.428201,10810
1659429897.466114,10779
1659429897.508126,10769
1659429897.550137,10766
1659429897.588391,10761
1659429897.626646,10756
1659429897.6649,10740
1659429897.706399,10721
1659429897.747898,10729
1659429897.786835,10733
1659429897.825773,10740
1659429897.86471,10738
1659429897.906209,10744
1659429897.947709,10750
1659429897.987671,10742
1659429898.027633,10730
1659429898.067595,10680
1659429898.107557,10631
1659429898.147519,10594
1659429898.18953,10584
1659429898.231542,10563
1659429898.269796,10546
1659429898.30805,10542
1659429898.346305,10522
1659429898.387804,10499
1659429898.429303,10502
1659429898.46824,10483
1659429898.507178,10482
1659429898.546115,10481
1659429898.590176,10465
1659429898.634237,10452
1659429898.678298,10444
1659429898.718772,10424
1659429898.759247,10359
1659429898.798526,10276
1659429898.837805,10239
1659429898.877084,10204
1659429898.915679,10192
1659429898.954275,10181
1659429898.992871,10161
1659429899.03437,10150
1659429899.075869,10131
1659429899.11549,10118
1659429899.15511,10105
1659429899.194731,10088
1659429899.23623,10086
1659429899.277729,10091
1659429899.316667,10093
1659429899.355604,10100
1659429899.394542,10105
1659429899.437065,10056
1659429899.479589,10000
1659429899.518185,9931
1659429899.556781,9904
1659429899.595376,9894
1659429899.633631,9883
1659429899.671885,9869
1659429899.71014,9858
1659429899.751639,9840
1659429899.793138,9818
1659429899.832417,9826
1659429899.871696,9802
1659429899.910975,9788
1659429899.951962,9786
1659429899.992948,9791
1659429900.031544,9784
1659429900.07014,9789
1659429900.108736,9789
1659429900.150747,9760
1659429900.192759,9708
1659429900.23682,9662
1659429900.28088,9652
1659429900.324941,9653
1659429900.364562,9657
1659429900.404182,9660
1659429900.443803,9673
1659429900.485814,9671
1659429900.527826,9671
1659429900.566421,9672
1659429900.605017,9687
1659429900.643613,9694
1659429900.6846,9707
1659429900.725587,9724
1659429900.765207,9742
1659429900.804828,9760
1659429900.844448,9766
1659429900.882703,9771
1659429900.920957,9737
1659429900.959211,9696
1659429901.000198,9692
1659429901.041185,9683
1659429901.079781,9690
1659429901.118376,9719
1659429901.156972,9719
1659429901.198984,9728
1659429901.240995,9728
1659429901.279591,9740
1659429901.318187,9754
1659429901.356783,9771
1659429901.396062,9789
1659429901.435341,9800
1659429901.47462,9827
1659429901.516119,9838
1659429901.557618,9866
1659429901.599117,9882
1659429901.640616,9891
1659429901.679554,9867
1659429901.718491,9855
1659429901.757428,9860
1659429901.801831,9873
1659429901.846233,9895
1659429901.890635,9919
1659429901.922913,9946
1659429901.95519,9965
1659429901.999592,9981
1659429902.043994,10002
1659429902.088397,10033
1659429902.122723,10048
1659429902.157049,10086
1659429902.200769,10101
1659429902.244488,10122
1659429902.288207,10146
1659429902.327486,10166
1659429902.366765,10177
1659429902.406044,10168
1659429902.448568,10148
1659429902.491092,10133
1659429902.529687,10146
1659429902.568283,10168
1659429902.606879,10183
1659429902.648891,10208
1659429902.690902,10212
1659429902.730523,10230
1659429902.770143,10243
1659429902.809764,10245
1659429902.847677,10263
1659429902.885589,10283
1659429902.923502,10301
1659429902.964489,10309
1659429903.005476,10327
1659429903.044755,10338
1659429903.084033,10340
1659429903.123312,10317
1659429903.165324,10303
1659429903.207335,10302
1659429903.249091,10307
1659429903.290846,10322
1659429903.332601,10334
1659429903.374357,10353
1659429903.412952,10354
1659429903.451548,10379
1659429903.490144,10380
1659429903.531131,10391
1659429903.572118,10406
1659429903.611397,10428
1659429903.650676,10448
1659429903.689955,10459
1659429903.728892,10474
1659429903.767829,10468
1659429903.806767,10446
1659429903.848266,10403
1659429903.889765,10377
1659429903.929044,10369
1659429903.968323,10362
1659429904.007602,10362
1659429904.048589,10371
1659429904.089576,10374
1659429904.12783,10377
1659429904.166084,10394
1659429904.204339,10394
1659429904.245838,10391
1659429904.287337,10404
1659429904.326274,10404
1659429904.365211,10413
1659429904.404149,10413
1659429904.447868,10415
1659429904.491587,10425
1659429904.535307,10404
1659429904.577318,10358
1659429904.619329,10307
1659429904.658267,10287
1659429904.697204,10270
1659429904.736142,10270
1659429904.778153,10259
1659429904.820165,10267
1659429904.858761,10276
1659429904.897357,10269
1659429904.935952,10269
1659429904.977964,10269
1659429905.019975,10281
1659429905.058229,10282
1659429905.096484,10297
1659429905.134738,10296
1659429905.173334,10301
1659429905.21193,10316
1659429905.250526,10320
1659429905.29305,10326
1659429905.335573,10320
1659429905.374169,10280
1659429905.412765,10244
1659429905.451361,10230
1659429905.489615,10222
1659429905.527869,10225
1659429905.566124,10238
1659429905.608135,10238
1659429905.650147,10247
1659429905.689767,10241
1659429905.729388,10242
1659429905.769008,10253
1659429905.809995,10273
1659429905.850982,10289
1659429905.889919,10301
1659429905.928857,10316
1659429905.967794,10329
1659429906.010318,10349
1659429906.052842,10358
1659429906.096561,10373
1659429906.14028,10376
1659429906.183999,10352
1659429906.217813,10328
1659429906.251627,10316
1659429906.29603,10324
1659429906.340432,10331
1659429906.384835,10362
1659429906.42343,10366
1659429906.462026,10377
1659429906.500622,10399
1659429906.541609,10412
1659429906.582596,10424
1659429906.622216,10439
1659429906.661837,10455
1659429906.701457,10471
1659429906.739712,10502
1659429906.777966,10528
1659429906.81622,10549
1659429906.857719,10576
1659429906.899218,10571
1659429906.938497,10574
1659429906.977777,10571
1659429907.017056,10541
1659429907.05531,10523
1659429907.093564,10520
1659429907.131818,10520
1659429907.173317,10526
1659429907.214817,10540
1659429907.254437,10548
1659429907.294058,10567
1659429907.333678,10561
1659429907.374153,10552
1659429907.414627,10563
1659429907.456126,10561
1659429907.497625,10574
1659429907.536563,10580
1659429907.5755,10599
1659429907.614438,10607
1659429907.658498,10629
1659429907.702559,10628
1659429907.74662,10651
1659429907.778385,10672
1659429907.810149,10678
1659429907.855235,10652
1659429907.90032,10617
1659429907.945406,10617
1659429907.984002,10609
1659429908.022597,10638
1659429908.061193,10635
1659429908.102692,10650
1659429908.144192,10658
1659429908.183812,10666
1659429908.223433,10672
1659429908.263053,10690
1659429908.304552,10710
1659429908.346051,10734
1659429908.383964,10761
1659429908.421877,10773
1659429908.45979,10782
1659429908.499068,10803
1659429908.538347,10811
1659429908.577626,10828
1659429908.616564,10804
1659429908.655501,10755
1659429908.694439,10721
1659429908.735938,10712
1659429908.777437,10693
1659429908.816033,10689
1659429908.854629,10683
1659429908.893225,10679
1659429908.935236,10671
1659429908.977247,10657
1659429909.021308,10662
1659429909.065369,10666
1659429909.10943,10668
1659429909.149392,10666
1659429909.189354,10677
1659429909.229316,10682
1659429909.270815,10688
1659429909.312314,10697
1659429909.351252,10703
1659429909.390189,10726
1659429909.429127,10725
1659429909.470626,10697
1659429909.512125,10641
1659429909.551745,10621
1659429909.591366,10600
1659429909.630986,10585
1659429909.669241,10580
1659429909.707495,10572
1659429909.745749,10565
1659429909.787249,10542
1659429909.828748,10528
1659429909.867343,10527
1659429909.905939,10533
1659429909.944535,10535
1659429909.986547,10543
1659429910.028558,10536
1659429910.066813,10532
1659429910.105067,10530
1659429910.143321,10528
1659429910.182258,10525
1659429910.221196,10506
1659429910.260133,10464
1659429910.301632,10404
1659429910.343132,10363
1659429910.385143,10341
1659429910.427154,10321
1659429910.46575,10315
1659429910.504346,10306
1659429910.542942,10296
1659429910.587344,10290
1659429910.631747,10281
1659429910.676149,10276
1659429910.708938,10275
1659429910.741728,10277
1659429910.78613,10276
1659429910.830533,10289
1659429910.874935,10286
1659429910.913189,10302
1659429910.951443,10307
1659429910.989698,10309
1659429911.031709,10316
1659429911.073721,10288
1659429911.112317,10246
1659429911.150913,10230
1659429911.189508,10236
1659429911.23152,10231
1659429911.273531,10244
1659429911.312127,10237
1659429911.350723,10230
1659429911.389319,10246
1659429911.428598,10242
1659429911.467877,10250
1659429911.507156,10246
1659429911.549167,10260
1659429911.591179,10270
1659429911.629433,10290
1659429911.667687,10291
1659429911.705941,10295
1659429911.746928,10313
1659429911.787915,10310
1659429911.827194,10282
1659429911.866473,10259
1659429911.905752,10251
1659429911.947251,10241
1659429911.98875,10256
1659429912.027688,10263
1659429912.066625,10265
1659429912.105562,10272
1659429912.147062,10275
1659429912.188561,10292
1659429912.227157,10290
1659429912.265753,10302
1659429912.304348,10315
1659429912.349092,10323
1659429912.393836,10329
1659429912.43858,10331
1659429912.472906,10345
1659429912.507233,10335
1659429912.551635,10309
1659429912.596037,10268
1659429912.64044,10249
1659429912.681939,10252
1659429912.723438,10254
1659429912.762717,10262
1659429912.801996,10272
1659429912.841275,10278
1659429912.879871,10273
1659429912.918467,10301
1659429912.957063,10290
1659429912.997537,10291
1659429913.038012,10298
1659429913.077291,10306
1659429913.11657,10316
1659429913.155849,10326
1659429913.196323,10335
1659429913.236797,10320
1659429913.276076,10287
1659429913.315355,10268
1659429913.354634,10261
1659429913.392889,10269
1659429913.431143,10272
1659429913.469397,10286
1659429913.510896,10298
1659429913.552395,10303
1659429913.590991,10307
1659429913.629587,10327
1659429913.668183,10340
1659429913.710707,10343
1659429913.753231,10353
1659429913.792988,10366
1659429913.832745,10383
1659429913.872502,10385
1659429913.912259,10402
1659429913.952016,10417
1659429913.993003,10402
1659429914.03399,10381
1659429914.073269,10359
1659429914.112548,10363
1659429914.151827,10363
1659429914.192301,10391
1659429914.232776,10395
1659429914.271372,10404
1659429914.309968,10421
1659429914.348563,10438
1659429914.390062,10449
1659429914.431561,10461
1659429914.470499,10480
1659429914.509436,10493
1659429914.548374,10514
1659429914.589361,10520
1659429914.630347,10535
1659429914.675433,10555
1659429914.720518,10560
1659429914.765604,10571
1659429914.804199,10560
1659429914.842795,10543
1659429914.881391,10525
1659429914.923403,10521
1659429914.965414,10533
1659429915.005035,10554
1659429915.044655,10578
1659429915.084276,10582
1659429915.125262,10602
1659429915.166249,10604
1659429915.204845,10624
1659429915.243441,10635
1659429915.282037,10651
1659429915.320974,10661
1659429915.359912,10680
1659429915.398849,10698
1659429915.440861,10707
1659429915.482872,10727
1659429915.521468,10740
1659429915.560064,10750
1659429915.59866,10752
1659429915.640671,10732
1659429915.682683,10717
1659429915.72162,10717
1659429915.760557,10728
1659429915.799495,10744
1659429915.838091,10783
1659429915.876687,10791
1659429915.915282,10807
1659429915.957294,10824
1659429915.999305,10844
1659429916.038926,10855
1659429916.078547,10879
1659429916.118167,10898
1659429916.159154,10911
1659429916.20014,10933
1659429916.244201,10941
1659429916.288262,10958
1659429916.332323,10971
1659429916.366649,10984
1659429916.400976,10975
1659429916.444695,10951
1659429916.488414,10945
1659429916.532133,10941
1659429916.56441,10960
1659429916.596688,10977
1659429916.64109,10986
1659429916.685492,10998
1659429916.729894,11006
1659429916.768832,11011
1659429916.807769,11019
1659429916.846707,11034
1659429916.888718,11047
1659429916.93073,11061
1659429916.969667,11072
1659429917.008605,11091
1659429917.047542,11105
1659429917.086138,11122
1659429917.124734,11129
1659429917.16333,11118
1659429917.204316,11085
1659429917.245303,11056
1659429917.284582,11040
1659429917.323861,11031
1659429917.36314,11039
1659429917.404639,11038
1659429917.446138,11057
1659429917.484051,11043
1659429917.521964,11038
1659429917.559876,11054
1659429917.601888,11053
1659429917.643899,11053
1659429917.682495,11057
1659429917.721091,11060
1659429917.759687,11054
1659429917.801186,11080
1659429917.842685,11070
1659429917.882306,11065
1659429917.921926,11071
1659429917.961547,11049
1659429918.006291,10994
1659429918.051035,10945
1659429918.095778,10917
1659429918.128568,10892
1659429918.161357,10900
1659429918.206443,10884
1659429918.251528,10879
1659429918.296614,10866
1659429918.339138,10854
1659429918.381661,10850
1659429918.419574,10845
1659429918.457487,10844
1659429918.495399,10837
1659429918.534678,10843
1659429918.573957,10836
1659429918.613236,10837
1659429918.654223,10839
1659429918.69521,10837
1659429918.734147,10841
1659429918.773085,10808
1659429918.812022,10741
1659429918.853521,10682
1659429918.89502,10652
1659429918.934299,10638
1659429918.973578,10631
1659429919.012857,10630
1659429919.054613,10622
1659429919.096368,10620
1659429919.138123,10597
1659429919.179878,10592
1659429919.221378,10590
1659429919.262877,10586
1659429919.301814,10581
1659429919.340752,10570
1659429919.379689,10570
1659429919.417943,10568
1659429919.456198,10575
1659429919.494452,10571
1659429919.536976,10565
1659429919.579499,10556
1659429919.617754,10500
1659429919.656008,10453
1659429919.694263,10428
1659429919.735249,10422
1659429919.776236,10414
1659429919.814832,10423
1659429919.853428,10422
1659429919.892024,10419
1659429919.931303,10426
1659429919.970582,10419
1659429920.009861,10432
1659429920.050335,10436
1659429920.090809,10433
1659429920.129747,10439
1659429920.168684,10460
1659429920.207622,10476
1659429920.249121,10485
1659429920.29062,10505
1659429920.329899,10510
1659429920.369178,10495
1659429920.408457,10447
1659429920.449444,10417
1659429920.49043,10414
1659429920.535174,10415
1659429920.579918,10424
1659429920.624662,10429
1659429920.662916,10431
1659429920.701171,10419
1659429920.739425,10427
1659429920.780412,10427
1659429920.821398,10432
1659429920.860677,10433
1659429920.899956,10429
1659429920.939235,10424
1659429920.980735,10435
1659429921.022234,10435
1659429921.060488,10430
1659429921.098742,10434
1659429921.136997,10378
1659429921.176617,10343
1659429921.216238,10319
1659429921.255858,10310
1659429921.29787,10309
1659429921.339881,10321
1659429921.378477,10324
1659429921.417073,10323
1659429921.455669,10327
1659429921.497168,10326
1659429921.538667,10342
1659429921.577946,10342
1659429921.617225,10355
1659429921.656504,10356
1659429921.694417,10364
1659429921.732329,10373
1659429921.770242,10384
1659429921.813278,10357
1659429921.856314,10304
1659429921.897814,10286
1659429921.939313,10279
1659429921.977225,10276
1659429922.015138,10283
1659429922.053051,10305
1659429922.097453,10296
1659429922.141855,10302
1659429922.186258,10310
1659429922.220584,10315
1659429922.254911,10337
1659429922.298971,10334
1659429922.343032,10352
1659429922.387093,10345
1659429922.420395,10336
1659429922.453696,10348
1659429922.498441,10340
1659429922.543184,10306
1659429922.587928,10282
1659429922.626183,10274
1659429922.664437,10283
1659429922.702691,10300
1659429922.744703,10297
1659429922.786714,10315
1659429922.825993,10318
1659429922.865272,10327
1659429922.904551,10338
1659429922.945025,10348
1659429922.9855,10369
1659429923.024096,10367
1659429923.062692,10400
1659429923.101287,10401
1659429923.139883,10406
1659429923.178479,10408
1659429923.217075,10375
1659429923.259087,10356
1659429923.301098,10355
1659429923.339352,10373
1659429923.377607,10387
1659429923.415861,10414
1659429923.457872,10429
1659429923.499884,10444
1659429923.53848,10469
1659429923.577075,10490
1659429923.615671,10500
1659429923.657683,10514
1659429923.699694,10532
1659429923.738973,10546
1659429923.778252,10570
1659429923.817531,10573
1659429923.85903,10560
1659429923.900529,10546
1659429923.938784,10539
1659429923.977038,10554
1659429924.015292,10565
1659429924.060036,10586
1659429924.10478,10602
1659429924.149524,10614
1659429924.191535,10633
1659429924.233547,10654
1659429924.270947,10674
1659429924.308348,10690
1659429924.345748,10712
1659429924.383149,10730
1659429924.421744,10745
1659429924.46034,10770
1659429924.498936,10778
1659429924.540948,10767
1659429924.582959,10774
1659429924.621555,10755
1659429924.660151,10767
1659429924.698747,10778
1659429924.741271,10793
1659429924.783794,10820
1659429924.828197,10842
1659429924.872599,10857
1659429924.917001,10877
1659429924.950303,10901
1659429924.983605,10918
1659429925.028007,10954
1659429925.072409,10969
1659429925.116812,10996
1659429925.151138,11016
1659429925.185465,11033
1659429925.229184,11049
1659429925.272903,11050
1659429925.316622,11034
1659429925.35556,11012
1659429925.394497,11007
1659429925.433434,10988
1659429925.474421,10986
1659429925.515408,11001
1659429925.554345,11000
1659429925.593283,11006
1659429925.63222,11008
1659429925.674232,11012
1659429925.716243,11007
1659429925.755522,11025
1659429925.794801,11038
1659429925.83408,11040
1659429925.872676,11050
1659429925.911272,11059
1659429925.949868,11072
1659429925.991367,11078
1659429926.032866,11078
1659429926.071803,11063
1659429926.110741,11038
1659429926.149678,11040
1659429926.191177,11051
1659429926.232677,11054
1659429926.270589,11069
1659429926.308502,11087
1659429926.346415,11099
1659429926.388426,11103
1659429926.430438,11114
1659429926.468692,11126
1659429926.506946,11136
1659429926.545201,11148
1659429926.589261,11166
1659429926.633322,11169
1659429926.677383,11186
1659429926.711709,11199
1659429926.746036,11211
1659429926.790438,11210
1659429926.83484,11210
1659429926.879243,11197
1659429926.91152,11190
1659429926.943797,11191
1659429926.989224,11189
1659429927.034651,11204
1659429927.080078,11210
1659429927.119015,11230
1659429927.157953,11231
1659429927.19689,11234
1659429927.237877,11251
1659429927.278864,11260
1659429927.318143,11274
1659429927.357422,11284
1659429927.396701,11300
1659429927.434955,11305
1659429927.473209,11330
1659429927.511464,11334
1659429927.552963,11342
1659429927.594462,11355
1659429927.633741,11348
1659429927.67302,11337
1659429927.712299,11316
1659429927.753285,11306
1659429927.794272,11299
1659429927.83321,11304
1659429927.872147,11307
1659429927.911085,11315
1659429927.955828,11314
1659429928.000572,11323
1659429928.045316,11311
1659429928.07913,11320
1659429928.112944,11326
1659429928.157005,11328
1659429928.201066,11338
1659429928.245127,11333
1659429928.284747,11334
1659429928.324368,11340
1659429928.363988,11331
1659429928.402243,11344
1659429928.440497,11340
1659429928.478751,11352
1659429928.519738,11347
1659429928.560725,11310
1659429928.599662,11269
1659429928.6386,11243
1659429928.677537,11235
1659429928.716475,11222
1659429928.755412,11221
1659429928.794349,11209
1659429928.835336,11191
1659429928.876323,11169
1659429928.915602,11168
1659429928.954881,11161
1659429928.99416,11166
1659429929.035147,11157
1659429929.076133,11148
1659429929.120194,11150
1659429929.164255,11143
1659429929.208316,11137
1659429929.24213,11132
1659429929.275944,11132
1659429929.320688,11129
1659429929.365432,11105
1659429929.410176,11052
1659429929.44843,11002
1659429929.486684,10984
1659429929.524939,10959
1659429929.565925,10958
1659429929.606912,10945
1659429929.646191,10929
1659429929.68547,10918
1659429929.724749,10912
1659429929.763003,10906
1659429929.801258,10913
1659429929.839512,10909
1659429929.880499,10916
1659429929.921485,10914
1659429929.960081,10899
1659429929.998677,10901
1659429930.037273,10904
1659429930.079284,10910
1659429930.121296,10907
1659429930.160233,10900
1659429930.199171,10881
1659429930.238108,10838
1659429930.277387,10834
1659429930.316666,10815
1659429930.355945,10815
1659429930.397444,10825
1659429930.438943,10821
1659429930.477539,10810
1659429930.516135,10805
1659429930.554731,10799
1659429930.597255,10794
1659429930.639779,10794
1659429930.683839,10802
1659429930.7279,10799
1659429930.771961,10783
1659429930.80475,10772
1659429930.83754,10758
1659429930.881942,10761
1659429930.926344,10752
1659429930.970747,10705
1659429931.005073,10650
1659429931.0394,10612
1659429931.083119,10597
1659429931.126838,10595
1659429931.170557,10586
1659429931.209836,10576
1659429931.249115,10564
1659429931.288394,10554
1659429931.329893,10550
1659429931.371392,10550
1659429931.41033,10541
1659429931.449267,10546
1659429931.488205,10545
1659429931.530216,10542
1659429931.572227,10556
1659429931.611506,10547
1659429931.650785,10552
1659429931.690064,10548
1659429931.727977,10501
1659429931.76589,10449
1659429931.803803,10413
1659429931.845302,10400
1659429931.886801,10399
1659429931.925738,10403
1659429931.964676,10394
1659429932.003613,10394
1659429932.045112,10393
1659429932.086612,10401
1659429932.125207,10400
1659429932.163803,10408
1659429932.202399,10390
1659429932.244411,10392
1659429932.286422,10388
1659429932.324676,10374
1659429932.362931,10382
1659429932.401185,10360
1659429932.443709,10321
1659429932.486233,10282
1659429932.524828,10268
1659429932.563424,10257
1659429932.60202,10252
1659429932.646422,10262
1659429932.690825,10265
1659429932.735227,10268
1659429932.776214,10265
1659429932.817201,10262
1659429932.85648,10264
1659429932.895759,10272
1659429932.935038,10274
1659429932.976537,10287
1659429933.018036,10294
1659429933.05629,10296
1659429933.094544,10293
1659429933.132799,10253
1659429933.171736,10208
1659429933.210674,10190
1659429933.249611,10191
1659429933.290598,10198
1659429933.331584,10223
1659429933.370863,10224
1659429933.410142,10225
1659429933.449421,10228
1659429933.4887,10237
1659429933.527979,10252
1659429933.567258,10256
1659429933.608245,10272
1659429933.649232,10286
1659429933.688169,10291
1659429933.727107,10286
1659429933.766044,10256
1659429933.808568,10235
1659429933.851092,10236
1659429933.890029,10233
1659429933.928967,10249
1659429933.967904,10258
1659429934.008891,10273
1659429934.049878,10279
1659429934.088815,10286
1659429934.127753,10301
1659429934.16669,10307
1659429934.208701,10319
1659429934.250713,10341
1659429934.295115,10348
1659429934.339517,10361
1659429934.38392,10380
1659429934.416709,10362
1659429934.449499,10342
1659429934.494584,10332
1659429934.53967,10327
1659429934.584755,10339
1659429934.623351,10370
1659429934.661947,10398
1659429934.700542,10416
1659429934.743066,10433
1659429934.78559,10447
1659429934.82299,10460
1659429934.860391,10485
1659429934.897791,10506
1659429934.935192,10537
1659429934.976691,10571
1659429935.01819,10599
1659429935.056786,10615
1659429935.095382,10633
1659429935.133978,10609
1659429935.174964,10604
1659429935.215951,10608
1659429935.254547,10623
1659429935.293143,10665
1659429935.331739,10681
1659429935.37375,10705
1659429935.415762,10717
1659429935.454357,10741
1659429935.492953,10754
1659429935.531549,10788
1659429935.57561,10806
1659429935.619671,10814
1659429935.663732,10844
1659429935.705231,10857
1659429935.74673,10867
1659429935.785667,10858
1659429935.824605,10829
1659429935.863542,10811
1659429935.905554,10823
1659429935.947565,10842
1659429935.986502,10863
1659429936.02544,10890
1659429936.064377,10902
1659429936.103315,10918
1659429936.142252,10932
1659429936.18119,10949
1659429936.222176,10966
1659429936.263163,10985
1659429936.301759,11003
1659429936.340355,11012
1659429936.378951,11044
1659429936.42045,11049
1659429936.461949,11025
1659429936.500203,10975
1659429936.538457,10948
1659429936.576712,10954
1659429936.614625,10963
1659429936.652537,10972
1659429936.69045,10990
1659429936.733486,11001
1659429936.776522,11002
1659429936.81546,11023
1659429936.854397,11022
1659429936.893335,11036
1659429936.934321,11054
1659429936.975308,11064
1659429937.014929,11072
1659429937.054549,11093
1659429937.09417,11096
1659429937.136181,11065
1659429937.178193,11009
1659429937.222936,10975
1659429937.26768,10964
1659429937.312424,10951
1659429937.345214,10959
1659429937.378003,10963
1659429937.422747,10970
1659429937.467491,10966
1659429937.512235,10982
1659429937.550148,10982
1659429937.58806,10986
1659429937.625973,11002
1659429937.668497,10999
1659429937.71102,11002
1659429937.749958,11012
1659429937.788895,11024
1659429937.827833,11032
1659429937.866087,11009
1659429937.904341,10949
1659429937.942596,10894
1659429937.984607,10879
1659429938.026619,10860
1659429938.065556,10864
1659429938.104494,10872
1659429938.143431,10860
1659429938.18493,10856
1659429938.226429,10858
1659429938.265367,10859
1659429938.304304,10864
1659429938.343241,10878
1659429938.382179,10877
1659429938.421116,10894
1659429938.460054,10897
1659429938.500528,10910
1659429938.541003,10945
1659429938.583014,10945
1659429938.625026,10914
1659429938.663963,10851
1659429938.7029,10823
1659429938.741838,10813
1659429938.785557,10822
1659429938.829276,10822
1659429938.872995,10829
1659429938.906297,10838
1659429938.939599,10826
1659429938.984343,10828
1659429939.029087,10827
1659429939.073831,10835
1659429939.107645,10857
1659429939.141459,10902
1659429939.185519,10905
1659429939.22958,10890
1659429939.273641,10880
1659429939.31292,10884
1659429939.352199,10901
1659429939.391478,10875
1659429939.431952,10825
1659429939.472427,10796
1659429939.510681,10797
1659429939.548935,10814
1659429939.58719,10818
1659429939.629714,10809
1659429939.672237,10784
1659429939.710833,10777
1659429939.749429,10780
1659429939.788025,10760
1659429939.826621,10765
1659429939.865217,10774
1659429939.903813,10783
1659429939.945312,10797
1659429939.986811,10811
1659429940.026431,10829
1659429940.066052,10830
1659429940.105672,10770
1659429940.150075,10754
1659429940.194477,10784
1659429940.238879,10792
1659429940.272181,10795
1659429940.305483,10794
1659429940.350227,10780
1659429940.394971,10757
1659429940.439715,10765
1659429940.478652,10754
1659429940.517589,10747
1659429940.556527,10736
1659429940.599051,10704
1659429940.641574,10692
1659429940.680512,10702
1659429940.719449,10703
1659429940.758387,10660
1659429940.798861,10606
1659429940.839335,10606
1659429940.877931,10640
1659429940.916527,10676
1659429940.955123,10653
1659429940.994402,10629
1659429941.033681,10651
1659429941.07296,10680
1659429941.114459,10725
1659429941.155958,10765
1659429941.194554,10805
1659429941.23315,10832
1659429941.271746,10870
1659429941.31427,10883
1659429941.356793,10862
1659429941.395389,10797
1659429941.433985,10743
1659429941.472581,10723
1659429941.51408,10737
1659429941.555579,10813
1659429941.5952,10864
1659429941.63482,10879
1659429941.674441,10891
1659429941.714915,10930
1659429941.75539,10959
1659429941.793644,10981
1659429941.831898,11000
1659429941.870153,11013
1659429941.914555,11011
1659429941.958957,10962
1659429942.00336,10922
1659429942.036661,10901
1659429942.069963,10921
1659429942.113683,10933
1659429942.157402,10957
1659429942.201121,10996
1659429942.243132,11049
1659429942.285144,11142
1659429942.324081,11246
1659429942.363019,11345
1659429942.401956,11412
