LocalTimestamp,PG
1659515729.382506,10295
1659515729.421123,10577
1659515729.459739,10799
1659515729.501261,10955
1659515729.542783,11115
1659515729.582083,11524
1659515729.621383,12004
1659515729.660683,12330
1659515729.702717,12551
1659515729.744751,12700
1659515729.783368,12720
1659515729.821985,12736
1659515729.860601,12738
1659515729.902636,12687
1659515729.94467,12616
1659515729.983628,12638
1659515730.022587,12706
1659515730.061545,12752
1659515730.103579,12821
1659515730.145613,12909
1659515730.184572,13015
1659515730.22353,13067
1659515730.262489,13079
1659515730.306573,13133
1659515730.350658,13172
1659515730.394742,13311
1659515730.426524,13395
1659515730.458306,13435
1659515730.503074,13462
1659515730.547842,13494
1659515730.59261,13512
1659515730.626443,13502
1659515730.660275,13487
1659515730.705043,13475
1659515730.749811,13450
1659515730.794579,13423
1659515730.833879,13383
1659515730.87318,13368
1659515730.91248,13349
1659515730.954514,13338
1659515730.996548,13330
1659515731.034823,13327
1659515731.073098,13381
1659515731.111373,13411
1659515731.15392,13445
1659515731.196466,13485
1659515731.235425,13521
1659515731.274383,13550
1659515731.313342,13566
1659515731.351275,13589
1659515731.389208,13637
1659515731.427141,13682
1659515731.468663,13671
1659515731.510185,13725
1659515731.548801,13788
1659515731.587418,13789
1659515731.626035,13795
1659515731.670119,13776
1659515731.714204,13811
1659515731.758288,13865
1659515731.792121,13972
1659515731.825953,14038
1659515731.870379,14056
1659515731.914806,14054
1659515731.959232,14034
1659515731.997507,13964
1659515732.035782,13922
1659515732.074057,13900
1659515732.116091,13896
1659515732.158125,13898
1659515732.197425,13955
1659515732.236726,13986
1659515732.276026,14061
1659515732.316522,14144
1659515732.357018,14305
1659515732.395977,14378
1659515732.434935,14415
1659515732.473894,14488
1659515732.51251,14611
1659515732.551127,14689
1659515732.589744,14724
1659515732.631265,14768
1659515732.672787,14776
1659515732.711404,14798
1659515732.75002,14790
1659515732.788637,14788
1659515732.830671,14793
1659515732.872705,14787
1659515732.911322,14769
1659515732.949939,14756
1659515732.988555,14724
1659515733.030077,14699
1659515733.071598,14692
1659515733.110898,14675
1659515733.150199,14672
1659515733.189499,14665
1659515733.23102,14625
1659515733.272542,14596
1659515733.311159,14570
1659515733.349775,14535
1659515733.388392,14490
1659515733.43316,14466
1659515733.477928,14456
1659515733.522696,14473
1659515733.556529,14474
1659515733.590361,14498
1659515733.634104,14511
1659515733.677847,14530
1659515733.721589,14558
1659515733.760548,14563
1659515733.799506,14572
1659515733.838465,14569
1659515733.879474,14556
1659515733.920483,14561
1659515733.959441,14544
1659515733.998399,14538
1659515734.037358,14545
1659515734.079905,14544
1659515734.122451,14544
1659515734.16141,14543
1659515734.200368,14539
1659515734.239327,14558
1659515734.277943,14552
1659515734.31656,14539
1659515734.355177,14497
1659515734.396698,14460
1659515734.43822,14442
1659515734.477178,14432
1659515734.516137,14439
1659515734.555095,14450
1659515734.596617,14463
1659515734.638138,14462
1659515734.676413,14459
1659515734.714688,14465
1659515734.752963,14482
1659515734.794485,14479
1659515734.836006,14488
1659515734.874281,14492
1659515734.912556,14505
1659515734.950831,14515
1659515734.992353,14505
1659515735.033874,14506
1659515735.073516,14516
1659515735.113158,14529
1659515735.1528,14537
1659515735.196885,14538
1659515735.240969,14531
1659515735.285054,14492
1659515735.326575,14455
1659515735.368097,14443
1659515735.407055,14447
1659515735.446014,14470
1659515735.484972,14475
1659515735.527006,14476
1659515735.56904,14480
1659515735.606974,14481
1659515735.644907,14478
1659515735.68284,14490
1659515735.72214,14497
1659515735.761441,14512
1659515735.800741,14512
1659515735.841237,14515
1659515735.881733,14519
1659515735.92035,14532
1659515735.958966,14539
1659515735.997583,14537
1659515736.036542,14545
1659515736.0755,14547
1659515736.114459,14549
1659515736.15598,14528
1659515736.197502,14494
1659515736.23646,14469
1659515736.275419,14469
1659515736.314377,14478
1659515736.356924,14499
1659515736.399471,14503
1659515736.438429,14514
1659515736.477387,14528
1659515736.516346,14530
1659515736.557868,14522
1659515736.599389,14536
1659515736.644157,14540
1659515736.688925,14541
1659515736.733693,14545
1659515736.77231,14560
1659515736.810926,14560
1659515736.849543,14558
1659515736.88816,14565
1659515736.926777,14567
1659515736.965393,14569
1659515737.004352,14578
1659515737.04331,14562
1659515737.082269,14522
1659515737.12379,14470
1659515737.165312,14457
1659515737.203587,14449
1659515737.241862,14460
1659515737.280137,14474
1659515737.322171,14478
1659515737.364205,14494
1659515737.402822,14506
1659515737.441438,14528
1659515737.480055,14528
1659515737.522089,14537
1659515737.564123,14553
1659515737.603082,14549
1659515737.64204,14551
1659515737.680999,14550
1659515737.72252,14562
1659515737.764042,14551
1659515737.802317,14570
1659515737.840592,14572
1659515737.878867,14576
1659515737.923293,14589
1659515737.967719,14544
1659515738.012146,14499
1659515738.04931,14484
1659515738.086474,14476
1659515738.123638,14478
1659515738.160803,14479
1659515738.202837,14497
1659515738.244871,14510
1659515738.283146,14522
1659515738.321421,14537
1659515738.359696,14547
1659515738.40173,14559
1659515738.443764,14556
1659515738.482381,14568
1659515738.520998,14577
1659515738.559614,14578
1659515738.604382,14581
1659515738.64915,14603
1659515738.693918,14616
1659515738.732535,14616
1659515738.771152,14634
1659515738.809769,14625
1659515738.85129,14629
1659515738.892812,14600
1659515738.93177,14528
1659515738.970729,14477
1659515739.009687,14476
1659515739.050696,14491
1659515739.091705,14498
1659515739.130322,14526
1659515739.168938,14541
1659515739.207555,14553
1659515739.247197,14566
1659515739.286839,14557
1659515739.326481,14572
1659515739.368002,14576
1659515739.409524,14587
1659515739.44814,14593
1659515739.486757,14602
1659515739.525374,14616
1659515739.566895,14616
1659515739.608417,14637
1659515739.648401,14630
1659515739.688384,14656
1659515739.728368,14648
1659515739.769377,14653
1659515739.810386,14648
1659515739.849344,14588
1659515739.888303,14527
1659515739.927261,14501
1659515739.969295,14493
1659515740.011329,14505
1659515740.050288,14532
1659515740.089246,14557
1659515740.128205,14565
1659515740.172289,14575
1659515740.216374,14581
1659515740.260458,14579
1659515740.293778,14590
1659515740.327098,14591
1659515740.371182,14602
1659515740.415267,14618
1659515740.459352,14624
1659515740.497627,14627
1659515740.535902,14636
1659515740.574177,14649
1659515740.617236,14648
1659515740.660295,14675
1659515740.698912,14666
1659515740.737529,14678
1659515740.776145,14673
1659515740.817154,14632
1659515740.858163,14570
1659515740.897805,14540
1659515740.937447,14542
1659515740.977089,14541
1659515741.015364,14576
1659515741.053639,14600
1659515741.091914,14604
1659515741.133948,14615
1659515741.175982,14625
1659515741.214599,14630
1659515741.253216,14644
1659515741.291832,14656
1659515741.332841,14658
1659515741.37385,14673
1659515741.412125,14678
1659515741.4504,14682
1659515741.488675,14705
1659515741.531222,14697
1659515741.573768,14714
1659515741.612043,14714
1659515741.650318,14721
1659515741.688593,14729
1659515741.732678,14713
1659515741.776762,14644
1659515741.820847,14603
1659515741.854679,14602
1659515741.888512,14608
1659515741.932938,14614
1659515741.977364,14633
1659515742.021791,14631
1659515742.059468,14639
1659515742.097145,14635
1659515742.134821,14642
1659515742.172498,14658
1659515742.215045,14670
1659515742.257592,14694
1659515742.296209,14709
1659515742.334825,14728
1659515742.373442,14743
1659515742.417526,14756
1659515742.461611,14758
1659515742.505696,14760
1659515742.538503,14772
1659515742.57131,14771
1659515742.615395,14779
1659515742.659479,14773
1659515742.703564,14741
1659515742.74611,14716
1659515742.788657,14732
1659515742.827957,14739
1659515742.867258,14745
1659515742.906558,14762
1659515742.945516,14757
1659515742.984475,14748
1659515743.023433,14746
1659515743.064442,14738
1659515743.105451,14753
1659515743.144751,14740
1659515743.184051,14760
1659515743.223351,14766
1659515743.265386,14798
1659515743.30742,14795
1659515743.346036,14792
1659515743.384653,14805
1659515743.42327,14802
1659515743.461887,14812
1659515743.500503,14814
1659515743.53912,14783
1659515743.580129,14724
1659515743.621138,14690
1659515743.659413,14679
1659515743.697688,14692
1659515743.735963,14728
1659515743.777997,14731
1659515743.820031,14735
1659515743.858989,14741
1659515743.897948,14748
1659515743.936906,14740
1659515743.977915,14759
1659515744.018924,14775
1659515744.057541,14779
1659515744.096158,14780
1659515744.134774,14795
1659515744.179542,14789
1659515744.22431,14804
1659515744.269078,14803
1659515744.3106,14811
1659515744.352121,14826
1659515744.39108,14830
1659515744.430038,14823
1659515744.468997,14759
1659515744.510006,14674
1659515744.551015,14668
1659515744.589631,14676
1659515744.628248,14693
1659515744.666865,14713
1659515744.705482,14733
1659515744.744098,14732
1659515744.782715,14748
1659515744.824749,14752
1659515744.866783,14757
1659515744.905058,14770
1659515744.943333,14784
1659515744.981608,14803
1659515745.020566,14808
1659515745.059525,14811
1659515745.098483,14813
1659515745.14103,14818
1659515745.183577,14827
1659515745.221852,14833
1659515745.260127,14845
1659515745.298402,14857
1659515745.339411,14852
1659515745.380419,14818
1659515745.420062,14727
1659515745.459703,14695
1659515745.499345,14690
1659515745.541379,14704
1659515745.583414,14729
1659515745.62203,14741
1659515745.660647,14761
1659515745.699264,14765
1659515745.740785,14779
1659515745.782307,14781
1659515745.826733,14793
1659515745.871159,14805
1659515745.915586,14812
1659515745.953519,14820
1659515745.991452,14839
1659515746.029385,14842
1659515746.072445,14843
1659515746.115504,14863
1659515746.154463,14847
1659515746.193421,14849
1659515746.232379,14861
1659515746.273388,14869
1659515746.314397,14882
1659515746.353698,14844
1659515746.392998,14773
1659515746.432298,14732
1659515746.471256,14738
1659515746.510215,14759
1659515746.549173,14769
1659515746.590695,14792
1659515746.632216,14800
1659515746.671175,14805
1659515746.710133,14820
1659515746.749092,14827
1659515746.790101,14838
1659515746.831109,14843
1659515746.869384,14836
1659515746.907659,14847
1659515746.945934,14852
1659515746.984551,14860
1659515747.023168,14864
1659515747.061785,14890
1659515747.104331,14897
1659515747.146878,14890
1659515747.187374,14897
1659515747.22787,14898
1659515747.266829,14858
1659515747.305787,14771
1659515747.344746,14744
1659515747.389514,14735
1659515747.434282,14770
1659515747.47905,14792
1659515747.51237,14796
1659515747.545689,14821
1659515747.589774,14820
1659515747.633859,14839
1659515747.677943,14841
1659515747.716902,14837
1659515747.75586,14841
1659515747.794819,14855
1659515747.835315,14870
1659515747.875811,14871
1659515747.914428,14891
1659515747.953044,14880
1659515747.991661,14882
1659515748.034208,14893
1659515748.076755,14895
1659515748.115371,14906
1659515748.153988,14918
1659515748.192605,14904
1659515748.23088,14825
1659515748.269155,14735
1659515748.30743,14726
1659515748.349464,14726
1659515748.391498,14745
1659515748.43114,14747
1659515748.470782,14763
1659515748.510424,14777
1659515748.551433,14780
1659515748.592442,14818
1659515748.631742,14822
1659515748.671042,14838
1659515748.710342,14859
1659515748.752376,14850
1659515748.79441,14853
1659515748.833369,14863
1659515748.872327,14879
1659515748.911286,14883
1659515748.955712,14904
1659515749.000139,14900
1659515749.044565,14903
1659515749.083181,14911
1659515749.121798,14915
1659515749.160415,14882
1659515749.201424,14800
1659515749.242433,14746
1659515749.281049,14729
1659515749.319666,14740
1659515749.358283,14777
1659515749.397583,14809
1659515749.436883,14825
1659515749.476183,14821
1659515749.517705,14816
1659515749.559227,14817
1659515749.598527,14839
1659515749.637827,14860
1659515749.677127,14877
1659515749.719161,14880
1659515749.761195,14877
1659515749.79947,14879
1659515749.837745,14899
1659515749.87602,14895
1659515749.914979,14918
1659515749.953937,14921
1659515749.992896,14920
1659515750.035442,14938
1659515750.077989,14930
1659515750.115922,14897
1659515750.153856,14817
1659515750.191789,14807
1659515750.23331,14834
1659515750.274832,14865
1659515750.319258,14877
1659515750.363684,14887
1659515750.408111,14902
1659515750.440918,14905
1659515750.473725,14912
1659515750.517468,14920
1659515750.561211,14931
1659515750.604953,14937
1659515750.638786,14952
1659515750.672618,14962
1659515750.717044,14967
1659515750.761471,14973
1659515750.805897,14974
1659515750.844856,14986
1659515750.883814,14998
1659515750.922772,14985
1659515750.965319,14979
1659515751.007866,14955
1659515751.046141,14889
1659515751.084416,14869
1659515751.122691,14887
1659515751.163187,14920
1659515751.203683,14929
1659515751.242984,14929
1659515751.282284,14934
1659515751.321584,14923
1659515751.360542,14929
1659515751.399501,14932
1659515751.438459,14954
1659515751.479981,14946
1659515751.521502,14956
1659515751.560461,14964
1659515751.599419,14983
1659515751.638378,14984
1659515751.677336,14984
1659515751.716295,14998
1659515751.755253,14993
1659515751.796775,15004
1659515751.838296,14989
1659515751.88033,14898
1659515751.922364,14823
1659515751.961323,14807
1659515752.000281,14813
1659515752.03924,14820
1659515752.080761,14839
1659515752.122283,14863
1659515752.161583,14875
1659515752.200883,14888
1659515752.240183,14894
1659515752.284951,14909
1659515752.329719,14914
1659515752.374487,14927
1659515752.406782,14938
1659515752.439076,14939
1659515752.480854,14939
1659515752.522632,14954
1659515752.56441,14960
1659515752.606188,14964
1659515752.644804,14969
1659515752.683421,14978
1659515752.722038,14963
1659515752.763559,14879
1659515752.805081,14780
1659515752.844039,14755
1659515752.882998,14758
1659515752.921956,14780
1659515752.964503,14809
1659515753.00705,14836
1659515753.045666,14857
1659515753.084283,14861
1659515753.1229,14873
1659515753.167668,14869
1659515753.212436,14875
1659515753.257204,14899
1659515753.2977,14916
1659515753.338197,14919
1659515753.376472,14924
1659515753.414747,14931
1659515753.453022,14946
1659515753.495056,14947
1659515753.53709,14954
1659515753.575365,14960
1659515753.61364,14957
1659515753.651915,14860
1659515753.690531,14761
1659515753.729148,14742
1659515753.767765,14730
1659515753.808774,14747
1659515753.849782,14767
1659515753.889425,14794
1659515753.929066,14818
1659515753.968708,14826
1659515754.007325,14830
1659515754.045942,14836
1659515754.084558,14843
1659515754.125567,14862
1659515754.166576,14879
1659515754.206218,14900
1659515754.24586,14907
1659515754.285502,14914
1659515754.327024,14919
1659515754.368545,14917
1659515754.407162,14925
1659515754.445779,14943
1659515754.484395,14950
1659515754.526429,14911
1659515754.568464,14801
1659515754.606739,14731
1659515754.645014,14729
1659515754.683288,14706
1659515754.72481,14727
1659515754.766331,14773
1659515754.8111,14811
1659515754.855868,14816
1659515754.900636,14817
1659515754.939252,14842
1659515754.977869,14853
1659515755.016486,14864
1659515755.058007,14872
1659515755.099529,14882
1659515755.138829,14891
1659515755.178129,14906
1659515755.217429,14918
1659515755.259464,14940
1659515755.301498,14939
1659515755.339772,14953
1659515755.378047,14958
1659515755.416322,14962
1659515755.455965,14976
1659515755.495606,14953
1659515755.535248,14816
1659515755.576257,14721
1659515755.617266,14724
1659515755.655541,14723
1659515755.693816,14750
1659515755.732091,14775
1659515755.771049,14782
1659515755.810008,14789
1659515755.848966,14795
1659515755.891001,14804
1659515755.933035,14815
1659515755.97131,14852
1659515756.009585,14858
1659515756.04786,14871
1659515756.089894,14898
1659515756.131928,14900
1659515756.170545,14912
1659515756.209161,14925
1659515756.247778,14937
1659515756.289812,14942
1659515756.331846,14957
1659515756.376272,14905
1659515756.420699,14764
1659515756.465125,14693
1659515756.498445,14671
1659515756.531765,14671
1659515756.575507,14679
1659515756.61925,14713
1659515756.662993,14751
1659515756.70161,14775
1659515756.740227,14785
1659515756.778843,14798
1659515756.820877,14822
1659515756.862911,14850
1659515756.900845,14845
1659515756.938778,14879
1659515756.976711,14886
1659515757.015328,14902
1659515757.053945,14920
1659515757.092561,14926
1659515757.134083,14935
1659515757.175604,14948
1659515757.214563,14959
1659515757.253521,14964
1659515757.29248,14957
1659515757.334001,14867
1659515757.375523,14763
1659515757.414481,14757
1659515757.45344,14782
1659515757.492398,14821
1659515757.531698,14851
1659515757.570998,14867
1659515757.610299,14883
1659515757.65182,14895
1659515757.693342,14924
1659515757.734863,14926
1659515757.776385,14943
1659515757.817906,14960
1659515757.859428,14982
1659515757.901462,14990
1659515757.943496,14992
1659515757.982113,15001
1659515758.020729,15002
1659515758.059346,15013
1659515758.098646,15012
1659515758.137947,15011
1659515758.177247,15006
1659515758.217743,14977
1659515758.258239,14854
1659515758.297198,14797
1659515758.336156,14816
1659515758.375115,14833
1659515758.417661,14867
1659515758.460208,14892
1659515758.499166,14906
1659515758.538125,14913
1659515758.577083,14920
1659515758.618605,14928
1659515758.660126,14932
1659515758.699427,14947
1659515758.738727,14964
1659515758.778027,14983
1659515758.820574,14988
1659515758.863121,14991
1659515758.901054,14993
1659515758.938987,15016
1659515758.97692,15013
1659515759.021688,15017
1659515759.066456,15029
1659515759.111224,15027
1659515759.144032,14986
1659515759.176839,14849
1659515759.220582,14763
1659515759.264324,14763
1659515759.308067,14781
1659515759.350101,14799
1659515759.392135,14852
1659515759.431436,14874
1659515759.470736,14889
1659515759.510036,14892
1659515759.548311,14895
1659515759.586586,14896
1659515759.624861,14900
1659515759.666382,14909
1659515759.707904,14918
1659515759.747546,14944
1659515759.787188,14950
1659515759.82683,14958
1659515759.865105,14963
1659515759.90338,14986
1659515759.941655,14999
1659515759.983176,15016
1659515760.024698,15025
1659515760.063314,15023
1659515760.101931,14978
1659515760.140548,14855
1659515760.182069,14796
1659515760.223591,14804
1659515760.262549,14806
1659515760.301508,14827
1659515760.340466,14851
1659515760.381475,14887
1659515760.422484,14900
1659515760.460759,14916
1659515760.499034,14932
1659515760.537309,14946
1659515760.579856,14955
1659515760.622402,14975
1659515760.661703,14988
1659515760.701003,14995
1659515760.740303,14998
1659515760.784388,15010
1659515760.828472,15030
1659515760.872557,15033
1659515760.914078,15038
1659515760.9556,15048
1659515760.9949,15059
1659515761.0342,15062
1659515761.0735,15044
1659515761.115534,14959
1659515761.157568,14902
1659515761.196185,14935
1659515761.234802,14964
1659515761.273419,14985
1659515761.312377,14995
1659515761.351336,15013
1659515761.390294,15018
1659515761.431303,15045
1659515761.472312,15031
1659515761.510928,15026
1659515761.549545,15036
1659515761.588162,15039
1659515761.630709,15052
1659515761.673255,15055
1659515761.712214,15065
1659515761.751172,15067
1659515761.790131,15069
1659515761.829089,15073
1659515761.868048,15082
1659515761.907006,15083
1659515761.94904,15058
1659515761.991074,14968
1659515762.030033,14869
1659515762.068991,14874
1659515762.10795,14878
1659515762.149471,14897
1659515762.190993,14918
1659515762.229609,14938
1659515762.268226,14942
1659515762.306843,14935
1659515762.347852,14959
1659515762.388861,14967
1659515762.432945,14971
1659515762.47703,14996
1659515762.521114,14998
1659515762.554947,15007
1659515762.588779,15023
1659515762.632522,15042
1659515762.676265,15046
1659515762.720008,15054
1659515762.758624,15072
1659515762.797241,15074
1659515762.835858,15076
1659515762.877379,15077
1659515762.918901,15036
1659515762.957859,14895
1659515762.996818,14816
1659515763.035776,14812
1659515763.075076,14822
1659515763.114377,14843
1659515763.153677,14887
1659515763.192635,14919
1659515763.231594,14944
1659515763.270552,14958
1659515763.314978,14962
1659515763.359405,14956
1659515763.403831,14970
1659515763.436126,14986
1659515763.46842,14995
1659515763.512505,15010
1659515763.556589,15013
1659515763.600674,15019
1659515763.639632,15019
1659515763.678591,15042
1659515763.717549,15040
1659515763.755482,15056
1659515763.793416,15073
1659515763.831349,15060
1659515763.873383,14972
1659515763.915417,14852
1659515763.955059,14831
1659515763.994701,14828
1659515764.034343,14848
1659515764.075352,14868
1659515764.116361,14898
1659515764.155661,14919
1659515764.194961,14921
1659515764.234261,14927
1659515764.276808,14933
1659515764.319355,14958
1659515764.35763,14968
1659515764.395905,14978
1659515764.43418,14988
1659515764.473138,15000
1659515764.512096,15014
1659515764.551055,15027
1659515764.592577,15032
1659515764.634098,15032
1659515764.676132,15041
1659515764.718166,15056
1659515764.756783,15057
1659515764.7954,15076
1659515764.834016,15054
1659515764.878784,14930
1659515764.923553,14853
1659515764.96832,14816
1659515765.000615,14791
1659515765.032909,14795
1659515765.076994,14808
1659515765.121079,14824
1659515765.165163,14841
1659515765.199508,14871
1659515765.233853,14897
1659515765.278279,14919
1659515765.322706,14964
1659515765.367132,15006
1659515765.40609,15028
1659515765.445049,15030
1659515765.484007,15042
1659515765.525016,15040
1659515765.566025,15061
1659515765.604984,15054
1659515765.643942,15058
1659515765.6829,15061
1659515765.721175,15064
1659515765.75945,15073
1659515765.797725,15040
1659515765.839247,14934
1659515765.880769,14890
1659515765.919044,14894
1659515765.957319,14903
1659515765.995593,14920
1659515766.037627,14953
1659515766.079662,14963
1659515766.11862,14981
1659515766.157578,14985
1659515766.196537,15000
1659515766.238059,15000
1659515766.27958,15030
1659515766.318197,15037
1659515766.356813,15039
1659515766.39543,15053
1659515766.437464,15062
1659515766.479498,15079
1659515766.518457,15069
1659515766.557415,15080
1659515766.596374,15098
1659515766.640458,15107
1659515766.684543,15119
1659515766.728627,15076
1659515766.760922,15016
1659515766.793216,14995
1659515766.837643,15010
1659515766.882069,15033
1659515766.926495,15050
1659515766.96477,15084
1659515767.003045,15085
1659515767.04132,15085
1659515767.083867,15099
1659515767.126414,15100
1659515767.16503,15109
1659515767.203647,15121
1659515767.242264,15125
1659515767.284298,15137
1659515767.326332,15145
1659515767.365291,15150
1659515767.404249,15151
1659515767.443208,15156
1659515767.48285,15158
1659515767.522491,15172
1659515767.562133,15137
1659515767.603655,15046
1659515767.645176,14983
1659515767.684135,14988
1659515767.723093,15004
1659515767.762052,15021
1659515767.803573,15044
1659515767.845095,15049
1659515767.883712,15061
1659515767.922328,15076
1659515767.960945,15079
1659515768.002466,15086
1659515768.043988,15100
1659515768.082946,15102
1659515768.121905,15096
1659515768.160863,15111
1659515768.201872,15112
1659515768.242881,15118
1659515768.284403,15135
1659515768.325924,15135
1659515768.367446,15155
1659515768.408967,15152
1659515768.450489,15149
1659515768.49201,15020
1659515768.53131,14921
1659515768.570611,14903
1659515768.609911,14899
1659515768.648186,14891
1659515768.686461,14902
1659515768.724736,14940
1659515768.767282,14938
1659515768.809829,14929
1659515768.848104,14940
1659515768.886379,14965
1659515768.924654,14990
1659515768.966176,14999
1659515769.007697,15023
1659515769.046655,15020
1659515769.085614,15050
1659515769.124573,15058
1659515769.165581,15070
1659515769.20659,15076
1659515769.244524,15080
1659515769.282457,15088
1659515769.32039,15099
1659515769.365158,15092
1659515769.409926,15090
1659515769.454694,15011
1659515769.488526,14884
1659515769.522359,14828
1659515769.566443,14816
1659515769.610528,14822
1659515769.654613,14833
1659515769.687932,14878
1659515769.721252,14901
1659515769.766362,14906
1659515769.811471,14927
1659515769.856581,14939
1659515769.894515,14969
1659515769.932448,14995
1659515769.970381,15016
1659515770.01344,15018
1659515770.0565,15044
1659515770.095116,15047
1659515770.133733,15060
1659515770.17235,15072
1659515770.212846,15068
1659515770.253342,15085
1659515770.292301,15080
1659515770.331259,15092
1659515770.370218,15099
1659515770.409176,15121
1659515770.448135,15037
1659515770.487093,14892
1659515770.528615,14853
1659515770.570136,14833
1659515770.609436,14842
1659515770.648736,14876
1659515770.688037,14923
1659515770.730071,14952
1659515770.772105,14970
1659515770.811064,14975
1659515770.850022,14979
1659515770.88898,14995
1659515770.930502,15008
1659515770.972023,15036
1659515771.011323,15046
1659515771.050624,15062
1659515771.089924,15069
1659515771.130933,15077
1659515771.171942,15084
1659515771.210558,15093
1659515771.249175,15097
1659515771.287792,15092
1659515771.332218,15106
1659515771.376645,15108
1659515771.421071,15105
1659515771.463105,15083
1659515771.505139,14959
1659515771.543414,14900
1659515771.581689,14910
1659515771.619964,14925
1659515771.661998,14950
1659515771.704032,14980
1659515771.742649,15003
1659515771.781266,14999
1659515771.819882,15024
1659515771.859183,15026
1659515771.898483,15045
1659515771.937783,15059
1659515771.979305,15070
1659515772.020826,15070
1659515772.059784,15078
1659515772.098743,15089
1659515772.137701,15095
1659515772.178198,15110
1659515772.218694,15118
1659515772.257994,15121
1659515772.297294,15132
1659515772.336595,15128
1659515772.375553,15133
1659515772.414511,15142
1659515772.45347,15106
1659515772.493966,15024
1659515772.534462,14987
1659515772.572737,15011
1659515772.611012,15031
1659515772.649287,15066
1659515772.691834,15076
1659515772.734381,15075
1659515772.778466,15068
1659515772.82255,15053
1659515772.866635,15060
1659515772.899442,15077
1659515772.932249,15106
1659515772.977017,15114
1659515773.021785,15115
1659515773.066553,15116
1659515773.100898,15113
1659515773.135243,15122
1659515773.175021,15128
1659515773.2148,15140
1659515773.254579,15152
1659515773.294357,15154
1659515773.334136,15159
1659515773.375658,15146
1659515773.417179,15083
1659515773.455796,15040
1659515773.494412,15053
1659515773.533029,15084
1659515773.574551,15109
1659515773.616072,15115
1659515773.66084,15118
1659515773.705608,15123
1659515773.750376,15137
1659515773.788651,15128
1659515773.826926,15133
1659515773.865201,15145
1659515773.906723,15145
1659515773.948244,15155
1659515773.988228,15145
1659515774.028212,15146
1659515774.068195,15162
1659515774.109204,15159
1659515774.150213,15162
1659515774.18883,15170
1659515774.227447,15173
1659515774.266063,15158
1659515774.305363,15041
1659515774.344664,14983
1659515774.383964,14986
1659515774.425485,15024
1659515774.467007,15058
1659515774.505624,15079
1659515774.54424,15085
1659515774.582857,15092
1659515774.621474,15103
1659515774.66009,15109
1659515774.698707,15114
1659515774.739203,15114
1659515774.7797,15129
1659515774.818316,15134
1659515774.856933,15145
1659515774.89555,15151
1659515774.937584,15147
1659515774.979618,15155
1659515775.024045,15159
1659515775.068471,15165
1659515775.112897,15163
1659515775.145704,15178
1659515775.178511,15169
1659515775.223621,15074
1659515775.268731,14957
1659515775.313841,14929
1659515775.346648,14936
1659515775.379455,14945
1659515775.423539,14967
1659515775.467624,14992
1659515775.511708,14994
1659515775.550667,14988
1659515775.589625,14999
1659515775.628584,15017
1659515775.669593,15030
1659515775.710602,15048
1659515775.748877,15067
1659515775.787152,15067
1659515775.825427,15094
1659515775.864385,15083
1659515775.903343,15094
1659515775.942302,15105
1659515775.983824,15111
1659515776.025345,15115
1659515776.063962,15073
1659515776.102578,14919
1659515776.141195,14809
1659515776.183229,14785
1659515776.225263,14775
1659515776.264222,14779
1659515776.30318,14797
1659515776.342139,14823
1659515776.381439,14847
1659515776.420739,14855
1659515776.460039,14875
1659515776.502074,14903
1659515776.544108,14944
1659515776.585629,14966
1659515776.627151,14992
1659515776.665767,15026
1659515776.704384,15032
1659515776.743001,15043
1659515776.785035,15052
1659515776.827069,15061
1659515776.866027,15076
1659515776.904986,15092
1659515776.943944,15043
1659515776.988029,14880
1659515777.032114,14826
1659515777.076198,14855
1659515777.109005,14893
1659515777.141812,14924
1659515777.18658,14978
1659515777.231349,15029
1659515777.276116,15055
1659515777.317638,15079
1659515777.359159,15081
1659515777.398118,15104
1659515777.437076,15111
1659515777.476035,15124
1659515777.515335,15119
1659515777.554635,15128
1659515777.593935,15139
1659515777.635457,15143
1659515777.676978,15152
1659515777.716279,15165
1659515777.755579,15161
1659515777.794879,15161
1659515777.835888,15179
1659515777.876897,15111
1659515777.915855,14930
1659515777.954814,14867
1659515777.993772,14878
1659515778.031705,14911
1659515778.069639,14958
1659515778.107572,15001
1659515778.150119,15015
1659515778.192665,15040
1659515778.231282,15052
1659515778.269899,15073
1659515778.308516,15099
1659515778.3526,15099
1659515778.396685,15125
1659515778.440769,15133
1659515778.474089,15143
1659515778.507409,15151
1659515778.551835,15156
1659515778.596261,15172
1659515778.640688,15175
1659515778.678962,15187
1659515778.717237,15198
1659515778.755512,15191
1659515778.794813,15089
1659515778.834113,14918
1659515778.873413,14842
1659515778.912372,14824
1659515778.95133,14847
1659515778.990288,14903
1659515779.030785,14948
1659515779.071281,14949
1659515779.110581,14968
1659515779.149881,14998
1659515779.189182,15031
1659515779.230191,15060
1659515779.271199,15098
1659515779.3105,15116
1659515779.3498,15141
1659515779.3891,15146
1659515779.431134,15144
1659515779.473168,15158
1659515779.517936,15151
1659515779.562704,15162
1659515779.607472,15131
1659515779.639767,14969
1659515779.672061,14856
1659515779.717171,14841
1659515779.762281,14825
1659515779.807391,14843
1659515779.846691,14892
1659515779.885991,14946
1659515779.925291,14986
1659515779.965788,15009
1659515780.006284,15031
1659515780.045242,15049
1659515780.084201,15095
1659515780.123159,15109
1659515780.164168,15119
1659515780.205177,15134
1659515780.244136,15136
1659515780.283094,15142
1659515780.322052,15133
1659515780.361011,15125
1659515780.399969,15126
1659515780.438928,15142
1659515780.480449,15129
1659515780.521971,15009
1659515780.560588,14881
1659515780.599204,14866
1659515780.637821,14871
1659515780.67678,14839
1659515780.715738,14852
1659515780.754696,14893
1659515780.797243,14919
1659515780.83979,14928
1659515780.878407,14934
1659515780.917023,14958
1659515780.95564,14984
1659515780.997161,15036
1659515781.038683,15056
1659515781.08123,15069
1659515781.123776,15096
1659515781.162051,15096
1659515781.200326,15105
1659515781.238601,15106
1659515781.282344,15125
1659515781.326087,15131
1659515781.36983,15139
1659515781.402637,15110
1659515781.435444,14920
1659515781.479529,14757
1659515781.523613,14704
1659515781.567698,14686
1659515781.606656,14686
1659515781.645615,14702
1659515781.684573,14734
1659515781.72712,14748
1659515781.769667,14743
1659515781.808283,14732
1659515781.8469,14757
1659515781.885517,14789
1659515781.926526,14813
1659515781.967535,14835
1659515782.006835,14841
1659515782.046135,14855
1659515782.085435,14877
1659515782.124394,14900
1659515782.163352,14924
1659515782.202311,14954
1659515782.243832,14962
1659515782.285354,14976
1659515782.32397,14856
1659515782.362587,14619
1659515782.401204,14521
1659515782.442725,14500
1659515782.484247,14504
1659515782.522522,14516
1659515782.560797,14558
1659515782.599072,14585
1659515782.641106,14574
1659515782.68314,14565
1659515782.722782,14566
1659515782.762424,14582
1659515782.802066,14606
1659515782.843075,14618
1659515782.884084,14652
1659515782.9227,14676
1659515782.961317,14700
1659515782.999934,14715
1659515783.045385,14727
1659515783.090837,14746
1659515783.136288,14769
1659515783.169608,14782
1659515783.202928,14704
1659515783.247354,14525
1659515783.29178,14425
1659515783.336207,14395
1659515783.377728,14385
1659515783.41925,14398
1659515783.457866,14414
1659515783.496483,14441
1659515783.5351,14461
1659515783.574058,14469
1659515783.613017,14495
1659515783.651975,14511
1659515783.691275,14532
1659515783.730576,14563
1659515783.769876,14588
1659515783.810372,14610
1659515783.850868,14622
1659515783.889827,14652
1659515783.928785,14679
1659515783.967744,14699
1659515784.01029,14713
1659515784.052837,14731
1659515784.091112,14749
1659515784.129387,14724
1659515784.167662,14539
1659515784.211747,14375
1659515784.255831,14305
1659515784.299916,14297
1659515784.333236,14311
1659515784.366555,14343
1659515784.41064,14380
1659515784.454724,14416
1659515784.498809,14423
1659515784.537426,14441
1659515784.576042,14448
1659515784.614659,14448
1659515784.656693,14481
1659515784.698727,14519
1659515784.737002,14564
1659515784.775277,14596
1659515784.813552,14627
1659515784.854048,14639
1659515784.894545,14650
1659515784.933845,14662
1659515784.973145,14677
1659515785.012445,14699
1659515785.051062,14717
1659515785.089679,14718
1659515785.128295,14567
1659515785.17033,14395
1659515785.212364,14337
1659515785.251664,14315
1659515785.290964,14324
1659515785.330264,14337
1659515785.371786,14379
1659515785.413307,14410
1659515785.451582,14426
1659515785.489857,14442
1659515785.528132,14461
1659515785.570679,14477
1659515785.613226,14516
1659515785.651843,14549
1659515785.690459,14574
1659515785.729076,14591
1659515785.770085,14627
1659515785.811094,14657
1659515785.84971,14688
1659515785.888327,14696
1659515785.926944,14716
1659515785.971712,14747
1659515786.01648,14754
1659515786.061248,14761
1659515786.094568,14683
1659515786.127887,14476
1659515786.172656,14387
1659515786.217423,14400
1659515786.262192,14427
1659515786.304226,14467
1659515786.34626,14533
1659515786.384876,14547
1659515786.423493,14542
1659515786.46211,14528
1659515786.50141,14540
1659515786.54071,14582
1659515786.580011,14623
1659515786.621532,14657
1659515786.663054,14688
1659515786.701329,14711
1659515786.739604,14729
1659515786.777879,14741
1659515786.816495,14743
1659515786.855112,14742
1659515786.893729,14768
1659515786.936275,14789
1659515786.978822,14810
1659515787.017439,14803
1659515787.056056,14701
1659515787.094672,14489
1659515787.135169,14432
1659515787.175665,14422
1659515787.214965,14433
1659515787.254265,14471
1659515787.293566,14525
1659515787.3356,14571
1659515787.377634,14583
1659515787.415909,14600
1659515787.454184,14627
1659515787.492459,14655
1659515787.53398,14672
1659515787.575502,14685
1659515787.61446,14712
1659515787.653419,14733
1659515787.692377,14755
1659515787.73612,14767
1659515787.779863,14780
1659515787.823606,14791
1659515787.86564,14810
1659515787.907674,14814
1659515787.946632,14815
1659515787.985591,14773
1659515788.024549,14557
1659515788.065045,14450
1659515788.105542,14455
1659515788.144158,14480
1659515788.182775,14508
1659515788.221392,14559
1659515788.260692,14596
1659515788.299992,14605
1659515788.339292,14605
1659515788.380814,14606
1659515788.422335,14631
1659515788.461636,14673
1659515788.500936,14704
1659515788.540236,14738
1659515788.58227,14758
1659515788.624304,14789
1659515788.662579,14793
1659515788.700854,14799
1659515788.739129,14810
1659515788.778088,14825
1659515788.817046,14846
1659515788.856004,14854
1659515788.898551,14848
1659515788.941098,14737
1659515788.979373,14567
1659515789.017648,14539
1659515789.055923,14553
1659515789.097444,14593
1659515789.138966,14624
1659515789.183734,14659
1659515789.228502,14686
1659515789.27327,14705
1659515789.306077,14727
1659515789.338884,14742
1659515789.380919,14770
1659515789.422953,14805
1659515789.464987,14812
1659515789.507021,14831
1659515789.546321,14839
1659515789.585621,14845
1659515789.624921,14865
1659515789.66593,14872
1659515789.706939,14878
1659515789.746239,14878
1659515789.78554,14888
1659515789.82484,14813
1659515789.863456,14589
1659515789.902073,14505
1659515789.94069,14485
1659515789.982724,14500
1659515790.024758,14523
1659515790.065254,14584
1659515790.105751,14619
1659515790.144709,14617
1659515790.183668,14609
1659515790.222626,14614
1659515790.266369,14630
1659515790.310112,14646
1659515790.353855,14674
1659515790.387687,14689
1659515790.421519,14716
1659515790.465604,14745
1659515790.509688,14760
1659515790.553773,14785
1659515790.587093,14797
1659515790.620412,14824
1659515790.664497,14827
1659515790.708581,14826
1659515790.752666,14672
1659515790.791966,14487
1659515790.831266,14452
1659515790.870567,14449
1659515790.912088,14458
1659515790.95361,14485
1659515790.992568,14539
1659515791.031527,14577
1659515791.070485,14596
1659515791.109102,14602
1659515791.147718,14603
1659515791.186335,14640
1659515791.227857,14687
1659515791.269378,14724
1659515791.307653,14745
1659515791.345928,14765
1659515791.384203,14794
1659515791.42675,14801
1659515791.469297,14814
1659515791.508255,14828
1659515791.547214,14837
1659515791.586172,14857
1659515791.627181,14836
1659515791.66819,14643
1659515791.707148,14526
1659515791.746107,14514
1659515791.785065,14532
1659515791.827612,14561
1659515791.870159,14615
1659515791.908775,14651
1659515791.947392,14655
1659515791.986009,14673
1659515792.02753,14702
1659515792.069052,14710
1659515792.108352,14719
1659515792.147652,14732
1659515792.186952,14727
1659515792.231037,14738
1659515792.275121,14745
1659515792.319206,14769
1659515792.36124,14798
1659515792.403274,14821
1659515792.442575,14853
1659515792.481875,14871
1659515792.521175,14860
1659515792.55945,14648
1659515792.597725,14502
1659515792.636,14436
1659515792.677521,14423
1659515792.719043,14402
1659515792.759027,14405
1659515792.79901,14447
1659515792.838994,14470
1659515792.880003,14477
1659515792.921012,14491
1659515792.959287,14527
1659515792.997562,14563
1659515793.035837,14600
1659515793.078383,14621
1659515793.12093,14636
1659515793.159889,14662
1659515793.198847,14688
1659515793.237805,14701
1659515793.276422,14717
1659515793.315039,14740
1659515793.353656,14749
1659515793.394665,14744
1659515793.435673,14589
1659515793.473607,14394
1659515793.51154,14347
1659515793.549473,14339
1659515793.590995,14346
1659515793.632516,14391
1659515793.677284,14438
1659515793.722052,14483
1659515793.76682,14492
1659515793.799115,14494
1659515793.831409,14497
1659515793.875494,14511
1659515793.919578,14547
1659515793.963663,14591
1659515794.002963,14638
1659515794.042263,14689
1659515794.081563,14713
1659515794.123598,14737
1659515794.165632,14752
1659515794.203907,14762
1659515794.242182,14765
1659515794.280457,14766
1659515794.322491,14730
1659515794.364525,14512
1659515794.403142,14342
1659515794.441758,14282
1659515794.480375,14268
1659515794.51865,14270
1659515794.556925,14308
1659515794.5952,14375
1659515794.633817,14451
1659515794.672433,14512
1659515794.71105,14553
1659515794.753597,14600
1659515794.796144,14634
1659515794.834419,14677
1659515794.872694,14674
1659515794.910969,14679
1659515794.953003,14684
1659515794.995037,14689
1659515795.033995,14690
1659515795.072954,14691
1659515795.111912,14709
1659515795.156338,14728
1659515795.200765,14754
1659515795.245191,14769
1659515795.287738,14695
1659515795.330285,14526
1659515795.369585,14459
1659515795.408885,14471
1659515795.448185,14479
1659515795.48646,14501
1659515795.524735,14536
1659515795.56301,14569
1659515795.604532,14578
1659515795.646053,14569
1659515795.685353,14593
1659515795.724653,14636
1659515795.763954,14678
1659515795.804963,14709
1659515795.845971,14728
1659515795.884246,14748
1659515795.922521,14761
1659515795.960796,14768
1659515795.999755,14783
1659515796.038713,14805
1659515796.077672,14815
1659515796.119706,14839
1659515796.16174,14838
1659515796.200698,14698
1659515796.239657,14538
1659515796.278615,14472
1659515796.320137,14452
1659515796.361658,14450
1659515796.400959,14490
1659515796.440259,14536
1659515796.479559,14568
1659515796.52108,14580
1659515796.562602,14599
1659515796.60156,14633
1659515796.640519,14658
1659515796.679477,14674
1659515796.720486,14696
1659515796.761495,14721
1659515796.805238,14750
1659515796.848981,14768
1659515796.892724,14774
1659515796.930999,14786
1659515796.969274,14802
1659515797.007549,14813
1659515797.050095,14798
1659515797.092642,14615
1659515797.130917,14449
1659515797.169192,14423
1659515797.207467,14436
1659515797.248988,14463
1659515797.29051,14498
1659515797.32981,14563
1659515797.36911,14621
1659515797.408411,14657
1659515797.446686,14706
1659515797.484961,14740
1659515797.523236,14747
1659515797.565269,14777
1659515797.607304,14802
1659515797.646604,14816
1659515797.685904,14825
1659515797.725204,14836
1659515797.763138,14847
1659515797.801071,14877
1659515797.839004,14885
1659515797.881038,14888
1659515797.923072,14905
1659515797.961689,14865
1659515798.000306,14714
1659515798.038922,14657
1659515798.080956,14680
1659515798.122991,14710
1659515798.164,14755
1659515798.205009,14792
1659515798.24465,14811
1659515798.284292,14836
1659515798.323934,14833
1659515798.368361,14857
1659515798.412787,14867
1659515798.457213,14880
1659515798.491045,14904
1659515798.524878,14910
1659515798.569988,14914
1659515798.615097,14919
1659515798.660207,14934
1659515798.693014,14936
1659515798.725821,14961
1659515798.769564,14957
1659515798.813307,14970
1659515798.85705,14973
1659515798.89635,14878
1659515798.93565,14694
1659515798.974951,14644
1659515799.016985,14660
1659515799.059019,14675
1659515799.097636,14727
1659515799.136252,14777
1659515799.174869,14800
1659515799.213485,14823
1659515799.252102,14831
1659515799.290719,14854
1659515799.331728,14873
1659515799.372737,14881
1659515799.411695,14888
1659515799.450654,14911
1659515799.489612,14922
1659515799.531646,14934
1659515799.57368,14933
1659515799.612297,14943
1659515799.650914,14954
1659515799.689531,14961
1659515799.731052,14969
1659515799.772573,14969
1659515799.814095,14869
1659515799.855617,14693
1659515799.897138,14638
1659515799.93866,14644
1659515799.976935,14658
1659515800.01521,14691
1659515800.053484,14741
1659515800.092101,14779
1659515800.130718,14815
1659515800.169335,14810
1659515800.211881,14825
1659515800.254428,14848
1659515800.292703,14858
1659515800.330978,14878
1659515800.369253,14895
1659515800.409749,14899
1659515800.450246,14911
1659515800.489546,14923
1659515800.528846,14945
1659515800.568146,14951
1659515800.61018,14950
1659515800.652215,14958
1659515800.691173,14957
1659515800.730131,14857
1659515800.76909,14678
1659515800.811124,14644
1659515800.853158,14657
1659515800.892458,14683
1659515800.931758,14728
1659515800.971059,14786
1659515801.01446,14810
1659515801.057861,14830
1659515801.101262,14847
1659515801.143809,14863
1659515801.186355,14888
1659515801.224972,14906
1659515801.263589,14914
1659515801.302206,14920
1659515801.343215,14934
1659515801.384223,14944
1659515801.423182,14958
1659515801.46214,14974
1659515801.501099,14968
1659515801.540741,14979
1659515801.580383,14986
1659515801.620024,14951
1659515801.661033,14760
1659515801.702042,14642
1659515801.741001,14625
1659515801.779959,14633
1659515801.818918,14665
1659515801.860952,14712
1659515801.902986,14767
1659515801.942286,14788
1659515801.981586,14799
1659515802.020886,14805
1659515802.059503,14817
1659515802.09812,14819
1659515802.136737,14829
1659515802.178771,14837
1659515802.220805,14851
1659515802.25908,14884
1659515802.297355,14888
1659515802.33563,14894
1659515802.377151,14914
1659515802.418673,14922
1659515802.457973,14922
1659515802.497273,14892
1659515802.536573,14673
1659515802.57707,14529
1659515802.617566,14497
1659515802.661992,14493
1659515802.706419,14500
1659515802.750845,14529
1659515802.784677,14583
1659515802.81851,14615
1659515802.862936,14628
1659515802.907362,14634
1659515802.951788,14655
1659515802.990063,14692
1659515803.028338,14726
1659515803.066613,14758
1659515803.108648,14774
1659515803.150682,14790
1659515803.189298,14818
1659515803.227915,14820
1659515803.266532,14826
1659515803.304465,14856
1659515803.342398,14873
1659515803.380332,14863
1659515803.422878,14693
1659515803.465425,14512
1659515803.5037,14435
1659515803.541975,14422
1659515803.58025,14403
1659515803.620746,14421
1659515803.661242,14479
1659515803.700201,14509
1659515803.739159,14525
1659515803.778118,14529
1659515803.817076,14534
1659515803.856035,14572
1659515803.894993,14605
1659515803.936515,14644
1659515803.978036,14675
1659515804.017336,14708
1659515804.056637,14734
1659515804.095937,14750
1659515804.137971,14777
1659515804.180005,14791
1659515804.22409,14800
1659515804.268174,14820
1659515804.312259,14736
1659515804.346604,14510
1659515804.380949,14436
1659515804.425375,14416
1659515804.469801,14417
1659515804.514228,14466
1659515804.547035,14518
1659515804.579842,14573
1659515804.623926,14595
1659515804.668011,14605
1659515804.712095,14625
1659515804.751054,14665
1659515804.790012,14702
1659515804.828971,14725
1659515804.870492,14747
1659515804.912014,14773
1659515804.950972,14793
1659515804.989931,14813
1659515805.028889,14830
1659515805.070923,14843
1659515805.112957,14862
1659515805.151232,14871
1659515805.189507,14851
1659515805.227782,14655
1659515805.267083,14543
1659515805.306383,14539
1659515805.345683,14576
1659515805.387717,14629
1659515805.429751,14696
1659515805.468026,14751
1659515805.506301,14767
1659515805.544576,14788
1659515805.585585,14798
1659515805.626594,14819
1659515805.665894,14838
1659515805.705194,14854
1659515805.744495,14866
1659515805.786016,14861
1659515805.827538,14854
1659515805.865813,14854
1659515805.904088,14853
1659515805.942363,14866
1659515805.983884,14869
1659515806.025406,14867
1659515806.065048,14667
1659515806.104689,14476
1659515806.144331,14410
1659515806.188074,14407
1659515806.231817,14420
1659515806.27556,14453
1659515806.308367,14525
1659515806.341174,14586
1659515806.385942,14613
1659515806.43071,14617
1659515806.475478,14638
1659515806.514095,14670
1659515806.552712,14697
1659515806.591328,14718
1659515806.633363,14730
1659515806.675397,14748
1659515806.714355,14755
1659515806.753314,14784
1659515806.792272,14779
1659515806.832768,14797
1659515806.873265,14827
1659515806.91154,14815
1659515806.949815,14619
1659515806.98809,14411
1659515807.02739,14353
1659515807.06669,14333
1659515807.10599,14327
1659515807.147511,14334
1659515807.189033,14372
1659515807.227992,14405
1659515807.26695,14414
1659515807.305908,14421
1659515807.348455,14456
1659515807.391002,14494
1659515807.429619,14537
1659515807.468235,14572
1659515807.506852,14600
1659515807.551278,14613
1659515807.595705,14630
1659515807.640131,14628
1659515807.674476,14629
1659515807.708821,14657
1659515807.752905,14667
1659515807.79699,14694
1659515807.841075,14646
1659515807.879349,14424
1659515807.917624,14299
1659515807.955899,14272
1659515807.995883,14280
1659515808.035867,14285
1659515808.07585,14314
1659515808.115834,14363
1659515808.155818,14390
1659515808.197339,14403
1659515808.238861,14414
1659515808.278503,14434
1659515808.318145,14445
1659515808.357787,14476
1659515808.399308,14499
1659515808.44083,14526
1659515808.479446,14547
1659515808.518063,14569
1659515808.55668,14608
1659515808.599227,14639
1659515808.641773,14678
1659515808.680732,14691
1659515808.71969,14700
1659515808.758649,14667
1659515808.796924,14445
1659515808.835199,14298
1659515808.873474,14249
1659515808.914995,14234
1659515808.956517,14224
1659515808.995475,14255
1659515809.034434,14292
1659515809.073392,14304
1659515809.114401,14327
1659515809.15541,14330
1659515809.193685,14344
1659515809.23196,14375
1659515809.270235,14405
1659515809.311756,14437
1659515809.353278,14464
1659515809.397362,14482
1659515809.441447,14508
1659515809.485532,14546
1659515809.525173,14571
1659515809.564815,14585
1659515809.604457,14621
1659515809.645979,14639
1659515809.6875,14634
1659515809.726117,14441
1659515809.764734,14285
1659515809.80335,14243
1659515809.844872,14244
1659515809.886394,14258
1659515809.926035,14292
1659515809.965677,14350
1659515810.005319,14368
1659515810.043594,14370
1659515810.081869,14375
1659515810.120144,14400
1659515810.161666,14438
1659515810.203187,14498
1659515810.241804,14524
1659515810.280421,14549
1659515810.319037,14581
1659515810.359021,14602
1659515810.399005,14616
1659515810.438988,14639
1659515810.478972,14656
1659515810.518956,14689
1659515810.558256,14692
1659515810.597556,14598
1659515810.636856,14358
1659515810.681283,14282
1659515810.725709,14300
1659515810.770135,14331
1659515810.803455,14393
1659515810.836775,14455
1659515810.881201,14481
1659515810.925627,14471
1659515810.970054,14471
1659515811.00867,14487
1659515811.047287,14486
1659515811.085904,14484
1659515811.127938,14479
1659515811.169972,14498
1659515811.20893,14520
1659515811.247889,14565
1659515811.286847,14592
1659515811.327856,14607
1659515811.368865,14617
1659515811.407482,14618
1659515811.446099,14602
1659515811.484715,14399
1659515811.524357,14199
1659515811.563999,14118
1659515811.603641,14128
1659515811.645163,14174
1659515811.686684,14237
1659515811.724959,14336
1659515811.763234,14406
1659515811.801509,14439
1659515811.843543,14457
1659515811.885577,14478
1659515811.924877,14521
1659515811.964178,14559
1659515812.003478,14597
1659515812.047562,14620
1659515812.091647,14653
1659515812.135732,14676
1659515812.168539,14688
1659515812.201346,14704
1659515812.245772,14711
1659515812.290199,14733
1659515812.334625,14736
1659515812.372558,14596
1659515812.410491,14303
1659515812.448425,14213
1659515812.490971,14206
1659515812.533518,14220
1659515812.572135,14228
1659515812.610751,14260
1659515812.649368,14288
1659515812.690377,14299
1659515812.731386,14304
1659515812.770344,14319
1659515812.809303,14342
1659515812.848261,14379
1659515812.88722,14418
1659515812.926178,14443
1659515812.965137,14466
1659515813.006658,14487
1659515813.04818,14504
1659515813.08748,14532
1659515813.12678,14567
1659515813.16608,14585
1659515813.207602,14527
1659515813.249123,14271
1659515813.287398,14107
1659515813.325673,14052
1659515813.363948,14043
1659515813.406495,14063
1659515813.449042,14083
1659515813.488,14122
1659515813.526958,14123
1659515813.565917,14115
1659515813.606413,14115
1659515813.646909,14141
1659515813.685526,14188
1659515813.724143,14233
1659515813.76276,14276
1659515813.807869,14286
1659515813.852979,14335
1659515813.898089,14367
1659515813.940123,14393
1659515813.982157,14439
1659515814.021116,14475
1659515814.060074,14517
1659515814.099033,14515
1659515814.141067,14295
1659515814.183101,14114
1659515814.221718,14068
1659515814.260334,14065
1659515814.298951,14054
1659515814.337568,14088
1659515814.376184,14133
1659515814.414801,14170
1659515814.457348,14184
1659515814.499895,14198
1659515814.53817,14220
1659515814.576445,14275
1659515814.61472,14334
1659515814.653336,14400
1659515814.691953,14475
1659515814.73057,14532
1659515814.772091,14578
1659515814.813613,14621
1659515814.852571,14644
1659515814.89153,14653
1659515814.930488,14667
1659515814.971497,14582
1659515815.012506,14302
1659515815.051464,14198
1659515815.090423,14181
1659515815.129381,14191
1659515815.170903,14220
1659515815.212424,14283
1659515815.251724,14335
1659515815.291025,14354
1659515815.330325,14341
1659515815.371846,14353
1659515815.413368,14373
1659515815.457453,14400
1659515815.501537,14448
1659515815.545622,14478
1659515815.583897,14504
1659515815.622172,14532
1659515815.660447,14555
1659515815.70043,14571
1659515815.740414,14606
1659515815.780398,14625
1659515815.820381,14641
1659515815.860365,14560
1659515815.901374,14264
1659515815.942383,14124
1659515815.981341,14057
1659515816.0203,14030
1659515816.059258,14023
1659515816.10078,14031
1659515816.142301,14029
1659515816.181943,14005
1659515816.221585,13984
1659515816.261227,13990
1659515816.299844,14016
1659515816.33846,14063
1659515816.377077,14104
1659515816.419111,14145
1659515816.461145,14174
1659515816.500104,14210
1659515816.539062,14218
1659515816.578021,14258
1659515816.620055,14287
1659515816.662089,14328
1659515816.701047,14365
1659515816.740006,14309
1659515816.778964,14096
1659515816.819973,13969
1659515816.860982,13931
1659515816.898915,13926
1659515816.936849,13940
1659515816.974782,13981
1659515817.017841,14031
1659515817.0609,14063
1659515817.099517,14066
1659515817.138134,14058
1659515817.176751,14064
1659515817.221177,14074
1659515817.265603,14096
1659515817.31003,14107
1659515817.343349,14114
1659515817.376669,14131
1659515817.421779,14163
1659515817.466889,14179
1659515817.511998,14210
1659515817.544806,14241
1659515817.577613,14251
1659515817.622381,14190
1659515817.667149,13986
1659515817.711917,13864
1659515817.750875,13839
1659515817.789834,13820
1659515817.828792,13804
1659515817.869288,13813
1659515817.909785,13839
1659515817.948401,13839
1659515817.987018,13866
1659515818.025635,13910
1659515818.068182,13971
1659515818.110728,14023
1659515818.148662,14018
1659515818.186595,14017
1659515818.224528,14021
1659515818.263486,14033
1659515818.302445,14045
1659515818.341403,14082
1659515818.382925,14123
1659515818.424446,14180
1659515818.462721,14237
1659515818.500996,14266
1659515818.539271,14112
1659515818.581306,13905
1659515818.623339,13806
1659515818.66264,13785
1659515818.70194,13795
1659515818.74124,13841
1659515818.781736,13930
1659515818.822233,14002
1659515818.860849,14037
1659515818.899466,14081
1659515818.938083,14162
1659515818.982509,14250
1659515819.026935,14336
1659515819.071362,14389
1659515819.113396,14424
1659515819.15543,14456
1659515819.194047,14505
1659515819.232663,14554
1659515819.27128,14567
1659515819.313314,14591
1659515819.355348,14604
1659515819.393965,14609
1659515819.432582,14550
1659515819.471199,14213
1659515819.510157,14119
1659515819.549115,14155
1659515819.588074,14239
1659515819.630108,14347
1659515819.672142,14441
1659515819.711101,14486
1659515819.750059,14521
1659515819.789017,14535
1659515819.830026,14538
1659515819.871035,14557
1659515819.910677,14542
1659515819.950319,14529
1659515819.989961,14545
1659515820.028919,14562
1659515820.067878,14566
1659515820.106837,14563
1659515820.147333,14583
1659515820.187829,14600
1659515820.226446,14625
1659515820.265063,14597
1659515820.303679,14282
1659515820.346739,14078
1659515820.389798,14038
1659515820.428073,14084
1659515820.466348,14161
1659515820.504623,14288
1659515820.546144,14403
1659515820.587666,14464
1659515820.632434,14494
1659515820.677202,14507
1659515820.72197,14509
1659515820.760587,14516
1659515820.799203,14535
1659515820.83782,14558
1659515820.879854,14565
1659515820.921888,14568
1659515820.961667,14577
1659515821.001446,14566
1659515821.041224,14576
1659515821.081003,14569
1659515821.120781,14569
1659515821.154101,14550
1659515821.187421,14339
1659515821.231506,14112
1659515821.27559,14066
1659515821.319675,14071
1659515821.358633,14074
1659515821.397592,14101
1659515821.43655,14123
1659515821.477046,14125
1659515821.517543,14090
1659515821.556843,14089
1659515821.596143,14108
1659515821.635443,14148
1659515821.67406,14186
1659515821.712677,14211
1659515821.751293,14247
1659515821.792815,14244
1659515821.834336,14269
1659515821.873636,14292
1659515821.912937,14319
1659515821.952237,14363
1659515821.990854,14406
1659515822.02947,14373
1659515822.068087,14144
1659515822.108583,14036
1659515822.14908,13997
1659515822.193506,13994
1659515822.237932,14012
1659515822.282359,14032
1659515822.316191,14081
1659515822.350023,14096
1659515822.393766,14097
1659515822.437509,14097
1659515822.481252,14131
1659515822.52021,14157
1659515822.559169,14194
1659515822.598127,14254
1659515822.639649,14300
1659515822.68117,14321
1659515822.719445,14331
1659515822.75772,14349
1659515822.795995,14383
1659515822.835979,14406
1659515822.875962,14436
1659515822.915946,14440
1659515822.957468,14271
1659515822.998989,14070
1659515823.037948,14007
1659515823.076906,14013
1659515823.115865,14022
1659515823.157899,14046
1659515823.199933,14066
1659515823.239575,14051
1659515823.279217,14024
1659515823.318859,14046
1659515823.357134,14077
1659515823.395408,14119
1659515823.433683,14162
1659515823.475205,14177
1659515823.516726,14208
1659515823.558248,14220
1659515823.59977,14246
1659515823.638728,14275
1659515823.677686,14292
1659515823.716645,14315
1659515823.757141,14345
1659515823.797637,14337
1659515823.836938,14116
1659515823.876238,13941
1659515823.915538,13879
1659515823.959623,13891
1659515824.003707,13938
1659515824.047792,13982
1659515824.081624,14040
1659515824.115456,14097
1659515824.160224,14127
1659515824.204993,14154
1659515824.249761,14182
1659515824.288036,14214
1659515824.32631,14248
1659515824.364585,14299
1659515824.405594,14326
1659515824.446603,14360
1659515824.485562,14393
1659515824.52452,14417
1659515824.563479,14446
1659515824.605,14450
1659515824.646522,14470
1659515824.685138,14482
1659515824.723755,14358
1659515824.762372,14098
1659515824.800647,14030
1659515824.838922,14055
1659515824.877197,14095
1659515824.919231,14156
1659515824.961265,14205
1659515824.999882,14223
1659515825.038498,14203
1659515825.077115,14217
1659515825.119149,14242
1659515825.161183,14285
1659515825.200484,14340
1659515825.239784,14384
1659515825.279084,14420
1659515825.320093,14443
1659515825.361102,14455
1659515825.399377,14477
1659515825.437652,14502
1659515825.475927,14521
1659515825.518986,14535
1659515825.562045,14379
1659515825.60032,14122
1659515825.638595,14073
1659515825.67687,14072
1659515825.721297,14097
1659515825.765723,14147
1659515825.810149,14210
1659515825.851158,14248
1659515825.892167,14251
1659515825.931125,14238
1659515825.970084,14262
1659515826.009042,14295
1659515826.048001,14340
1659515826.086959,14388
1659515826.125918,14413
1659515826.168977,14435
1659515826.212036,14436
1659515826.251815,14442
1659515826.291594,14445
1659515826.331372,14467
1659515826.371151,14476
1659515826.41093,14336
1659515826.45023,14097
1659515826.48953,14004
1659515826.52883,13988
1659515826.567789,13990
1659515826.606747,14020
1659515826.645705,14054
1659515826.686202,14098
1659515826.726698,14117
1659515826.765998,14118
1659515826.805299,14125
1659515826.844599,14152
1659515826.885607,14186
1659515826.926616,14222
1659515826.965917,14276
1659515827.005217,14284
1659515827.044517,14300
1659515827.085526,14330
1659515827.126535,14357
1659515827.165493,14384
1659515827.204452,14417
1659515827.24341,14304
1659515827.287495,14033
1659515827.331579,13928
1659515827.375664,13893
1659515827.418211,13896
1659515827.460757,13919
1659515827.499716,13952
1659515827.538674,14001
1659515827.577633,14021
1659515827.61625,14017
1659515827.654866,14024
1659515827.693483,14056
1659515827.735004,14091
1659515827.776526,14135
1659515827.814801,14176
1659515827.853076,14210
1659515827.891351,14244
1659515827.929626,14254
1659515827.967901,14276
1659515828.006176,14311
1659515828.048723,14343
1659515828.091269,14357
1659515828.129544,14135
1659515828.167819,13930
1659515828.206094,13854
1659515828.247616,13844
1659515828.289137,13832
1659515828.328096,13848
1659515828.367054,13927
1659515828.406013,13961
1659515828.448047,13963
1659515828.490081,13967
1659515828.528697,13996
1659515828.567314,14035
1659515828.605931,14094
1659515828.647965,14136
1659515828.689999,14175
1659515828.734426,14219
1659515828.778852,14252
1659515828.823278,14281
1659515828.861553,14312
1659515828.899828,14349
1659515828.938103,14381
1659515828.98065,14408
1659515829.023196,14281
1659515829.062155,13978
1659515829.101113,13880
1659515829.140072,13853
1659515829.180568,13851
1659515829.221064,13875
1659515829.260365,13917
1659515829.299665,13970
1659515829.338965,13982
1659515829.377923,13986
1659515829.416882,14001
1659515829.45584,14038
1659515829.498387,14075
1659515829.540934,14122
1659515829.579551,14156
1659515829.618167,14187
1659515829.656784,14214
1659515829.698818,14230
1659515829.740852,14259
1659515829.779469,14283
1659515829.818086,14320
1659515829.856702,14351
1659515829.896003,14325
1659515829.935303,14064
1659515829.974603,13873
1659515830.015612,13814
1659515830.056621,13786
1659515830.095237,13775
1659515830.133854,13793
1659515830.172471,13824
1659515830.212967,13842
1659515830.253464,13853
1659515830.29789,13854
1659515830.342316,13866
1659515830.386742,13890
1659515830.420575,13906
1659515830.454407,13917
1659515830.498492,13939
1659515830.542576,13944
1659515830.586661,13966
1659515830.625278,13995
1659515830.663894,14024
1659515830.702511,14074
1659515830.744545,14136
1659515830.786579,14187
1659515830.825538,14187
1659515830.864496,14013
1659515830.903455,13804
1659515830.944976,13704
1659515830.986498,13664
1659515831.025456,13640
1659515831.064415,13647
1659515831.103373,13662
1659515831.141306,13689
1659515831.179239,13699
1659515831.217173,13716
1659515831.259207,13740
1659515831.301241,13778
1659515831.340541,13814
1659515831.379841,13832
1659515831.419142,13841
1659515831.459638,13845
1659515831.500134,13853
1659515831.540528,13876
1659515831.580922,13893
1659515831.621315,13901
1659515831.661709,13914
1659515831.702103,13956
1659515831.740378,13994
1659515831.778653,14030
1659515831.816928,13972
1659515831.857937,13767
1659515831.898946,13637
1659515831.938587,13591
1659515831.97823,13582
1659515832.017871,13569
1659515832.061956,13591
1659515832.10604,13637
1659515832.150125,13671
1659515832.183957,13685
1659515832.21779,13700
1659515832.262558,13718
1659515832.307326,13749
1659515832.352094,13791
1659515832.390369,13833
1659515832.428644,13877
1659515832.466919,13901
1659515832.507415,13922
1659515832.547911,13950
1659515832.587553,13969
1659515832.627195,14004
1659515832.666837,14035
1659515832.708871,14078
1659515832.750906,14114
1659515832.789864,14139
1659515832.828822,14117
1659515832.867781,13896
1659515832.906739,13733
1659515832.945698,13688
1659515832.984656,13681
1659515833.026178,13703
1659515833.067699,13732
1659515833.105974,13790
1659515833.144249,13791
1659515833.182524,13780
1659515833.225071,13795
1659515833.267618,13808
1659515833.305892,13839
1659515833.344167,13884
1659515833.382442,13925
1659515833.423451,13970
1659515833.46446,14011
1659515833.503077,14052
1659515833.541694,14100
1659515833.58031,14131
1659515833.622857,14164
1659515833.665404,14203
1659515833.703679,14228
1659515833.741954,14260
1659515833.780229,14284
1659515833.824997,14298
1659515833.869765,14066
1659515833.914533,13901
1659515833.94734,13889
1659515833.980147,13896
1659515834.024574,13927
1659515834.069,13948
1659515834.113426,13967
1659515834.154948,13987
1659515834.196469,14009
1659515834.235428,14021
1659515834.274386,14030
1659515834.313344,14057
1659515834.351619,14083
1659515834.389894,14125
1659515834.428169,14158
1659515834.469178,14174
1659515834.510187,14194
1659515834.549487,14203
1659515834.588788,14224
1659515834.628088,14247
1659515834.667046,14290
1659515834.706005,14311
1659515834.744963,14197
1659515834.78546,13955
1659515834.825956,13861
1659515834.865598,13852
1659515834.90524,13882
1659515834.944882,13909
1659515834.986916,13944
1659515835.02895,13968
1659515835.067567,13977
1659515835.106183,14005
1659515835.1448,14017
1659515835.186834,14043
1659515835.228868,14078
1659515835.268168,14091
1659515835.307469,14125
1659515835.346769,14156
1659515835.390512,14182
1659515835.434254,14230
1659515835.477997,14269
1659515835.520544,14308
1659515835.563091,14337
1659515835.601707,14375
1659515835.640324,14397
1659515835.678941,14402
1659515835.717558,14157
1659515835.756174,13971
1659515835.794791,13958
1659515835.8358,14001
1659515835.876809,14053
1659515835.916109,14113
1659515835.955409,14191
1659515835.994709,14216
1659515836.032984,14233
1659515836.071259,14240
1659515836.109534,14268
1659515836.152594,14320
1659515836.195653,14354
1659515836.234612,14392
1659515836.27357,14426
1659515836.312528,14444
1659515836.353537,14460
1659515836.394546,14482
1659515836.433505,14497
1659515836.472463,14517
1659515836.511421,14548
1659515836.553968,14537
1659515836.596515,14337
1659515836.634448,14131
1659515836.672381,14103
1659515836.710315,14154
1659515836.751836,14226
1659515836.793358,14293
1659515836.833136,14343
1659515836.872915,14375
1659515836.912694,14370
1659515836.952472,14393
1659515836.992251,14410
1659515837.035994,14446
1659515837.079736,14478
1659515837.123479,14504
1659515837.163121,14517
1659515837.202763,14532
1659515837.242405,14554
1659515837.283414,14580
1659515837.324423,14603
1659515837.363381,14605
1659515837.40234,14593
1659515837.441298,14307
1659515837.483845,14048
1659515837.526392,14003
1659515837.564667,14033
1659515837.602942,14071
1659515837.641217,14113
1659515837.679833,14166
1659515837.71845,14164
1659515837.757067,14154
1659515837.798588,14159
1659515837.84011,14170
1659515837.879068,14178
1659515837.918027,14205
1659515837.956985,14232
1659515837.995944,14277
1659515838.034902,14325
1659515838.073861,14335
1659515838.115382,14325
1659515838.156904,14345
1659515838.195862,14384
1659515838.234821,14400
1659515838.273779,14171
1659515838.3153,13977
1659515838.356822,13894
1659515838.398856,13835
1659515838.44089,13814
1659515838.479849,13819
1659515838.518807,13868
1659515838.557766,13917
1659515838.602534,13928
1659515838.647302,13943
1659515838.69207,13952
1659515838.725389,13975
1659515838.758709,13990
1659515838.803477,14012
1659515838.848245,14033
1659515838.893013,14048
1659515838.925308,14071
1659515838.957603,14077
1659515839.002029,14077
1659515839.046455,14086
1659515839.090881,14126
1659515839.129498,14112
1659515839.168115,13915
1659515839.206732,13772
1659515839.248766,13707
1659515839.2908,13697
1659515839.329758,13701
1659515839.368717,13723
1659515839.407675,13772
1659515839.449709,13809
1659515839.491743,13835
1659515839.53036,13850
1659515839.568977,13882
1659515839.607594,13903
1659515839.646552,13943
1659515839.68551,13994
1659515839.724469,14045
1659515839.766503,14091
1659515839.808537,14117
1659515839.847154,14151
1659515839.885771,14195
1659515839.924387,14246
1659515839.964884,14288
1659515840.00538,14270
1659515840.043997,14007
1659515840.082613,13862
1659515840.12123,13843
1659515840.163264,13866
1659515840.205298,13911
1659515840.243231,13974
1659515840.281165,14036
1659515840.319098,14047
1659515840.363183,14054
1659515840.407267,14075
1659515840.451352,14105
1659515840.485184,14164
1659515840.519016,14197
1659515840.563101,14246
1659515840.607185,14284
1659515840.65127,14310
1659515840.693304,14338
1659515840.735338,14357
1659515840.774638,14379
1659515840.813939,14401
1659515840.853239,14419
1659515840.891514,14211
1659515840.929789,13963
1659515840.968064,13896
1659515841.009585,13889
1659515841.051107,13908
1659515841.090065,13940
1659515841.129024,13993
1659515841.167982,14020
1659515841.206599,14032
1659515841.245215,14017
1659515841.283832,14032
1659515841.325866,14072
1659515841.3679,14113
1659515841.406517,14148
1659515841.445134,14174
1659515841.483751,14202
1659515841.52476,14214
1659515841.565768,14248
1659515841.60541,14271
1659515841.645052,14289
1659515841.684694,14325
1659515841.726216,14287
1659515841.767737,14026
1659515841.806354,13866
1659515841.844971,13833
1659515841.883587,13811
1659515841.925622,13820
1659515841.967656,13855
1659515842.007298,13895
1659515842.04694,13913
1659515842.086581,13912
1659515842.129231,13930
1659515842.17188,13951
1659515842.214529,13990
1659515842.257179,14034
1659515842.299828,14062
1659515842.339128,14096
1659515842.378428,14123
1659515842.417728,14147
1659515842.458225,14150
1659515842.498721,14179
1659515842.538021,14191
1659515842.577321,14211
1659515842.616621,14128
1659515842.658656,13888
1659515842.70069,13770
1659515842.739306,13736
1659515842.777923,13723
1659515842.81654,13728
1659515842.855157,13759
1659515842.893773,13800
1659515842.93239,13829
1659515842.97169,13843
1659515843.01099,13859
1659515843.050291,13885
1659515843.091812,13915
1659515843.133334,13961
1659515843.17195,14007
1659515843.210567,14067
1659515843.249184,14106
1659515843.293268,14133
1659515843.337353,14172
1659515843.381438,14206
1659515843.413732,14251
1659515843.446027,14281
1659515843.489769,14291
1659515843.533512,14072
1659515843.577255,13850
1659515843.619802,13789
1659515843.662349,13796
1659515843.700624,13793
1659515843.738898,13803
1659515843.777173,13853
1659515843.816132,13871
1659515843.85509,13879
1659515843.894049,13905
1659515843.936083,13947
1659515843.978117,13990
1659515844.017075,14026
1659515844.056034,14061
1659515844.094992,14083
1659515844.136514,14132
1659515844.178035,14146
1659515844.217335,14151
1659515844.256636,14174
1659515844.295936,14203
1659515844.334894,14236
1659515844.373853,14264
1659515844.412811,14164
1659515844.453308,13897
1659515844.493804,13789
1659515844.533104,13758
1659515844.572404,13746
1659515844.611704,13772
1659515844.653738,13814
1659515844.695773,13881
1659515844.734048,13893
1659515844.772323,13899
1659515844.810598,13911
1659515844.852119,13957
1659515844.893641,14003
1659515844.933624,14046
1659515844.973608,14107
1659515845.013592,14151
1659515845.054857,14197
1659515845.096122,14230
1659515845.137387,14252
1659515845.178653,14281
1659515845.220687,14316
1659515845.262721,14351
1659515845.302363,14369
1659515845.342005,14239
1659515845.381647,13943
1659515845.422143,13870
1659515845.462639,13858
1659515845.501256,13869
1659515845.539873,13906
1659515845.578489,13970
1659515845.617448,14032
1659515845.656406,14046
1659515845.695365,14058
1659515845.736886,14072
1659515845.778408,14107
1659515845.818904,14153
1659515845.8594,14199
1659515845.899042,14250
1659515845.938684,14279
1659515845.978326,14307
1659515846.022411,14330
1659515846.066495,14341
1659515846.11058,14362
1659515846.144412,14389
1659515846.178244,14407
1659515846.222671,14403
1659515846.267097,14149
1659515846.311523,13924
1659515846.344331,13880
1659515846.377138,13867
1659515846.42088,13876
1659515846.464623,13913
1659515846.508366,13970
1659515846.547666,14006
1659515846.586967,14010
1659515846.626267,14019
1659515846.667788,14040
1659515846.70931,14083
1659515846.747585,14128
1659515846.78586,14165
1659515846.824135,14210
1659515846.863093,14237
1659515846.902051,14274
1659515846.94101,14301
1659515846.979285,14321
1659515847.01756,14350
1659515847.055835,14379
1659515847.098382,14395
1659515847.140928,14217
1659515847.182962,13955
1659515847.224997,13878
1659515847.263613,13859
1659515847.30223,13865
1659515847.340847,13881
1659515847.381563,13929
1659515847.422279,13975
1659515847.462995,13982
1659515847.503711,13973
1659515847.544427,14002
1659515847.585143,14032
1659515847.625859,14083
1659515847.664134,14119
1659515847.702409,14148
1659515847.740684,14186
1659515847.785452,14216
1659515847.83022,14249
1659515847.874988,14269
1659515847.913604,14307
1659515847.952221,14332
1659515847.990838,14239
1659515848.029454,13959
1659515848.068071,13843
1659515848.106688,13830
1659515848.149235,13821
1659515848.191781,13829
1659515848.23074,13871
1659515848.269698,13925
1659515848.308657,13943
1659515848.350178,13955
1659515848.3917,13962
1659515848.431,13989
1659515848.4703,14034
1659515848.5096,14071
1659515848.551635,14114
1659515848.593669,14158
1659515848.632285,14182
1659515848.670902,14212
1659515848.709519,14230
1659515848.750528,14260
1659515848.791537,14292
1659515848.830153,14317
1659515848.86877,14147
1659515848.907387,13901
1659515848.949421,13818
1659515848.991455,13800
1659515849.030072,13804
1659515849.068688,13822
1659515849.107305,13868
1659515849.151048,13909
1659515849.194791,13926
1659515849.238533,13926
1659515849.271853,13950
1659515849.305173,13987
1659515849.349257,14013
1659515849.393342,14061
1659515849.437427,14115
1659515849.476385,14152
1659515849.515344,14179
1659515849.554302,14206
1659515849.596336,14238
1659515849.63837,14273
1659515849.677944,14313
1659515849.717518,14352
1659515849.757091,14367
1659515849.796665,14162
1659515849.836238,13919
1659515849.878785,13866
1659515849.921332,13862
1659515849.959607,13879
1659515849.997882,13915
1659515850.036157,13997
1659515850.074773,14058
1659515850.11339,14076
1659515850.152007,14099
1659515850.193528,14123
1659515850.23505,14164
1659515850.272983,14196
1659515850.310916,14247
1659515850.34885,14289
1659515850.390884,14317
1659515850.432918,14320
1659515850.47256,14311
1659515850.512202,14309
1659515850.551844,14301
1659515850.590119,14350
1659515850.628393,14378
1659515850.666668,14278
1659515850.709215,13997
1659515850.751762,13874
1659515850.791062,13827
1659515850.830362,13809
1659515850.869663,13817
1659515850.910671,13836
1659515850.95168,13867
1659515850.996107,13884
1659515851.040533,13879
1659515851.084959,13904
1659515851.118279,13938
1659515851.151599,13988
1659515851.195683,14044
1659515851.239768,14078
1659515851.283852,14120
1659515851.317685,14145
1659515851.351517,14165
1659515851.396285,14185
1659515851.441053,14216
1659515851.485821,14237
1659515851.524096,14279
1659515851.562371,14301
1659515851.600646,14242
1659515851.641655,13965
1659515851.682664,13830
1659515851.722648,13811
1659515851.762631,13822
1659515851.802615,13854
1659515851.843624,13896
1659515851.884633,13964
1659515851.923591,13986
1659515851.96255,13976
1659515852.001508,13980
1659515852.040125,13983
1659515852.078742,13997
1659515852.117358,13999
1659515852.155633,14001
1659515852.193908,14002
1659515852.232183,14028
1659515852.276609,14060
1659515852.321036,14120
1659515852.365462,14190
1659515852.404079,14224
1659515852.442696,14255
1659515852.481312,14274
1659515852.522834,14097
1659515852.564355,13838
1659515852.603314,13728
1659515852.642272,13696
1659515852.681231,13695
1659515852.721009,13728
1659515852.760788,13771
1659515852.800567,13828
1659515852.840345,13872
1659515852.880124,13873
1659515852.919424,13895
1659515852.958724,13933
1659515852.998024,13981
1659515853.036983,14048
1659515853.075941,14121
1659515853.1149,14164
1659515853.155909,14132
1659515853.196918,14093
1659515853.237414,14094
1659515853.27791,14150
1659515853.31721,14203
1659515853.356511,14246
1659515853.395811,14297
1659515853.439895,14281
1659515853.48398,13993
1659515853.528064,13851
1659515853.560872,13842
1659515853.593679,13877
1659515853.638447,13911
1659515853.683215,13977
1659515853.727983,14036
1659515853.761815,14074
1659515853.795648,14089
1659515853.840074,14112
1659515853.8845,14153
1659515853.928926,14182
1659515853.968227,14193
1659515854.007527,14209
1659515854.046827,14232
1659515854.088349,14252
1659515854.12987,14300
1659515854.168828,14279
1659515854.207787,14241
1659515854.246745,14227
1659515854.289292,14223
1659515854.331839,14141
1659515854.370797,13929
1659515854.409756,13786
1659515854.448714,13684
1659515854.486989,13629
1659515854.525264,13592
1659515854.563539,13572
1659515854.604548,13601
1659515854.645557,13625
1659515854.684857,13673
1659515854.724157,13733
1659515854.763458,13784
1659515854.804979,13845
1659515854.846501,13882
1659515854.885117,13897
1659515854.923734,13918
1659515854.962351,13978
1659515855.004897,14028
1659515855.047444,14091
1659515855.085719,14172
1659515855.123994,14212
1659515855.162269,14252
1659515855.203791,14288
1659515855.245312,14297
1659515855.284954,14044
1659515855.324596,13818
1659515855.364238,13779
1659515855.407981,13794
1659515855.451724,13814
1659515855.495466,13833
1659515855.536475,13877
1659515855.577484,13888
1659515855.616101,13863
1659515855.654718,13847
1659515855.693334,13845
1659515855.731609,13874
1659515855.769884,13928
1659515855.808159,13995
1659515855.849681,14066
1659515855.891202,14109
1659515855.930844,14154
1659515855.970486,14194
1659515856.010128,14234
1659515856.051137,14247
1659515856.092146,14266
1659515856.130421,14234
1659515856.168696,13945
1659515856.206971,13784
1659515856.246954,13752
1659515856.286938,13779
1659515856.326922,13786
1659515856.368443,13828
1659515856.409965,13881
1659515856.44824,13918
1659515856.486515,13941
1659515856.52479,13959
1659515856.566568,13988
1659515856.608346,14026
1659515856.650123,14077
1659515856.691901,14114
1659515856.732397,14148
1659515856.772894,14157
1659515856.81151,14139
1659515856.850127,14115
1659515856.888744,14111
1659515856.927702,14134
1659515856.966661,14169
1659515857.005619,14045
1659515857.047141,13838
1659515857.088662,13761
1659515857.127962,13753
1659515857.167263,13770
1659515857.206563,13802
1659515857.248597,13853
1659515857.290631,13893
1659515857.329589,13901
1659515857.368548,13903
1659515857.407506,13933
1659515857.449028,13958
1659515857.490549,14002
1659515857.52985,14039
1659515857.56915,14083
1659515857.60845,14117
1659515857.649459,14135
1659515857.690468,14160
1659515857.734894,14175
1659515857.77932,14197
1659515857.823747,14212
1659515857.862363,14044
1659515857.90098,13799
1659515857.939597,13717
1659515857.976761,13676
1659515858.013926,13673
1659515858.05109,13688
1659515858.088254,13727
1659515858.133022,13769
1659515858.17779,13782
1659515858.222558,13777
1659515858.255878,13801
1659515858.289198,13824
1659515858.333624,13848
1659515858.37805,13870
1659515858.422477,13885
1659515858.463998,13900
1659515858.50552,13904
1659515858.544478,13919
1659515858.583436,13938
1659515858.622395,13975
1659515858.66067,13976
1659515858.698945,13870
1659515858.73722,13683
1659515858.779254,13553
1659515858.821288,13514
1659515858.861418,13519
1659515858.901548,13527
1659515858.941679,13549
1659515858.981809,13594
1659515859.021939,13590
1659515859.062069,13584
1659515859.102199,13603
1659515859.140987,13627
1659515859.179774,13657
1659515859.218562,13692
1659515859.257349,13732
1659515859.296137,13758
1659515859.334925,13798
1659515859.376446,13814
1659515859.417968,13841
1659515859.459489,13855
1659515859.501011,13856
1659515859.540311,13770
1659515859.579611,13571
1659515859.618911,13451
1659515859.657528,13403
1659515859.696145,13396
1659515859.734761,13400
1659515859.77372,13426
1659515859.812678,13472
1659515859.851637,13478
1659515859.893158,13484
1659515859.93468,13487
1659515859.978423,13500
1659515860.022166,13526
1659515860.065908,13532
1659515860.099741,13545
1659515860.133573,13554
1659515860.178341,13568
1659515860.223109,13582
1659515860.267877,13613
1659515860.300172,13651
1659515860.332466,13699
1659515860.376892,13706
1659515860.421319,13562
1659515860.465745,13388
1659515860.50009,13297
1659515860.534435,13273
1659515860.578861,13269
1659515860.623288,13294
1659515860.667714,13344
1659515860.706331,13379
1659515860.744947,13393
1659515860.783564,13382
1659515860.826111,13385
1659515860.868658,13411
1659515860.907274,13432
1659515860.945891,13469
1659515860.984508,13515
1659515861.023124,13540
1659515861.061741,13559
1659515861.100358,13580
1659515861.141879,13606
1659515861.183401,13657
1659515861.221676,13679
1659515861.259951,13604
1659515861.298226,13429
1659515861.34026,13315
1659515861.382294,13304
1659515861.421252,13323
1659515861.460211,13389
1659515861.499169,13471
1659515861.540691,13564
1659515861.582212,13608
1659515861.620829,13635
1659515861.659446,13705
1659515861.698062,13790
1659515861.740609,13890
1659515861.783156,13963
1659515861.821773,14025
1659515861.860389,14064
1659515861.899006,14109
1659515861.943091,14122
1659515861.987175,14149
1659515862.03126,14168
1659515862.072781,14166
1659515862.114303,13998
1659515862.15292,13657
1659515862.191536,13559
1659515862.230153,13542
1659515862.268428,13550
1659515862.306703,13576
1659515862.344978,13631
1659515862.387525,13657
1659515862.430071,13655
1659515862.468346,13655
1659515862.506621,13667
1659515862.544896,13683
1659515862.585905,13712
1659515862.626914,13723
1659515862.666214,13750
1659515862.705514,13766
1659515862.744815,13787
1659515862.783773,13803
1659515862.822731,13817
1659515862.86169,13829
1659515862.903724,13786
1659515862.945758,13615
1659515862.985059,13433
1659515863.024359,13350
1659515863.063659,13321
1659515863.104668,13327
1659515863.145677,13354
1659515863.18566,13397
1659515863.225644,13425
1659515863.265628,13424
1659515863.305611,13436
1659515863.345595,13454
1659515863.387116,13477
1659515863.428638,13525
1659515863.467597,13552
1659515863.506555,13575
1659515863.545513,13597
1659515863.587035,13621
1659515863.628556,13648
1659515863.667173,13681
1659515863.70579,13704
1659515863.744406,13660
1659515863.789175,13477
1659515863.833943,13301
1659515863.878711,13226
1659515863.91203,13219
1659515863.94535,13217
1659515863.990118,13243
1659515864.034886,13301
1659515864.079654,13333
1659515864.113999,13330
1659515864.148344,13354
1659515864.192429,13371
1659515864.236513,13401
1659515864.280598,13444
1659515864.319215,13473
1659515864.357831,13507
1659515864.396448,13524
1659515864.43797,13552
1659515864.479491,13572
1659515864.517766,13602
1659515864.556041,13637
1659515864.594316,13666
1659515864.63635,13563
1659515864.678384,13360
1659515864.717343,13245
1659515864.756301,13195
1659515864.79526,13189
1659515864.833535,13201
1659515864.871809,13261
1659515864.910084,13313
1659515864.951093,13326
1659515864.992102,13345
1659515865.031744,13369
1659515865.071386,13407
1659515865.111028,13454
1659515865.152037,13499
1659515865.193046,13546
1659515865.232004,13594
1659515865.270963,13629
1659515865.309921,13657
1659515865.351443,13700
1659515865.392964,13735
1659515865.431923,13787
1659515865.470881,13828
1659515865.50984,13709
1659515865.550336,13477
1659515865.590832,13374
1659515865.630132,13344
1659515865.669433,13374
1659515865.708733,13416
1659515865.752817,13493
1659515865.796902,13543
1659515865.840986,13547
1659515865.881995,13546
1659515865.923004,13566
1659515865.962988,13595
1659515866.002972,13641
1659515866.042955,13680
1659515866.081572,13700
1659515866.120189,13713
1659515866.158806,13729
1659515866.199815,13735
1659515866.240823,13755
1659515866.280465,13787
1659515866.320107,13807
1659515866.359749,13775
1659515866.401783,13572
1659515866.443817,13396
1659515866.482776,13321
1659515866.521734,13321
1659515866.560693,13328
1659515866.599309,13365
1659515866.637926,13415
1659515866.676543,13438
1659515866.717552,13432
1659515866.758561,13447
1659515866.796836,13462
1659515866.835111,13500
1659515866.873386,13532
1659515866.915932,13571
1659515866.958479,13600
1659515866.997096,13621
1659515867.035712,13632
1659515867.074329,13663
1659515867.115851,13693
1659515867.157372,13726
1659515867.196331,13759
1659515867.235289,13767
1659515867.274248,13569
1659515867.316794,13393
1659515867.359341,13296
1659515867.403426,13267
1659515867.44751,13281
1659515867.491595,13316
1659515867.524915,13362
1659515867.558234,13407
1659515867.602661,13422
1659515867.647087,13429
1659515867.691513,13457
1659515867.729788,13504
1659515867.768063,13550
1659515867.806338,13597
1659515867.84786,13651
1659515867.889381,13688
1659515867.928339,13727
1659515867.967298,13763
1659515868.006257,13799
1659515868.044531,13846
1659515868.082806,13895
1659515868.121081,13942
1659515868.162603,13922
1659515868.204124,13656
1659515868.242741,13465
1659515868.281358,13426
1659515868.319975,13426
1659515868.362009,13450
1659515868.404043,13515
1659515868.443821,13562
1659515868.4836,13569
1659515868.523379,13558
1659515868.563157,13576
1659515868.602936,13586
1659515868.641894,13632
1659515868.680853,13654
1659515868.719811,13686
1659515868.761333,13715
1659515868.802854,13743
1659515868.841471,13763
1659515868.880088,13776
1659515868.918705,13801
1659515868.960226,13827
1659515869.001748,13854
1659515869.040022,13861
1659515869.078297,13655
1659515869.116572,13474
1659515869.16134,13374
1659515869.206109,13358
1659515869.250877,13352
1659515869.285222,13374
1659515869.319566,13431
1659515869.363651,13470
1659515869.407736,13475
1659515869.45182,13465
1659515869.484627,13491
1659515869.517434,13520
1659515869.562886,13564
1659515869.608337,13593
1659515869.653789,13626
1659515869.695311,13666
1659515869.736832,13687
1659515869.775449,13702
1659515869.814065,13723
1659515869.852682,13754
1659515869.891982,13783
1659515869.931283,13829
1659515869.970583,13822
1659515870.008516,13617
1659515870.046449,13427
1659515870.084383,13334
1659515870.126417,13306
1659515870.168451,13304
1659515870.207751,13329
1659515870.247051,13384
1659515870.286351,13415
1659515870.32736,13426
1659515870.368369,13428
1659515870.407328,13454
1659515870.446286,13478
1659515870.485245,13532
1659515870.527791,13569
1659515870.570338,13597
1659515870.608955,13631
1659515870.647571,13662
1659515870.686188,13690
1659515870.730273,13716
1659515870.774357,13749
1659515870.818442,13785
1659515870.852274,13820
1659515870.886106,13862
1659515870.930191,13754
1659515870.974276,13514
1659515871.01836,13400
1659515871.056977,13350
1659515871.095594,13346
1659515871.13421,13372
1659515871.176244,13429
1659515871.218279,13477
1659515871.256553,13505
1659515871.294828,13516
1659515871.333103,13537
1659515871.371378,13583
1659515871.409653,13628
1659515871.447928,13685
1659515871.489963,13728
1659515871.531997,13776
1659515871.570613,13820
1659515871.60923,13869
1659515871.647847,13907
1659515871.687147,13930
1659515871.726447,13973
1659515871.765747,14003
1659515871.807781,14053
1659515871.849816,14060
1659515871.891337,13829
1659515871.932859,13580
1659515871.971133,13502
1659515872.009408,13496
1659515872.047683,13516
1659515872.09023,13550
1659515872.132777,13596
1659515872.171394,13642
1659515872.210011,13624
1659515872.248627,13615
1659515872.293053,13633
1659515872.33748,13670
1659515872.381906,13701
1659515872.414201,13733
1659515872.446495,13770
1659515872.491263,13795
1659515872.536031,13827
1659515872.580799,13844
1659515872.619758,13853
1659515872.658716,13889
1659515872.697675,13918
1659515872.739709,13955
1659515872.781743,13934
1659515872.820701,13681
1659515872.85966,13505
1659515872.898618,13434
1659515872.940652,13411
1659515872.982687,13407
1659515873.021987,13448
1659515873.061287,13494
1659515873.100587,13546
1659515873.142108,13564
1659515873.18363,13574
1659515873.222247,13604
1659515873.260864,13627
1659515873.29948,13659
1659515873.338097,13677
1659515873.376714,13710
1659515873.41533,13731
1659515873.457877,13750
1659515873.500424,13753
1659515873.539041,13765
1659515873.577657,13805
1659515873.616274,13841
1659515873.65677,13884
1659515873.697267,13892
1659515873.73766,13692
1659515873.778054,13517
1659515873.818448,13463
1659515873.858842,13446
1659515873.899235,13442
1659515873.94332,13469
1659515873.987405,13522
1659515874.031489,13547
1659515874.064296,13549
1659515874.097103,13561
1659515874.14153,13595
1659515874.185956,13641
1659515874.230382,13695
1659515874.268657,13739
1659515874.306932,13803
1659515874.345207,13837
1659515874.387241,13874
1659515874.429275,13894
1659515874.468234,13917
1659515874.507192,13956
1659515874.546151,14012
1659515874.586647,14052
1659515874.627143,14074
1659515874.66576,13894
1659515874.704377,13634
1659515874.742993,13573
1659515874.782294,13558
1659515874.821594,13587
1659515874.860894,13646
1659515874.902416,13725
1659515874.943937,13773
1659515874.982896,13775
1659515875.021854,13787
1659515875.060812,13807
1659515875.102847,13850
1659515875.144881,13891
1659515875.183156,13925
1659515875.221431,13965
1659515875.259706,14001
1659515875.298322,14027
1659515875.336939,14052
1659515875.375556,14082
1659515875.418103,14108
1659515875.460649,14131
1659515875.501658,14146
1659515875.542667,14015
1659515875.581284,13741
1659515875.6199,13620
1659515875.658517,13594
1659515875.703285,13600
1659515875.748053,13634
1659515875.792821,13693
1659515875.825629,13744
1659515875.858436,13754
1659515875.902862,13745
1659515875.947288,13749
1659515875.991714,13755
1659515876.025547,13767
1659515876.059379,13788
1659515876.104147,13787
1659515876.148915,13812
1659515876.193683,13827
1659515876.232642,13856
1659515876.2716,13889
1659515876.310559,13939
1659515876.353105,13981
1659515876.395652,14018
1659515876.433927,13931
1659515876.472202,13673
1659515876.510477,13532
1659515876.550973,13471
1659515876.59147,13441
1659515876.630428,13443
1659515876.669387,13456
1659515876.708345,13495
1659515876.747303,13521
1659515876.786262,13519
1659515876.82522,13535
1659515876.866229,13574
1659515876.907238,13629
1659515876.945855,13669
1659515876.984472,13723
1659515877.023088,13750
1659515877.06461,13786
1659515877.106131,13829
1659515877.14509,13866
1659515877.184048,13929
1659515877.223007,14006
1659515877.264528,14059
1659515877.30605,14105
1659515877.345008,14017
1659515877.383967,13725
1659515877.422925,13633
1659515877.467351,13625
1659515877.511778,13623
1659515877.556204,13613
1659515877.590036,13642
1659515877.623869,13654
1659515877.667953,13628
1659515877.712038,13624
1659515877.756122,13637
1659515877.796619,13662
1659515877.837115,13701
1659515877.875732,13735
1659515877.914348,13747
1659515877.952965,13762
1659515877.991582,13762
1659515878.030199,13782
1659515878.068815,13840
1659515878.107774,13909
1659515878.146732,13956
1659515878.185691,13818
1659515878.227212,13613
1659515878.268734,13526
1659515878.308034,13505
1659515878.347334,13494
1659515878.386634,13498
1659515878.428156,13529
1659515878.469677,13566
1659515878.508294,13586
1659515878.546911,13623
1659515878.585527,13662
1659515878.628074,13723
1659515878.670621,13757
1659515878.709579,13793
1659515878.748538,13823
1659515878.787496,13827
1659515878.828505,13819
1659515878.869514,13828
1659515878.908473,13851
1659515878.947431,13897
1659515878.986389,13975
1659515879.029654,13940
1659515879.072918,13705
1659515879.116183,13596
1659515879.159447,13552
1659515879.202711,13545
1659515879.242012,13552
1659515879.281312,13568
1659515879.320612,13608
1659515879.36039,13622
1659515879.400169,13620
1659515879.439948,13651
1659515879.479726,13717
1659515879.519505,13797
1659515879.558805,13882
1659515879.598105,13945
1659515879.637406,13994
1659515879.676706,14035
1659515879.716006,14056
1659515879.755306,14062
1659515879.794265,14063
1659515879.833223,14070
1659515879.872182,14070
1659515879.91319,13924
1659515879.954199,13689
1659515879.995208,13605
1659515880.036217,13591
1659515880.074834,13594
1659515880.113451,13631
1659515880.152067,13698
1659515880.196835,13761
1659515880.241603,13772
1659515880.286371,13761
1659515880.318666,13776
1659515880.35096,13802
1659515880.395045,13863
1659515880.43913,13928
1659515880.483214,13981
1659515880.517046,14027
1659515880.550879,14041
1659515880.595647,14059
1659515880.640415,14087
1659515880.685183,14107
1659515880.723458,14131
1659515880.761733,14139
1659515880.800008,13938
1659515880.842042,13710
1659515880.884076,13671
1659515880.922693,13666
1659515880.96131,13697
1659515880.999926,13777
1659515881.038201,13856
1659515881.076476,13902
1659515881.114751,13920
1659515881.156785,13931
1659515881.198819,13951
1659515881.237778,14011
1659515881.276736,14036
1659515881.315695,14054
1659515881.356191,14046
1659515881.396688,14037
1659515881.435988,14068
1659515881.475288,14122
1659515881.514588,14159
1659515881.557135,14202
1659515881.599681,14250
1659515881.639255,14149
1659515881.678829,13877
1659515881.718402,13788
1659515881.757976,13789
1659515881.797549,13849
1659515881.840096,13926
1659515881.882643,13980
1659515881.921601,13944
1659515881.96056,13759
1659515881.999518,13633
1659515882.040527,13490
1659515882.081536,13305
1659515882.120495,13112
1659515882.159453,12845
1659515882.198411,12523
1659515882.240446,12189
1659515882.28248,11899
1659515882.321096,11631
1659515882.359713,11359
1659515882.39833,11077
1659515882.439339,10760
1659515882.480348,10296
1659515882.519648,9555
1659515882.558948,8759
1659515882.598248,8120
1659515882.642674,7661
1659515882.687101,7329
1659515882.731527,7019
1659515882.765359,6764
1659515882.799192,6530
1659515882.84396,6338
1659515882.888728,6176
1659515882.933496,6038
1659515882.974505,5968
1659515883.015514,5924
1659515883.054131,5961
1659515883.092747,6012
1659515883.131364,6055
1659515883.169981,6078
1659515883.208597,6161
1659515883.247214,6208
1659515883.289248,6220
1659515883.331282,6112
1659515883.369899,5954
1659515883.408516,5886
1659515883.447132,5966
1659515883.487629,6110
1659515883.528125,6287
1659515883.567083,6522
1659515883.606042,6697
1659515883.645,6863
1659515883.683275,6972
1659515883.72155,6923
1659515883.759825,7029
1659515883.802372,7250
1659515883.844919,7442
1659515883.883877,7656
1659515883.922836,7926
1659515883.961794,8687
1659515884.002803,6927
