LocalTimestamp,PG
1659515908.631723,7025
1659515908.669656,7644
1659515908.712203,8061
1659515908.75475,8355
1659515908.793366,8649
1659515908.831983,8911
1659515908.8706,9125
1659515908.911096,9199
1659515908.951592,9216
1659515908.995677,9270
1659515909.039762,9251
1659515909.083846,9154
1659515909.117678,9030
1659515909.151511,8858
1659515909.195937,8653
1659515909.240363,8521
1659515909.28479,8452
1659515909.318109,8393
1659515909.351429,8370
1659515909.396539,8369
1659515909.441649,8368
1659515909.486758,8365
1659515909.525375,8380
1659515909.563992,8429
1659515909.602609,8479
1659515909.64413,8516
1659515909.685652,8571
1659515909.724952,8640
1659515909.764252,8732
1659515909.803552,8827
1659515909.841827,8896
1659515909.880102,8979
1659515909.918377,9062
1659515909.957335,9087
1659515909.996294,9067
1659515910.035253,9042
1659515910.076774,9015
1659515910.118295,8969
1659515910.157596,8913
1659515910.196896,8867
1659515910.236196,8835
1659515910.276692,8822
1659515910.317189,8801
1659515910.356489,8779
1659515910.395789,8743
1659515910.435089,8738
1659515910.476611,8714
1659515910.518132,8712
1659515910.558321,8701
1659515910.59851,8707
1659515910.638698,8710
1659515910.678887,8724
1659515910.719076,8781
1659515910.760597,8878
1659515910.802119,8961
1659515910.840394,9009
1659515910.878669,9056
1659515910.916944,9100
1659515910.96137,9167
1659515911.005796,9242
1659515911.050223,9299
1659515911.089181,9353
1659515911.12814,9377
1659515911.167098,9381
1659515911.208107,9400
1659515911.249116,9438
1659515911.287733,9498
1659515911.326349,9573
1659515911.364966,9656
1659515911.403924,9733
1659515911.442883,9826
1659515911.481841,9903
1659515911.523363,9976
1659515911.564884,10037
1659515911.603843,10091
1659515911.642801,10156
1659515911.68176,10217
1659515911.723281,10268
1659515911.764803,10275
1659515911.803761,10257
1659515911.84272,10216
1659515911.881678,10188
1659515911.9232,10171
1659515911.964721,10160
1659515912.00368,10173
1659515912.042638,10179
1659515912.081597,10200
1659515912.122606,10211
1659515912.163614,10254
1659515912.201548,10280
1659515912.239481,10301
1659515912.277414,10339
1659515912.32184,10366
1659515912.366267,10400
1659515912.410693,10413
1659515912.444525,10433
1659515912.478358,10445
1659515912.522442,10476
1659515912.566527,10481
1659515912.610611,10493
1659515912.650253,10501
1659515912.689895,10449
1659515912.729537,10380
1659515912.771059,10310
1659515912.81258,10262
1659515912.851197,10238
1659515912.889814,10216
1659515912.92843,10211
1659515912.970977,10195
1659515913.013524,10181
1659515913.052482,10155
1659515913.091441,10208
1659515913.130399,10248
1659515913.168332,10294
1659515913.206266,10347
1659515913.244199,10403
1659515913.286233,10472
1659515913.328267,10570
1659515913.366884,10685
1659515913.405501,10862
1659515913.444117,11096
1659515913.485639,11339
1659515913.52716,11574
1659515913.566119,11794
1659515913.605077,11982
1659515913.644036,12148
1659515913.68607,12324
1659515913.728104,12455
1659515913.766379,12592
1659515913.804654,12708
1659515913.842929,12787
1659515913.885476,12841
1659515913.928022,12884
1659515913.966981,13050
1659515914.005939,13452
1659515914.044898,13902
1659515914.088982,14151
1659515914.133067,14443
1659515914.177151,15103
1659515914.21816,15278
1659515914.259169,15103
1659515914.298469,14904
1659515914.33777,14756
1659515914.37707,14495
1659515914.418591,14159
1659515914.460113,14075
1659515914.498729,14068
1659515914.537346,14073
1659515914.575963,14048
1659515914.61458,14050
1659515914.653196,14088
1659515914.691813,14119
1659515914.732822,14080
1659515914.773831,14090
1659515914.812789,14047
1659515914.851748,13960
1659515914.890706,13867
1659515914.932228,13680
1659515914.973749,13453
1659515915.012366,13281
1659515915.050983,13163
1659515915.089599,13021
1659515915.128558,12863
1659515915.167516,12723
1659515915.206475,12613
1659515915.249022,12569
1659515915.291568,12560
1659515915.330185,12598
1659515915.368802,12621
1659515915.407418,12590
1659515915.447915,12461
1659515915.488411,12276
1659515915.530445,12151
1659515915.572479,12046
1659515915.614513,11960
1659515915.656547,11898
1659515915.694822,11894
1659515915.733097,11872
1659515915.771372,11849
1659515915.811561,11848
1659515915.85175,11846
1659515915.891938,11893
1659515915.932127,11983
1659515915.972316,12046
1659515916.011616,12115
1659515916.050916,12189
1659515916.090216,12265
1659515916.131738,12333
1659515916.173259,12404
1659515916.21256,12456
1659515916.25186,12468
1659515916.29116,12377
1659515916.335245,12123
1659515916.379329,11831
1659515916.423414,11588
1659515916.464423,11407
1659515916.505432,11236
1659515916.544732,11130
1659515916.584032,11086
1659515916.623332,11058
1659515916.664341,11078
1659515916.70535,11138
1659515916.743967,11216
1659515916.782583,11302
1659515916.8212,11378
1659515916.860159,11458
1659515916.899117,11534
1659515916.938076,11615
1659515916.98011,11701
1659515917.022144,11775
1659515917.061102,11855
1659515917.100061,11948
1659515917.139019,11972
1659515917.180541,11862
1659515917.222062,11666
1659515917.261362,11505
1659515917.300663,11408
1659515917.339963,11345
1659515917.378238,11321
1659515917.416513,11320
1659515917.454788,11319
1659515917.497334,11317
1659515917.539881,11312
1659515917.578498,11353
1659515917.617115,11371
1659515917.655731,11415
1659515917.696228,11455
1659515917.736724,11492
1659515917.775341,11534
1659515917.813957,11577
1659515917.852574,11640
1659515917.895121,11690
1659515917.937667,11748
1659515917.98141,11791
1659515918.025153,11762
1659515918.068896,11600
1659515918.107854,11394
1659515918.146813,11258
1659515918.185771,11161
1659515918.227805,11083
1659515918.26984,11064
1659515918.308115,11073
1659515918.34639,11082
1659515918.384665,11070
1659515918.423965,11078
1659515918.463265,11102
1659515918.502565,11156
1659515918.545112,11197
1659515918.587658,11246
1659515918.625592,11310
1659515918.663525,11359
1659515918.701458,11421
1659515918.740417,11479
1659515918.779375,11545
1659515918.818334,11619
1659515918.859343,11693
1659515918.900351,11741
1659515918.93931,11684
1659515918.978268,11536
1659515919.017227,11369
1659515919.058748,11277
1659515919.10027,11207
1659515919.13957,11183
1659515919.17887,11181
1659515919.21817,11209
1659515919.259179,11204
1659515919.300188,11221
1659515919.344615,11255
1659515919.389041,11307
1659515919.433467,11360
1659515919.473451,11421
1659515919.513434,11477
1659515919.553418,11535
1659515919.59494,11601
1659515919.636461,11657
1659515919.675078,11717
1659515919.713695,11793
1659515919.752311,11867
1659515919.793833,11938
1659515919.835354,11981
1659515919.874313,11934
1659515919.913271,11786
1659515919.95223,11639
1659515919.990846,11540
1659515920.029463,11474
1659515920.06808,11458
1659515920.109601,11492
1659515920.151123,11527
1659515920.189398,11544
1659515920.227673,11572
1659515920.265948,11607
1659515920.304906,11655
1659515920.343865,11725
1659515920.382823,11792
1659515920.42537,11860
1659515920.467916,11924
1659515920.506533,11986
1659515920.54515,12056
1659515920.583767,12106
1659515920.624776,12156
1659515920.665785,12198
1659515920.704401,12246
1659515920.743018,12303
1659515920.781635,12311
1659515920.823669,12203
1659515920.865703,12006
1659515920.909787,11836
1659515920.953872,11713
1659515920.997957,11604
1659515921.036573,11551
1659515921.07519,11555
1659515921.113807,11592
1659515921.152423,11600
1659515921.19104,11610
1659515921.229657,11654
1659515921.267932,11714
1659515921.306207,11789
1659515921.344482,11875
1659515921.383782,11975
1659515921.423082,12075
1659515921.462382,12180
1659515921.504416,12254
1659515921.546451,12315
1659515921.58746,12373
1659515921.628469,12415
1659515921.667427,12461
1659515921.706385,12513
1659515921.745344,12512
1659515921.790112,12378
1659515921.83488,12181
1659515921.879648,12020
1659515921.912968,11907
1659515921.946287,11839
1659515921.990714,11809
1659515922.03514,11830
1659515922.079566,11813
1659515922.112886,11772
1659515922.146206,11746
1659515922.189949,11761
1659515922.233691,11797
1659515922.277434,11824
1659515922.316051,11872
1659515922.354668,11926
1659515922.393284,11979
1659515922.435831,12017
1659515922.478378,12072
1659515922.516994,12121
1659515922.555611,12161
1659515922.594228,12211
1659515922.63575,12252
1659515922.677271,12273
1659515922.716913,12155
1659515922.756555,11954
1659515922.796197,11775
1659515922.834472,11680
1659515922.872747,11628
1659515922.911022,11591
1659515922.953056,11597
1659515922.99509,11603
1659515923.03439,11606
1659515923.07369,11606
1659515923.112991,11626
1659515923.153487,11678
1659515923.193983,11723
1659515923.2326,11784
1659515923.271217,11847
1659515923.309833,11903
1659515923.354601,11965
1659515923.399369,12020
1659515923.444137,12077
1659515923.476944,12131
1659515923.509752,12204
1659515923.553494,12260
1659515923.597237,12336
1659515923.64098,12379
1659515923.680622,12296
1659515923.720264,12104
1659515923.759906,11906
1659515923.800915,11788
1659515923.841924,11699
1659515923.880882,11652
1659515923.919841,11656
1659515923.958799,11674
1659515924.000833,11680
1659515924.042867,11665
1659515924.081142,11682
1659515924.119417,11715
1659515924.157692,11767
1659515924.195967,11821
1659515924.234242,11869
1659515924.272517,11918
1659515924.314039,11965
1659515924.35556,12018
1659515924.394519,12067
1659515924.433477,12119
1659515924.472436,12173
1659515924.511052,12223
1659515924.549669,12292
1659515924.588286,12332
1659515924.629807,12304
1659515924.671329,12101
1659515924.71285,11887
1659515924.754372,11763
1659515924.79333,11691
1659515924.832289,11652
1659515924.871247,11656
1659515924.913281,11663
1659515924.955315,11640
1659515924.994274,11649
1659515925.033232,11652
1659515925.072191,11682
1659515925.116959,11730
1659515925.161727,11774
1659515925.206495,11835
1659515925.239815,11891
1659515925.273134,11944
1659515925.317902,11999
1659515925.36267,12062
1659515925.407439,12121
1659515925.445714,12179
1659515925.483989,12252
1659515925.522264,12309
1659515925.563785,12367
1659515925.605306,12367
1659515925.643923,12201
1659515925.68254,11945
1659515925.721157,11755
1659515925.763191,11643
1659515925.805225,11549
1659515925.844183,11502
1659515925.883142,11484
1659515925.9221,11462
1659515925.961742,11401
1659515926.001384,11361
1659515926.041026,11364
1659515926.082035,11366
1659515926.123044,11399
1659515926.162002,11406
1659515926.200961,11447
1659515926.239919,11478
1659515926.280108,11531
1659515926.320297,11560
1659515926.360485,11590
1659515926.400674,11639
1659515926.440863,11691
1659515926.482128,11761
1659515926.523393,11828
1659515926.564658,11877
1659515926.605924,11792
1659515926.646933,11584
1659515926.687941,11413
1659515926.726558,11326
1659515926.765175,11288
1659515926.803792,11257
1659515926.8448,11257
1659515926.885809,11259
1659515926.92511,11234
1659515926.96441,11227
1659515927.00371,11238
1659515927.042327,11267
1659515927.080943,11302
1659515927.11956,11342
1659515927.160569,11388
1659515927.201578,11425
1659515927.24122,11490
1659515927.280862,11539
1659515927.320504,11583
1659515927.362025,11648
1659515927.403547,11705
1659515927.442163,11737
1659515927.48078,11630
1659515927.519397,11395
1659515927.561431,11190
1659515927.603465,11109
1659515927.64755,11058
1659515927.691634,11036
1659515927.735719,11052
1659515927.773994,11067
1659515927.812269,11066
1659515927.850544,11077
1659515927.89309,11110
1659515927.935637,11153
1659515927.974254,11213
1659515928.012871,11272
1659515928.051487,11323
1659515928.090104,11382
1659515928.128721,11425
1659515928.167337,11453
1659515928.209884,11473
1659515928.252431,11495
1659515928.291048,11547
1659515928.329664,11610
1659515928.368281,11613
1659515928.409803,11439
1659515928.451324,11153
1659515928.490966,10929
1659515928.530608,10850
1659515928.57025,10797
1659515928.611259,10806
1659515928.652268,10886
1659515928.690884,10936
1659515928.729501,10965
1659515928.768118,10990
1659515928.807076,11021
1659515928.846035,11062
1659515928.884993,11101
1659515928.92754,11138
1659515928.970087,11159
1659515929.008362,11185
1659515929.046637,11203
1659515929.084912,11242
1659515929.126946,11304
1659515929.16898,11378
1659515929.213748,11455
1659515929.258516,11557
1659515929.303284,11664
1659515929.336604,11718
1659515929.369923,11613
1659515929.41435,11381
1659515929.458776,11207
1659515929.503202,11126
1659515929.536522,11052
1659515929.569842,11029
1659515929.613585,11048
1659515929.657327,11038
1659515929.70107,10993
1659515929.739687,10952
1659515929.778304,10944
1659515929.816921,10948
1659515929.858955,10972
1659515929.900989,11011
1659515929.938922,11050
1659515929.976855,11096
1659515930.014788,11149
1659515930.053405,11205
1659515930.092022,11251
1659515930.130639,11293
1659515930.17216,11351
1659515930.213681,11419
1659515930.25264,11459
1659515930.291599,11426
1659515930.330557,11237
1659515930.372078,10970
1659515930.4136,10794
1659515930.452217,10653
1659515930.490833,10539
1659515930.52945,10488
1659515930.571484,10482
1659515930.613518,10469
1659515930.652477,10441
1659515930.691435,10450
1659515930.730394,10475
1659515930.771915,10515
1659515930.813437,10561
1659515930.852395,10598
1659515930.891354,10660
1659515930.930312,10715
1659515930.973713,10778
1659515931.017114,10844
1659515931.060515,10914
1659515931.094348,10984
1659515931.12818,11060
1659515931.172606,11143
1659515931.217033,11214
1659515931.261459,11310
1659515931.300076,11389
1659515931.338692,11394
1659515931.377309,11252
1659515931.419343,11044
1659515931.461377,10926
1659515931.500336,10861
1659515931.539294,10821
1659515931.578253,10824
1659515931.617211,10866
1659515931.65617,10895
1659515931.695128,10912
1659515931.734428,10960
1659515931.773728,11002
1659515931.813029,11063
1659515931.855575,11149
1659515931.898122,11213
1659515931.936055,11269
1659515931.973989,11336
1659515932.011922,11402
1659515932.053443,11465
1659515932.094965,11530
1659515932.139391,11595
1659515932.183817,11660
1659515932.228244,11734
1659515932.261564,11799
1659515932.294883,11840
1659515932.338968,11745
1659515932.383052,11550
1659515932.427137,11391
1659515932.460969,11302
1659515932.494802,11229
1659515932.538886,11198
1659515932.582971,11218
1659515932.627055,11241
1659515932.665672,11268
1659515932.704289,11310
1659515932.742905,11386
1659515932.785965,11498
1659515932.829024,11621
1659515932.867641,11743
1659515932.906258,11879
1659515932.944874,11978
1659515932.985371,12077
1659515933.025867,12170
1659515933.065167,12232
1659515933.104467,12287
1659515933.143767,12352
1659515933.182384,12395
1659515933.221001,12442
1659515933.259618,12493
1659515933.300627,12509
1659515933.341635,12376
1659515933.380252,12167
1659515933.418869,12012
1659515933.457485,11954
1659515933.498494,11932
1659515933.539503,11922
1659515933.578462,11945
1659515933.61742,11962
1659515933.656379,11977
1659515933.701488,11973
1659515933.746598,12000
1659515933.791708,12032
1659515933.824003,12085
1659515933.856297,12153
1659515933.900382,12210
1659515933.944466,12281
1659515933.988551,12315
1659515934.022896,12357
1659515934.057241,12388
1659515934.101667,12416
1659515934.146093,12432
1659515934.19052,12464
1659515934.229136,12502
1659515934.267753,12543
1659515934.30637,12496
1659515934.347891,12286
1659515934.389413,12025
1659515934.42803,11845
1659515934.466646,11728
1659515934.505263,11671
1659515934.547297,11664
1659515934.589331,11673
1659515934.62829,11672
1659515934.667248,11690
1659515934.706207,11743
1659515934.745165,11817
1659515934.784123,11924
1659515934.823082,12006
1659515934.864603,12080
1659515934.906125,12128
1659515934.945425,12173
1659515934.984725,12194
1659515935.024025,12225
1659515935.06606,12282
1659515935.108094,12342
1659515935.147052,12420
1659515935.186011,12450
1659515935.224969,12335
1659515935.265978,12127
1659515935.306987,11970
1659515935.345945,11897
1659515935.384904,11864
1659515935.423862,11842
1659515935.467947,11819
1659515935.512031,11786
1659515935.556116,11732
1659515935.589948,11699
1659515935.623781,11714
1659515935.667865,11753
1659515935.71195,11805
1659515935.756034,11880
1659515935.797043,11938
1659515935.838052,12024
1659515935.877011,12114
1659515935.915969,12212
1659515935.954927,12298
1659515935.993886,12380
1659515936.032844,12438
1659515936.071803,12415
1659515936.113837,12240
1659515936.155871,12017
1659515936.194829,11873
1659515936.233788,11771
1659515936.272747,11692
1659515936.313243,11676
1659515936.353739,11703
1659515936.392698,11708
1659515936.431656,11703
1659515936.470614,11708
1659515936.509231,11719
1659515936.547848,11767
1659515936.586465,11781
1659515936.627986,11776
1659515936.669508,11783
1659515936.708124,11778
1659515936.746741,11776
1659515936.785358,11803
1659515936.825341,11856
1659515936.865325,11912
1659515936.905309,12001
1659515936.945292,12068
1659515936.985276,12022
1659515937.02731,11890
1659515937.069344,11792
1659515937.107619,11757
1659515937.145894,11742
1659515937.184169,11773
1659515937.226716,11840
1659515937.269263,11901
1659515937.314031,11945
1659515937.358799,12002
1659515937.403567,12093
1659515937.436374,12172
1659515937.469181,12270
1659515937.513266,12343
1659515937.55735,12423
1659515937.601435,12504
1659515937.634755,12586
1659515937.668074,12656
1659515937.712159,12713
1659515937.756243,12791
1659515937.800328,12856
1659515937.839628,12928
1659515937.878928,12945
1659515937.918229,12839
1659515937.960263,12687
1659515938.002297,12582
1659515938.040914,12535
1659515938.07953,12500
1659515938.118147,12509
1659515938.157105,12525
1659515938.196064,12521
1659515938.235022,12520
1659515938.277569,12536
1659515938.320116,12573
1659515938.358732,12606
1659515938.397349,12667
1659515938.435966,12728
1659515938.478,12771
1659515938.520034,12817
1659515938.558651,12864
1659515938.597268,12928
1659515938.635884,12987
1659515938.674159,13036
1659515938.712434,13091
1659515938.750709,13106
1659515938.792743,13041
1659515938.834778,12829
1659515938.876299,12611
1659515938.91782,12484
1659515938.956095,12391
1659515938.99437,12334
1659515939.032645,12332
1659515939.077072,12343
1659515939.121498,12331
1659515939.165924,12323
1659515939.199757,12311
1659515939.233589,12336
1659515939.278015,12376
1659515939.322442,12412
1659515939.366868,12453
1659515939.405485,12492
1659515939.444101,12539
1659515939.482718,12584
1659515939.524752,12647
1659515939.566786,12696
1659515939.605061,12749
1659515939.643336,12812
1659515939.681611,12866
1659515939.723645,12900
1659515939.76568,12816
1659515939.803954,12650
1659515939.842229,12515
1659515939.880504,12471
1659515939.918779,12427
1659515939.957054,12414
1659515939.995329,12443
1659515940.036338,12456
1659515940.077347,12473
1659515940.115964,12483
1659515940.154581,12517
1659515940.193197,12573
1659515940.235231,12616
1659515940.277266,12665
1659515940.316566,12709
1659515940.355866,12754
1659515940.395166,12787
1659515940.436175,12844
1659515940.477184,12873
1659515940.516826,12906
1659515940.556468,12956
1659515940.59611,13003
1659515940.638144,13043
1659515940.680178,12980
1659515940.718795,12817
1659515940.757411,12681
1659515940.796028,12646
1659515940.840454,12619
1659515940.884881,12618
1659515940.929307,12628
1659515940.970829,12625
1659515941.01235,12607
1659515941.050625,12592
1659515941.0889,12606
1659515941.127175,12633
1659515941.169722,12668
1659515941.212268,12700
1659515941.250885,12737
1659515941.289502,12784
1659515941.328119,12826
1659515941.367077,12876
1659515941.406035,12926
1659515941.444994,12967
1659515941.486516,13033
1659515941.528037,13095
1659515941.567337,13147
1659515941.606637,13108
1659515941.645937,12957
1659515941.684212,12769
1659515941.722487,12668
1659515941.760762,12599
1659515941.803309,12532
1659515941.845856,12511
1659515941.884131,12515
1659515941.922406,12505
1659515941.960681,12502
1659515942.002202,12489
1659515942.043724,12511
1659515942.083708,12563
1659515942.123691,12612
1659515942.163675,12650
1659515942.203659,12713
1659515942.243642,12764
1659515942.281575,12817
1659515942.319509,12882
1659515942.357442,12926
1659515942.399989,12979
1659515942.442535,13027
1659515942.487303,13085
1659515942.532072,13115
1659515942.57684,13013
1659515942.615114,12823
1659515942.653389,12648
1659515942.691664,12576
1659515942.732673,12518
1659515942.773682,12489
1659515942.813324,12495
1659515942.852966,12480
1659515942.892608,12447
1659515942.930541,12420
1659515942.968475,12428
1659515943.006408,12447
1659515943.048954,12488
1659515943.091501,12517
1659515943.130118,12558
1659515943.168735,12606
1659515943.207351,12651
1659515943.245285,12689
1659515943.283218,12725
1659515943.321151,12770
1659515943.362673,12809
1659515943.404194,12869
1659515943.443153,12881
1659515943.482111,12760
1659515943.52107,12533
1659515943.562591,12344
1659515943.604112,12258
1659515943.643413,12188
1659515943.682713,12169
1659515943.722013,12163
1659515943.764047,12166
1659515943.806081,12163
1659515943.84504,12157
1659515943.883998,12197
1659515943.922957,12239
1659515943.964478,12303
1659515944.006,12342
1659515944.05111,12377
1659515944.096219,12403
1659515944.141329,12410
1659515944.179604,12395
1659515944.217879,12377
1659515944.256154,12373
1659515944.297676,12367
1659515944.339197,12392
1659515944.377814,12305
1659515944.41643,12046
1659515944.455047,11728
1659515944.497594,11492
1659515944.540141,11343
1659515944.578416,11230
1659515944.616691,11171
1659515944.654966,11130
1659515944.694266,11081
1659515944.733566,11030
1659515944.772866,11010
1659515944.814388,11064
1659515944.855909,11152
1659515944.895209,11251
1659515944.93451,11353
1659515944.97381,11457
1659515945.015331,11565
1659515945.056853,11665
1659515945.096153,11749
1659515945.135453,11830
1659515945.174753,11903
1659515945.213028,11952
1659515945.251303,11963
1659515945.289578,11787
1659515945.331612,11480
1659515945.373646,11239
1659515945.414655,11094
1659515945.455664,10990
1659515945.494281,10944
1659515945.532898,10915
1659515945.571514,10867
1659515945.615257,10800
1659515945.659,10764
1659515945.702743,10758
1659515945.736575,10793
1659515945.770408,10836
1659515945.814492,10883
1659515945.858577,10937
1659515945.902661,10979
1659515945.94162,11015
1659515945.980578,11068
1659515946.019537,11114
1659515946.061058,11158
1659515946.10258,11154
1659515946.14188,10972
1659515946.18118,10665
1659515946.22048,10459
1659515946.262002,10319
1659515946.303523,10227
1659515946.343165,10187
1659515946.382807,10178
1659515946.422449,10163
1659515946.460724,10124
1659515946.498999,10124
1659515946.537274,10153
1659515946.578283,10234
1659515946.619292,10288
1659515946.658592,10342
1659515946.697892,10399
1659515946.737192,10459
1659515946.779227,10528
1659515946.821261,10605
1659515946.859194,10707
1659515946.897127,10802
1659515946.93506,10909
1659515946.977607,10992
1659515947.020154,11004
1659515947.059112,10963
1659515947.098071,10922
1659515947.137029,10947
1659515947.178551,10949
1659515947.220072,10960
1659515947.259372,11016
1659515947.298673,11099
1659515947.337973,11171
1659515947.377546,11258
1659515947.41712,11352
1659515947.456694,11428
1659515947.496267,11505
1659515947.535841,11566
1659515947.580609,11618
1659515947.625377,11686
1659515947.670145,11733
1659515947.712692,11795
1659515947.755238,11867
1659515947.793172,11969
1659515947.831105,12065
1659515947.869038,12147
1659515947.907996,12151
1659515947.946955,12072
1659515947.985914,11980
1659515948.027948,11936
1659515948.069982,11930
1659515948.108257,11932
1659515948.146532,11942
1659515948.184807,11956
1659515948.227353,11970
1659515948.2699,11993
1659515948.308858,12024
1659515948.347817,12079
1659515948.386775,12129
1659515948.425392,12174
1659515948.464009,12229
1659515948.502625,12269
1659515948.543122,12333
1659515948.583618,12381
1659515948.62326,12435
1659515948.662902,12485
1659515948.702544,12546
1659515948.74304,12593
1659515948.783536,12576
1659515948.822153,12490
1659515948.86077,12367
1659515948.899387,12304
1659515948.940396,12249
1659515948.981405,12229
1659515949.020363,12238
1659515949.059321,12270
1659515949.09828,12276
1659515949.142365,12287
1659515949.186449,12306
1659515949.230534,12332
1659515949.272568,12376
1659515949.314602,12418
1659515949.353219,12461
1659515949.391835,12496
1659515949.430452,12548
1659515949.46941,12603
1659515949.508369,12667
1659515949.547327,12748
1659515949.585944,12816
1659515949.624561,12890
1659515949.663177,12961
1659515949.705724,12975
1659515949.748271,12868
1659515949.786546,12708
1659515949.824821,12602
1659515949.863096,12531
1659515949.904617,12474
1659515949.946139,12465
1659515949.985097,12456
1659515950.024056,12460
1659515950.063014,12443
1659515950.104536,12453
1659515950.146057,12465
1659515950.184674,12504
1659515950.223291,12555
1659515950.261907,12605
1659515950.306675,12662
1659515950.351444,12711
1659515950.396211,12755
1659515950.429531,12781
1659515950.462851,12812
1659515950.507619,12839
1659515950.552387,12873
1659515950.597155,12923
1659515950.636114,12943
1659515950.675072,12858
1659515950.714031,12635
1659515950.756065,12461
1659515950.798099,12339
1659515950.836715,12283
1659515950.875332,12254
1659515950.913949,12232
1659515950.95547,12205
1659515950.996992,12153
1659515951.035267,12115
1659515951.073542,12089
1659515951.111817,12096
1659515951.151117,12115
1659515951.190417,12142
1659515951.229717,12161
1659515951.271751,12197
1659515951.313786,12224
1659515951.355051,12283
1659515951.396316,12340
1659515951.437581,12399
1659515951.478847,12468
1659515951.520368,12540
1659515951.561889,12598
1659515951.60119,12526
1659515951.64049,12280
1659515951.67979,12031
1659515951.721312,11891
1659515951.762833,11797
1659515951.80145,11709
1659515951.840066,11659
1659515951.878683,11608
1659515951.917642,11518
1659515951.9566,11436
1659515951.995559,11402
1659515952.036055,11399
1659515952.076551,11439
1659515952.115168,11485
1659515952.153785,11534
1659515952.192401,11607
1659515952.231018,11704
1659515952.269635,11828
1659515952.308251,11926
1659515952.349773,11994
1659515952.391294,12014
1659515952.430595,12048
1659515952.469895,12091
1659515952.509195,12035
1659515952.550717,11761
1659515952.592238,11463
1659515952.632427,11318
1659515952.672616,11258
1659515952.712804,11235
1659515952.752993,11226
1659515952.793182,11257
1659515952.838291,11262
1659515952.883401,11252
1659515952.928511,11237
1659515952.960293,11259
1659515952.992075,11286
1659515953.03616,11305
1659515953.080244,11350
1659515953.124329,11389
1659515953.163287,11429
1659515953.202245,11498
1659515953.241204,11566
1659515953.283238,11645
1659515953.325272,11725
1659515953.363889,11796
1659515953.402506,11751
1659515953.441122,11510
1659515953.482644,11228
1659515953.524165,11066
1659515953.563124,10990
1659515953.602082,10935
1659515953.641041,10942
1659515953.680341,10929
1659515953.719641,10920
1659515953.758941,10913
1659515953.798241,10930
1659515953.837542,10974
1659515953.876842,11036
1659515953.918363,11103
1659515953.959885,11167
1659515953.998843,11243
1659515954.037802,11308
1659515954.07676,11375
1659515954.119307,11450
1659515954.161854,11523
1659515954.20047,11595
1659515954.239087,11661
1659515954.277704,11640
1659515954.3182,11408
1659515954.358696,11132
1659515954.403123,10978
1659515954.447549,10910
1659515954.491975,10868
1659515954.525295,10877
1659515954.558615,10928
1659515954.602699,10982
1659515954.646784,10994
1659515954.690869,11012
1659515954.729827,11026
1659515954.768785,11058
1659515954.807744,11107
1659515954.848753,11149
1659515954.889762,11190
1659515954.928378,11237
1659515954.966995,11322
1659515955.005612,11365
1659515955.047646,11425
1659515955.08968,11500
1659515955.128639,11575
1659515955.167597,11650
1659515955.206555,11659
1659515955.245172,11454
1659515955.283789,11155
1659515955.322406,10985
1659515955.363415,10930
1659515955.404423,10901
1659515955.443382,10912
1659515955.48234,10935
1659515955.521299,10931
1659515955.559574,10891
1659515955.597849,10897
1659515955.636124,10931
1659515955.678158,10991
1659515955.720192,11038
1659515955.759834,11096
1659515955.799476,11151
1659515955.839118,11196
1659515955.880127,11228
1659515955.921135,11262
1659515955.962657,11298
1659515956.004179,11355
1659515956.043479,11411
1659515956.082779,11450
1659515956.122079,11354
1659515956.166847,11075
1659515956.211615,10821
1659515956.256383,10723
1659515956.288165,10682
1659515956.319947,10671
1659515956.364715,10697
1659515956.409483,10700
1659515956.454251,10689
1659515956.488084,10691
1659515956.521916,10752
1659515956.566,10835
1659515956.610085,10949
1659515956.65417,11071
1659515956.693128,11172
1659515956.732086,11290
1659515956.771045,11383
1659515956.812567,11464
1659515956.854088,11539
1659515956.892363,11601
1659515956.930638,11666
1659515956.968913,11714
1659515957.01146,11743
1659515957.054006,11607
1659515957.093307,11317
1659515957.132607,11042
1659515957.171907,10906
1659515957.210182,10841
1659515957.248457,10830
1659515957.286732,10851
1659515957.328766,10854
1659515957.3708,10830
1659515957.4101,10822
1659515957.4494,10868
1659515957.488701,10929
1659515957.529197,11024
1659515957.569693,11109
1659515957.60831,11191
1659515957.646927,11294
1659515957.685543,11357
1659515957.726552,11412
1659515957.767561,11448
1659515957.80652,11494
1659515957.845478,11540
1659515957.884437,11486
1659515957.92442,11283
1659515957.964404,11094
1659515958.004388,11020
1659515958.044371,10989
1659515958.084355,10976
1659515958.128439,10992
1659515958.172524,10995
1659515958.216609,11004
1659515958.25813,11020
1659515958.299652,11061
1659515958.338952,11113
1659515958.378252,11170
1659515958.417552,11221
1659515958.459074,11275
1659515958.500595,11347
1659515958.53887,11403
1659515958.577145,11470
1659515958.61542,11538
1659515958.654379,11596
1659515958.693337,11647
1659515958.732296,11663
1659515958.773817,11526
1659515958.815339,11297
1659515958.853614,11166
1659515958.891889,11108
1659515958.930164,11088
1659515958.96878,11091
1659515959.007397,11100
1659515959.046014,11080
1659515959.087535,11051
1659515959.129057,11025
1659515959.168015,11033
1659515959.206974,11094
1659515959.245932,11142
1659515959.288479,11199
1659515959.331026,11261
1659515959.370326,11311
1659515959.409626,11375
1659515959.448926,11409
1659515959.490448,11459
1659515959.531969,11520
1659515959.576396,11589
1659515959.620822,11638
1659515959.665248,11574
1659515959.699593,11382
1659515959.733938,11194
1659515959.777681,11105
1659515959.821424,11045
1659515959.865166,11031
1659515959.897974,11056
1659515959.930781,11068
1659515959.975207,11073
1659515960.019633,11078
1659515960.064059,11112
1659515960.102334,11166
1659515960.14061,11225
1659515960.178885,11280
1659515960.220919,11341
1659515960.262953,11426
1659515960.301911,11472
1659515960.34087,11521
1659515960.379828,11570
1659515960.42135,11626
1659515960.462871,11669
1659515960.50183,11731
1659515960.540788,11798
1659515960.579746,11805
1659515960.619047,11692
1659515960.658347,11539
1659515960.697647,11501
1659515960.739169,11509
1659515960.78069,11495
1659515960.818623,11508
1659515960.856557,11525
1659515960.89449,11531
1659515960.93379,11538
1659515960.97309,11558
1659515961.01239,11579
1659515961.052887,11592
1659515961.093383,11598
1659515961.137468,11621
1659515961.181552,11664
1659515961.225637,11701
1659515961.259469,11768
1659515961.293301,11857
1659515961.337728,11940
1659515961.382154,12006
1659515961.42658,12058
1659515961.464855,12114
1659515961.50313,12133
1659515961.541405,12071
1659515961.583439,11894
1659515961.625473,11784
1659515961.664774,11759
1659515961.704074,11769
1659515961.743374,11803
1659515961.781649,11845
1659515961.819924,11850
1659515961.858199,11849
1659515961.900233,11864
1659515961.942267,11888
1659515961.980884,11913
1659515962.019501,11955
1659515962.058117,11978
1659515962.096734,12012
1659515962.135351,12051
1659515962.173967,12087
1659515962.216514,12127
1659515962.259061,12163
1659515962.297336,12210
1659515962.335611,12264
1659515962.373886,12315
1659515962.415407,12346
1659515962.456929,12294
1659515962.499476,12140
1659515962.542022,12024
1659515962.581322,11995
1659515962.620623,11993
1659515962.659923,12031
1659515962.704008,12046
1659515962.748092,12047
1659515962.792177,12028
1659515962.826009,12043
1659515962.859841,12062
1659515962.904268,12087
1659515962.948694,12132
1659515962.99312,12163
1659515963.031395,12203
1659515963.06967,12250
1659515963.107945,12281
1659515963.150492,12323
1659515963.193039,12361
1659515963.230459,12414
1659515963.26788,12460
1659515963.3053,12510
1659515963.342721,12513
1659515963.387147,12384
1659515963.431574,12214
1659515963.476,12110
1659515963.514617,12106
1659515963.553233,12126
1659515963.59185,12166
1659515963.630467,12159
1659515963.669084,12141
1659515963.7077,12120
1659515963.749222,12126
1659515963.790743,12149
1659515963.830044,12173
1659515963.869344,12203
1659515963.908644,12230
1659515963.950166,12266
1659515963.991687,12312
1659515964.030645,12351
1659515964.069604,12391
1659515964.108562,12434
1659515964.146837,12485
1659515964.185112,12541
1659515964.223387,12547
1659515964.264909,12403
1659515964.30643,12173
1659515964.344705,12014
1659515964.38298,11972
1659515964.421255,11954
1659515964.463289,11962
1659515964.505323,11950
1659515964.544282,11913
1659515964.58324,11880
1659515964.622199,11892
1659515964.663208,11911
1659515964.704216,11947
1659515964.748643,11987
1659515964.793069,12034
1659515964.837496,12077
1659515964.876112,12121
1659515964.914729,12168
1659515964.953346,12200
1659515964.99538,12240
1659515965.037414,12288
1659515965.076714,12339
1659515965.116014,12344
1659515965.155314,12183
1659515965.196323,11933
1659515965.237332,11759
1659515965.276291,11705
1659515965.315249,11673
1659515965.354208,11665
1659515965.393166,11658
1659515965.432125,11635
1659515965.471083,11614
1659515965.513117,11610
1659515965.555151,11640
1659515965.593426,11672
1659515965.631701,11710
1659515965.669976,11752
1659515965.711498,11795
1659515965.753019,11838
1659515965.793003,11877
1659515965.832987,11926
1659515965.87297,11962
1659515965.911587,12035
1659515965.950204,12082
1659515965.98882,12114
1659515966.029829,12018
1659515966.070838,11766
1659515966.11048,11567
1659515966.150122,11473
1659515966.189764,11432
1659515966.231798,11406
1659515966.273832,11420
1659515966.314328,11415
1659515966.354825,11395
1659515966.393783,11402
1659515966.432742,11426
1659515966.4717,11472
1659515966.515785,11521
1659515966.559869,11579
1659515966.603954,11628
1659515966.636761,11671
1659515966.669568,11719
1659515966.714336,11759
1659515966.759104,11803
1659515966.803872,11851
1659515966.842147,11911
1659515966.880422,11944
1659515966.918697,11856
1659515966.959706,11626
1659515967.000715,11436
1659515967.040015,11332
1659515967.079315,11265
1659515967.118616,11255
1659515967.16065,11258
1659515967.202684,11242
1659515967.240959,11223
1659515967.279234,11208
1659515967.317509,11239
1659515967.356809,11294
1659515967.396109,11360
1659515967.435409,11424
1659515967.476418,11477
1659515967.517427,11525
1659515967.555702,11570
1659515967.593977,11620
1659515967.632252,11680
1659515967.670869,11749
1659515967.709486,11820
1659515967.748102,11878
1659515967.790649,11947
1659515967.833196,11916
1659515967.873692,11706
1659515967.914188,11455
1659515967.953147,11293
1659515967.992105,11202
1659515968.031064,11120
1659515968.075832,11086
1659515968.1206,11072
1659515968.165368,11065
1659515968.198688,11022
1659515968.232007,11032
1659515968.276433,11074
1659515968.32086,11137
1659515968.365286,11185
1659515968.398606,11222
1659515968.431926,11278
1659515968.475395,11327
1659515968.518864,11375
1659515968.562334,11407
1659515968.605803,11442
1659515968.649273,11482
1659515968.688231,11531
1659515968.72719,11586
1659515968.766148,11641
1659515968.807157,11675
1659515968.848166,11572
1659515968.886441,11339
1659515968.924716,11180
1659515968.962991,11120
1659515969.002291,11078
1659515969.041591,11046
1659515969.080891,11072
1659515969.122926,11053
1659515969.16496,11026
1659515969.203918,11043
1659515969.242877,11086
1659515969.281835,11153
1659515969.323357,11217
1659515969.364878,11294
1659515969.404178,11340
1659515969.443478,11406
1659515969.482779,11454
1659515969.521737,11514
1659515969.560695,11583
1659515969.599654,11632
1659515969.640663,11698
1659515969.681672,11763
1659515969.72063,11831
1659515969.759589,11831
1659515969.798547,11698
1659515969.839043,11502
1659515969.87954,11404
1659515969.923624,11366
1659515969.967709,11336
1659515970.011793,11345
1659515970.046138,11363
1659515970.080483,11352
1659515970.124226,11317
1659515970.167969,11319
1659515970.211712,11360
1659515970.25067,11428
1659515970.289629,11513
1659515970.328587,11590
1659515970.370109,11681
1659515970.41163,11780
1659515970.45093,11881
1659515970.490231,11994
1659515970.529531,12104
1659515970.57054,12215
1659515970.611549,12324
1659515970.650507,12423
1659515970.689466,12500
1659515970.728424,12571
1659515970.766699,12525
1659515970.804974,12346
1659515970.843249,12175
1659515970.88477,12115
1659515970.926292,12091
1659515970.965592,12090
1659515971.004892,12105
1659515971.044193,12103
1659515971.082468,12087
1659515971.120742,12080
1659515971.159017,12091
1659515971.199514,12133
1659515971.24001,12175
1659515971.279652,12225
1659515971.319294,12292
1659515971.358936,12346
1659515971.40097,12407
1659515971.443004,12476
1659515971.48743,12532
1659515971.531857,12596
1659515971.576283,12656
1659515971.610115,12724
1659515971.643948,12777
1659515971.688716,12791
1659515971.733484,12637
1659515971.778252,12405
1659515971.816185,12263
1659515971.854118,12153
1659515971.892051,12053
1659515971.935111,11997
1659515971.97817,11945
1659515972.016787,11850
1659515972.055403,11748
1659515972.09402,11670
1659515972.134516,11628
1659515972.175013,11629
1659515972.213971,11623
1659515972.25293,11631
1659515972.291888,11652
1659515972.330847,11682
1659515972.369805,11716
1659515972.408764,11745
1659515972.450285,11784
1659515972.491807,11838
1659515972.531107,11924
1659515972.570407,11999
1659515972.609707,11984
1659515972.651741,11742
1659515972.693775,11507
1659515972.732392,11367
1659515972.771009,11253
1659515972.809626,11139
1659515972.848926,11081
1659515972.888226,11069
1659515972.927526,11040
1659515972.969048,11030
1659515973.010569,11025
1659515973.051065,11069
1659515973.091562,11127
1659515973.130178,11200
1659515973.168795,11280
1659515973.207412,11358
1659515973.251838,11442
1659515973.296265,11516
1659515973.340691,11600
1659515973.374011,11668
1659515973.40733,11741
1659515973.451073,11818
1659515973.494816,11882
1659515973.538559,11940
1659515973.571878,11858
1659515973.605198,11616
1659515973.649625,11379
1659515973.694051,11270
1659515973.738477,11183
1659515973.776154,11129
1659515973.813831,11143
1659515973.851508,11151
1659515973.889185,11148
1659515973.933611,11147
1659515973.978038,11180
1659515974.022464,11246
1659515974.060739,11326
1659515974.099014,11396
1659515974.137289,11472
1659515974.179836,11565
1659515974.222382,11656
1659515974.260999,11751
1659515974.299616,11847
1659515974.338232,11938
1659515974.379241,12045
1659515974.42025,12145
1659515974.459208,12236
1659515974.498167,12333
1659515974.537126,12421
1659515974.576767,12382
1659515974.616409,12226
1659515974.656051,12105
1659515974.697573,12076
1659515974.739094,12097
1659515974.777711,12123
1659515974.816328,12165
1659515974.854944,12180
1659515974.894586,12176
1659515974.934228,12183
1659515974.97387,12201
1659515975.015392,12240
1659515975.056913,12282
1659515975.09553,12329
1659515975.134147,12381
1659515975.172763,12420
1659515975.214797,12475
1659515975.256832,12503
1659515975.300916,12554
1659515975.345001,12597
1659515975.389085,12641
1659515975.422405,12668
1659515975.455725,12647
1659515975.500493,12438
1659515975.545261,12150
1659515975.590029,11989
1659515975.622836,11917
1659515975.655643,11870
1659515975.700069,11859
1659515975.744496,11865
1659515975.788922,11852
1659515975.828222,11848
1659515975.867522,11869
1659515975.906823,11904
1659515975.948857,11957
1659515975.990891,12015
1659515976.029166,12093
1659515976.067441,12162
1659515976.105716,12213
1659515976.14775,12247
1659515976.189784,12291
1659515976.228401,12333
1659515976.267018,12377
1659515976.305634,12438
1659515976.343568,12490
1659515976.381501,12408
1659515976.419434,12164
1659515976.461981,11947
1659515976.504528,11860
1659515976.542802,11806
1659515976.581077,11775
1659515976.619352,11792
1659515976.659849,11808
1659515976.700345,11796
1659515976.739303,11794
1659515976.778262,11836
1659515976.81722,11899
1659515976.859254,11970
1659515976.901289,12017
1659515976.939905,12063
1659515976.978522,12118
1659515977.017139,12161
1659515977.061907,12217
1659515977.106675,12281
1659515977.151443,12345
1659515977.184762,12400
1659515977.218082,12494
1659515977.262167,12533
1659515977.306252,12438
1659515977.350336,12231
1659515977.39237,12094
1659515977.434404,12062
1659515977.473363,12058
1659515977.512321,12077
1659515977.55128,12104
1659515977.589555,12121
1659515977.62783,12106
1659515977.666105,12097
1659515977.707626,12130
1659515977.749148,12177
1659515977.788106,12239
1659515977.827065,12300
1659515977.866023,12341
1659515977.907544,12399
1659515977.949066,12461
1659515977.988024,12503
1659515978.026983,12550
1659515978.065941,12609
1659515978.1049,12665
1659515978.143858,12751
1659515978.182817,12803
1659515978.224338,12729
1659515978.26586,12525
1659515978.30516,12374
1659515978.34446,12339
1659515978.38376,12337
1659515978.425794,12349
1659515978.467829,12372
1659515978.506445,12377
1659515978.545062,12361
1659515978.583679,12358
1659515978.624688,12400
1659515978.665696,12426
1659515978.704997,12464
1659515978.744297,12512
1659515978.783597,12568
1659515978.825119,12670
1659515978.86664,12770
1659515978.910383,12869
1659515978.954126,12942
1659515978.997869,12988
1659515979.037852,13018
1659515979.077836,13035
1659515979.11782,13024
1659515979.157803,12837
1659515979.197787,12526
1659515979.236745,12280
1659515979.275704,12183
1659515979.314662,12139
1659515979.353621,12131
1659515979.392579,12134
1659515979.431538,12099
1659515979.473059,12090
1659515979.514581,12084
1659515979.553197,12134
1659515979.591814,12205
1659515979.630431,12267
1659515979.672465,12332
1659515979.714499,12392
1659515979.753116,12445
1659515979.791733,12491
1659515979.830349,12553
1659515979.868283,12602
1659515979.906216,12651
1659515979.944149,12694
1659515979.984645,12719
1659515980.025141,12639
1659515980.064442,12388
1659515980.103742,12176
1659515980.143042,12110
1659515980.184564,12152
1659515980.226085,12214
1659515980.264702,12260
1659515980.303319,12260
1659515980.341935,12216
1659515980.387045,12185
1659515980.432155,12146
1659515980.477265,12147
1659515980.518786,12174
1659515980.560308,12215
1659515980.598924,12262
1659515980.637541,12294
1659515980.676158,12334
1659515980.718704,12390
1659515980.761251,12455
1659515980.799868,12504
1659515980.838485,12550
1659515980.877101,12541
1659515980.915376,12352
1659515980.953651,12140
1659515980.991926,12057
1659515981.03396,12078
1659515981.075994,12102
1659515981.114611,12130
1659515981.153228,12122
1659515981.191845,12080
1659515981.233366,12051
1659515981.274888,12059
1659515981.31453,12082
1659515981.354172,12121
1659515981.393814,12132
1659515981.43243,12144
1659515981.471047,12166
1659515981.509664,12196
1659515981.551185,12225
1659515981.592707,12275
1659515981.632349,12341
1659515981.671991,12418
1659515981.711632,12424
1659515981.753667,12286
1659515981.795701,12101
1659515981.839443,12015
1659515981.883186,12009
1659515981.926929,12007
1659515981.960249,12026
1659515981.993569,12025
1659515982.037995,12010
1659515982.082421,11996
1659515982.126848,12015
1659515982.165464,12069
1659515982.204081,12129
1659515982.242698,12187
1659515982.284219,12248
1659515982.325741,12305
1659515982.364699,12356
1659515982.403658,12421
1659515982.442616,12482
1659515982.483625,12537
1659515982.524634,12621
1659515982.563934,12626
1659515982.603234,12505
1659515982.642534,12358
1659515982.681493,12302
1659515982.720451,12327
1659515982.75941,12371
1659515982.800419,12417
1659515982.841428,12438
1659515982.880044,12469
1659515982.918661,12502
1659515982.957278,12544
1659515982.999825,12588
1659515983.042371,12614
1659515983.080646,12628
1659515983.118921,12654
1659515983.157196,12673
1659515983.195813,12692
1659515983.23443,12730
1659515983.273046,12765
1659515983.314055,12808
1659515983.355064,12838
1659515983.397611,12708
1659515983.440158,12471
1659515983.478433,12297
1659515983.516708,12220
1659515983.554982,12179
1659515983.600092,12188
1659515983.645202,12208
1659515983.690312,12152
1659515983.723632,12111
1659515983.756951,12105
1659515983.801036,12130
1659515983.84512,12190
1659515983.889205,12252
1659515983.923037,12323
1659515983.95687,12368
1659515984.001296,12371
1659515984.045722,12342
1659515984.090149,12301
1659515984.128765,12259
1659515984.167382,12228
1659515984.205999,12100
1659515984.244957,11741
1659515984.283916,11330
1659515984.322874,11067
1659515984.361833,10888
1659515984.400791,10763
1659515984.439749,10689
1659515984.480758,10639
1659515984.521767,10567
1659515984.561409,10479
1659515984.601051,10424
1659515984.640693,10420
1659515984.682727,10415
1659515984.724761,10420
1659515984.768846,10443
1659515984.812931,10465
1659515984.857015,10483
1659515984.890335,10509
1659515984.923655,10539
1659515984.968423,10588
1659515985.013191,10653
1659515985.057959,10721
1659515985.091278,10679
1659515985.124598,10422
1659515985.168683,10078
1659515985.212767,9861
1659515985.256852,9704
1659515985.29581,9594
1659515985.334769,9575
1659515985.373727,9589
1659515985.414223,9583
1659515985.45472,9592
1659515985.493678,9625
1659515985.532637,9675
1659515985.571595,9731
1659515985.610212,9752
1659515985.648829,9773
1659515985.687445,9821
1659515985.728454,9848
1659515985.769463,9891
1659515985.808422,9939
1659515985.84738,10001
1659515985.886338,10068
1659515985.928885,10138
1659515985.971432,10214
1659515986.009707,10286
1659515986.047982,10363
1659515986.086257,10379
1659515986.125215,10217
1659515986.164174,9891
1659515986.203132,9676
1659515986.244141,9586
1659515986.28515,9541
1659515986.327184,9519
1659515986.369218,9536
1659515986.407493,9554
1659515986.445768,9521
1659515986.484043,9511
1659515986.528811,9535
1659515986.573579,9578
1659515986.618347,9653
1659515986.650129,9713
1659515986.681911,9783
1659515986.725654,9840
1659515986.769397,9918
1659515986.81314,9971
1659515986.852782,10035
1659515986.892423,10098
1659515986.932065,10169
1659515986.970682,10260
1659515987.009299,10324
1659515987.047915,10411
1659515987.087558,10489
1659515987.127199,10576
1659515987.166841,10623
1659515987.208875,10523
1659515987.25091,10331
1659515987.289526,10202
1659515987.328143,10167
1659515987.36676,10174
1659515987.411186,10186
1659515987.455612,10228
1659515987.500039,10226
1659515987.533871,10219
1659515987.567703,10241
1659515987.611788,10298
1659515987.655873,10364
1659515987.699957,10426
1659515987.738915,10514
1659515987.777874,10585
1659515987.816832,10678
1659515987.858354,10746
1659515987.899875,10827
1659515987.938492,10913
1659515987.977109,10996
1659515988.015726,11082
1659515988.057247,11149
1659515988.098769,11232
1659515988.138069,11303
1659515988.177369,11394
1659515988.216669,11453
1659515988.255286,11409
1659515988.293903,11260
1659515988.332519,11129
1659515988.374041,11106
1659515988.415562,11129
1659515988.454179,11167
1659515988.492796,11214
1659515988.531413,11231
1659515988.573959,11237
1659515988.616506,11248
1659515988.654781,11288
1659515988.693056,11328
1659515988.731331,11364
1659515988.77234,11420
1659515988.813349,11447
1659515988.852307,11488
1659515988.891266,11537
1659515988.930224,11573
1659515988.971745,11620
1659515989.013267,11674
1659515989.051884,11730
1659515989.090501,11775
1659515989.129117,11838
1659515989.173885,11872
1659515989.218653,11809
1659515989.263421,11606
1659515989.30443,11402
1659515989.345439,11313
1659515989.384398,11282
1659515989.423356,11282
1659515989.462315,11298
1659515989.502298,11324
1659515989.542282,11323
1659515989.582266,11325
1659515989.622249,11360
1659515989.662233,11396
1659515989.700508,11464
1659515989.738783,11518
1659515989.777058,11571
1659515989.818579,11629
1659515989.860101,11686
1659515989.898376,11745
1659515989.936651,11795
1659515989.974926,11869
1659515990.014568,11923
1659515990.05421,11989
1659515990.093852,12049
1659515990.135373,12110
1659515990.176895,12165
1659515990.215511,12060
1659515990.254128,11836
1659515990.292745,11636
1659515990.334266,11563
1659515990.375788,11517
1659515990.415771,11494
1659515990.455755,11493
1659515990.495739,11488
1659515990.53726,11489
1659515990.578782,11502
1659515990.61774,11535
1659515990.656699,11584
1659515990.695657,11646
1659515990.740425,11693
1659515990.785193,11750
1659515990.829961,11798
1659515990.87097,11850
1659515990.911979,11892
1659515990.950596,11940
1659515990.989213,11986
1659515991.027829,12052
1659515991.067129,12114
1659515991.10643,12169
1659515991.14573,12238
1659515991.186739,12225
1659515991.227748,12048
1659515991.266706,11846
1659515991.305665,11748
1659515991.344623,11707
1659515991.386657,11714
1659515991.428691,11712
1659515991.467308,11721
1659515991.505925,11714
1659515991.544541,11702
1659515991.583158,11702
1659515991.621775,11738
1659515991.660392,11792
1659515991.702426,11857
1659515991.74446,11948
1659515991.782735,12033
1659515991.82101,12097
1659515991.859285,12135
1659515991.901319,12170
1659515991.943353,12212
1659515991.98197,12251
1659515992.020586,12285
1659515992.059203,12310
1659515992.100212,12271
1659515992.141221,12037
1659515992.179496,11744
1659515992.217771,11582
1659515992.256046,11498
1659515992.29808,11459
1659515992.340114,11453
1659515992.384882,11467
1659515992.42965,11468
1659515992.474418,11452
1659515992.513035,11458
1659515992.551652,11477
1659515992.590268,11518
1659515992.63179,11563
1659515992.673311,11612
1659515992.712612,11651
1659515992.751912,11696
1659515992.791212,11753
1659515992.829487,11808
1659515992.867762,11878
1659515992.906037,11945
1659515992.948584,12015
1659515992.99113,12077
1659515993.029747,12056
1659515993.068364,11850
1659515993.106981,11591
1659515993.147989,11463
1659515993.188998,11412
1659515993.227273,11378
1659515993.265548,11393
1659515993.303823,11403
1659515993.343807,11427
1659515993.38379,11472
1659515993.423774,11522
1659515993.464783,11603
1659515993.505792,11658
1659515993.544409,11710
1659515993.583025,11748
1659515993.621642,11805
1659515993.663676,11839
1659515993.70571,11880
1659515993.750479,11966
1659515993.795247,12045
1659515993.840014,12141
1659515993.873334,12237
1659515993.906654,12313
1659515993.951422,12229
1659515993.99619,12039
1659515994.040958,11896
1659515994.074278,11855
1659515994.107598,11860
1659515994.15134,11883
1659515994.195083,11941
1659515994.238826,11994
1659515994.278126,12049
1659515994.317426,12136
1659515994.356727,12225
1659515994.398248,12310
1659515994.43977,12388
1659515994.478045,12447
1659515994.51632,12488
1659515994.554595,12514
1659515994.596116,12556
1659515994.637638,12595
1659515994.677279,12638
1659515994.716922,12704
1659515994.756563,12743
1659515994.796137,12673
1659515994.835711,12413
1659515994.875284,12120
1659515994.914858,11950
1659515994.954431,11836
1659515994.993731,11753
1659515995.033032,11682
1659515995.072332,11651
1659515995.113853,11605
1659515995.155375,11587
1659515995.193992,11598
1659515995.232609,11646
1659515995.271225,11708
1659515995.312747,11740
1659515995.354268,11768
1659515995.392201,11800
1659515995.430135,11859
1659515995.468068,11930
1659515995.509589,12000
1659515995.551111,12068
1659515995.589728,12131
1659515995.628344,12205
1659515995.666961,12198
1659515995.708483,12027
1659515995.750004,11716
1659515995.788621,11489
1659515995.827237,11362
1659515995.865854,11289
1659515995.910964,11231
1659515995.956074,11214
1659515996.001184,11209
1659515996.043218,11186
1659515996.085252,11177
1659515996.123527,11208
1659515996.161802,11264
1659515996.200077,11338
1659515996.242111,11394
1659515996.284145,11462
1659515996.322762,11521
1659515996.361378,11593
1659515996.399995,11653
1659515996.438612,11714
1659515996.477229,11785
1659515996.515845,11855
1659515996.558392,11906
1659515996.600939,11819
1659515996.639555,11580
1659515996.678172,11385
1659515996.716789,11296
1659515996.755064,11245
1659515996.793339,11234
1659515996.831614,11256
1659515996.873648,11250
1659515996.915682,11228
1659515996.95464,11241
1659515996.993599,11275
1659515997.032557,11321
1659515997.074591,11380
1659515997.116626,11446
1659515997.155584,11497
1659515997.194543,11564
1659515997.233501,11621
1659515997.275023,11675
1659515997.316544,11748
1659515997.354819,11808
1659515997.393094,11879
1659515997.431369,11939
1659515997.473403,11945
1659515997.515437,11747
1659515997.559864,11477
1659515997.60429,11340
1659515997.648716,11293
1659515997.686991,11302
1659515997.725266,11325
1659515997.763541,11331
1659515997.80455,11269
1659515997.845559,11206
1659515997.884859,11181
1659515997.924159,11177
1659515997.963459,11207
1659515998.004981,11265
1659515998.046502,11326
1659515998.085461,11407
1659515998.124419,11485
1659515998.163378,11552
1659515998.202336,11617
1659515998.241295,11681
1659515998.280253,11741
1659515998.321775,11811
1659515998.363296,11905
1659515998.402255,11976
1659515998.441213,11905
1659515998.480171,11703
1659515998.51913,11533
1659515998.558089,11457
1659515998.597047,11410
1659515998.638056,11392
1659515998.679065,11417
1659515998.716998,11442
1659515998.754931,11434
1659515998.792864,11444
1659515998.835411,11482
1659515998.877958,11520
1659515998.916574,11573
1659515998.955191,11623
1659515998.993808,11681
1659515999.034817,11724
1659515999.075826,11777
1659515999.120594,11832
1659515999.165362,11877
1659515999.21013,11929
1659515999.24943,11989
1659515999.28873,12053
1659515999.328031,12121
1659515999.369552,12067
1659515999.411074,11862
1659515999.450374,11673
1659515999.489674,11568
1659515999.528974,11516
1659515999.570496,11493
1659515999.612017,11486
1659515999.650292,11472
1659515999.688567,11445
1659515999.726842,11427
1659515999.7658,11446
1659515999.804759,11481
1659515999.843718,11531
1659515999.886264,11575
1659515999.928811,11638
1659515999.966744,11684
1659516000.004677,11757
1659516000.042611,11801
1659516000.082799,11851
1659516000.122988,11923
1659516000.163177,11992
1659516000.203366,12058
1659516000.243554,12118
1659516000.285588,12124
1659516000.327622,11930
1659516000.366581,11646
1659516000.405539,11477
1659516000.444498,11393
1659516000.483798,11332
1659516000.523098,11299
1659516000.562398,11298
1659516000.603407,11295
1659516000.644416,11276
1659516000.68645,11260
1659516000.728484,11294
1659516000.767443,11341
1659516000.806401,11394
1659516000.84536,11439
1659516000.889444,11500
1659516000.933529,11553
1659516000.977613,11630
1659516001.009908,11706
1659516001.042202,11804
1659516001.086971,11903
1659516001.131739,11989
1659516001.176507,12069
1659516001.209314,12147
1659516001.242121,12178
1659516001.286206,12023
1659516001.33029,11742
1659516001.374375,11545
1659516001.413333,11498
1659516001.452291,11502
1659516001.49125,11533
1659516001.532772,11561
1659516001.574293,11565
1659516001.61291,11540
1659516001.651526,11535
1659516001.690143,11570
1659516001.729785,11616
1659516001.769427,11668
1659516001.809069,11746
1659516001.850078,11808
1659516001.891087,11867
1659516001.929362,11877
1659516001.967637,11904
1659516002.005912,11934
1659516002.047433,11980
1659516002.088955,12043
1659516002.128255,12082
1659516002.167555,12056
1659516002.206855,11804
1659516002.247864,11462
1659516002.288873,11220
1659516002.328173,11093
1659516002.367474,11019
1659516002.406774,10988
1659516002.448295,10972
1659516002.489817,10940
1659516002.529459,10905
1659516002.569101,10901
1659516002.608742,10956
1659516002.653169,11000
1659516002.697595,11054
1659516002.742022,11127
1659516002.784055,11176
1659516002.82609,11235
1659516002.864365,11282
1659516002.90264,11328
1659516002.940915,11387
1659516002.979531,11442
1659516003.018148,11496
1659516003.056765,11404
1659516003.098799,11115
1659516003.140833,10835
1659516003.17945,10703
1659516003.218066,10642
1659516003.256683,10600
1659516003.297692,10610
1659516003.338701,10617
1659516003.377659,10601
1659516003.416618,10577
1659516003.455576,10599
1659516003.494535,10635
1659516003.533493,10698
1659516003.572452,10763
1659516003.614486,10818
1659516003.65652,10883
1659516003.69582,10951
1659516003.73512,11017
1659516003.77442,11083
1659516003.815942,11154
1659516003.857464,11176
1659516003.895739,11024
1659516003.934013,10731
1659516003.972288,10518
1659516004.014835,10444
1659516004.057382,10437
1659516004.095999,10459
1659516004.134615,10520
1659516004.173232,10526
1659516004.213728,10511
1659516004.254225,10526
1659516004.298309,10561
1659516004.342394,10610
1659516004.386478,10662
1659516004.425437,10731
1659516004.464395,10799
1659516004.503354,10861
1659516004.544875,10929
1659516004.586397,11002
1659516004.625355,11089
1659516004.664314,11122
1659516004.703272,10973
1659516004.745306,10713
1659516004.78734,10551
1659516004.825615,10492
1659516004.86389,10497
1659516004.902165,10512
1659516004.941124,10550
1659516004.980082,10573
1659516005.019041,10577
1659516005.061587,10604
1659516005.104134,10669
1659516005.142067,10756
1659516005.180001,10838
1659516005.217934,10925
1659516005.256892,11018
1659516005.295851,11094
1659516005.334809,11177
1659516005.376331,11258
1659516005.417852,11348
1659516005.459374,11437
1659516005.500895,11457
1659516005.539512,11337
1659516005.578129,11124
1659516005.616745,11026
1659516005.656045,11005
1659516005.695346,11023
1659516005.734646,11068
1659516005.775655,11079
1659516005.816664,11076
1659516005.86109,11074
1659516005.905516,11104
1659516005.949943,11145
1659516005.984288,11193
1659516006.018632,11257
1659516006.063401,11326
1659516006.108169,11394
1659516006.152937,11454
1659516006.185231,11531
1659516006.217526,11600
1659516006.262294,11676
1659516006.307062,11748
1659516006.35183,11736
1659516006.385149,11589
1659516006.418469,11410
1659516006.462554,11328
1659516006.506639,11325
1659516006.550723,11340
1659516006.589681,11381
1659516006.62864,11409
1659516006.667598,11412
1659516006.708607,11418
1659516006.749616,11463
1659516006.788575,11511
1659516006.827533,11582
1659516006.866492,11635
1659516006.905792,11702
1659516006.945092,11773
1659516006.984392,11834
1659516007.025914,11892
1659516007.067435,11945
1659516007.106052,12022
1659516007.144669,12077
1659516007.183285,12143
1659516007.225319,12144
1659516007.267354,12008
1659516007.306312,11831
1659516007.34527,11740
1659516007.384229,11703
1659516007.425238,11677
1659516007.466247,11696
1659516007.504864,11708
1659516007.54348,11714
1659516007.582097,11726
1659516007.626181,11744
1659516007.670266,11793
1659516007.71435,11853
1659516007.748183,11905
1659516007.782015,11974
1659516007.825758,12049
1659516007.869501,12119
1659516007.913244,12188
1659516007.952202,12251
1659516007.991161,12310
1659516008.030119,12373
1659516008.07164,12442
1659516008.113162,12504
1659516008.152121,12465
1659516008.191079,12313
1659516008.230037,12156
1659516008.269338,12096
1659516008.308638,12078
1659516008.347938,12078
1659516008.389972,12100
1659516008.432006,12110
1659516008.470281,12090
1659516008.508556,12101
1659516008.546831,12136
1659516008.588353,12173
1659516008.629874,12227
1659516008.668491,12261
1659516008.707108,12309
1659516008.745724,12367
1659516008.787759,12411
1659516008.829792,12454
1659516008.868751,12505
1659516008.90771,12562
1659516008.946668,12619
1659516008.988189,12664
1659516009.029711,12567
1659516009.067986,12342
1659516009.106261,12143
1659516009.144536,12053
1659516009.189646,11986
1659516009.234756,11946
1659516009.279865,11947
1659516009.313698,11927
1659516009.34753,11916
1659516009.392298,11886
1659516009.437066,11883
1659516009.481834,11923
1659516009.522843,11964
1659516009.563852,12007
1659516009.603152,12053
1659516009.642452,12107
1659516009.681752,12146
1659516009.720369,12190
1659516009.758986,12239
1659516009.797603,12288
1659516009.839124,12345
1659516009.880646,12409
1659516009.919604,12413
1659516009.958563,12267
1659516009.997521,11978
1659516010.038017,11777
1659516010.078514,11676
1659516010.117814,11606
1659516010.157114,11577
1659516010.196414,11599
1659516010.235373,11597
1659516010.274331,11572
1659516010.31329,11571
1659516010.354298,11598
1659516010.395307,11647
1659516010.434266,11704
1659516010.473224,11764
1659516010.512183,11813
1659516010.554217,11873
1659516010.596251,11927
1659516010.635619,11982
1659516010.674988,12037
1659516010.714357,12115
1659516010.753725,12186
1659516010.793094,12266
1659516010.832052,12330
1659516010.871011,12297
1659516010.909969,12067
1659516010.951491,11853
1659516010.993012,11754
1659516011.034021,11698
1659516011.07503,11680
1659516011.113988,11689
1659516011.152947,11681
1659516011.191905,11642
1659516011.236331,11631
1659516011.280758,11641
1659516011.325184,11676
1659516011.358504,11737
1659516011.391824,11776
1659516011.436933,11831
1659516011.482043,11876
1659516011.527153,11935
1659516011.55996,11977
1659516011.592767,12044
1659516011.637193,12094
1659516011.68162,12159
1659516011.726046,12223
1659516011.764663,12258
1659516011.80328,12139
1659516011.841896,11854
1659516011.884443,11620
1659516011.92699,11500
1659516011.965265,11423
1659516012.00354,11380
1659516012.041815,11378
1659516012.080773,11373
1659516012.119732,11338
1659516012.15869,11334
1659516012.199699,11364
1659516012.240708,11405
1659516012.279666,11457
1659516012.318625,11506
1659516012.357583,11555
1659516012.399617,11599
1659516012.441651,11650
1659516012.481293,11705
1659516012.520935,11759
1659516012.560577,11810
1659516012.601586,11884
1659516012.642595,11956
1659516012.681554,12022
1659516012.720512,12052
1659516012.75947,11898
1659516012.802017,11616
1659516012.844564,11415
1659516012.883181,11315
1659516012.921797,11242
1659516012.960414,11217
1659516013.00091,11236
1659516013.041407,11247
1659516013.080365,11239
1659516013.119323,11273
1659516013.158282,11315
1659516013.202025,11384
1659516013.245768,11464
1659516013.28951,11527
1659516013.331545,11590
1659516013.373579,11650
1659516013.411854,11719
1659516013.450129,11778
1659516013.488404,11857
1659516013.527704,11907
1659516013.567004,11978
1659516013.606304,12048
1659516013.647313,12109
1659516013.688322,12122
1659516013.727622,11938
1659516013.766922,11685
1659516013.806223,11523
1659516013.848257,11471
1659516013.890291,11430
1659516013.928566,11443
1659516013.966841,11457
1659516014.005116,11438
1659516014.044074,11421
1659516014.083033,11432
1659516014.121991,11483
1659516014.163,11542
1659516014.204009,11610
1659516014.242626,11662
1659516014.281242,11730
1659516014.319859,11801
1659516014.361381,11871
1659516014.402902,11946
1659516014.441519,11999
1659516014.480135,12062
1659516014.518752,12129
1659516014.559761,12198
1659516014.60077,12226
1659516014.64007,12105
1659516014.67937,11739
1659516014.718671,11321
1659516014.760192,11071
1659516014.801714,10915
1659516014.84614,10853
1659516014.890566,10904
1659516014.934993,11010
1659516014.974293,11117
1659516015.013593,11204
1659516015.052893,11282
1659516015.094415,11355
1659516015.135936,11445
1659516015.174895,11535
1659516015.213853,11631
1659516015.252811,11738
1659516015.29382,11852
1659516015.334829,11951
1659516015.37413,12028
1659516015.41343,12084
1659516015.45273,12146
1659516015.491005,12200
1659516015.52928,12268
1659516015.567555,12329
1659516015.610101,12260
1659516015.652648,12007
1659516015.691948,11797
1659516015.731249,11751
1659516015.770549,11715
1659516015.809165,11732
1659516015.847782,11785
1659516015.886399,11776
1659516015.930825,11757
1659516015.975252,11759
1659516016.019678,11812
1659516016.058636,11906
1659516016.097595,12015
1659516016.136553,12089
1659516016.17705,12158
1659516016.217546,12234
1659516016.256163,12302
1659516016.294779,12368
1659516016.333396,12434
1659516016.372696,12499
1659516016.411996,12557
1659516016.451297,12619
1659516016.491793,12590
1659516016.532289,12344
1659516016.570906,11996
1659516016.609523,11733
1659516016.648139,11568
1659516016.689661,11399
1659516016.731182,11274
1659516016.770141,11153
1659516016.809099,11063
1659516016.848058,10973
1659516016.887016,10923
1659516016.925975,10946
1659516016.964933,10978
1659516017.005942,11042
1659516017.046951,11101
1659516017.088985,11155
1659516017.131019,11223
1659516017.169978,11276
1659516017.208936,11333
1659516017.247895,11393
1659516017.292663,11473
1659516017.33743,11550
1659516017.382199,11625
1659516017.415006,11525
1659516017.447813,11233
1659516017.491214,10984
1659516017.534615,10854
1659516017.578016,10757
1659516017.616975,10709
1659516017.655933,10723
1659516017.694891,10738
1659516017.736926,10730
1659516017.77896,10734
1659516017.817576,10758
1659516017.856193,10824
1659516017.89481,10883
1659516017.936844,10945
1659516017.978878,11020
1659516018.018178,11085
1659516018.057478,11156
1659516018.096779,11238
1659516018.135395,11300
1659516018.174012,11370
1659516018.212629,11446
1659516018.254663,11539
1659516018.296697,11577
1659516018.336339,11435
1659516018.375981,11162
1659516018.415623,11001
1659516018.456119,10931
1659516018.496615,10902
1659516018.535232,10897
1659516018.573849,10915
1659516018.612466,10905
1659516018.655525,10889
1659516018.698584,10889
1659516018.736859,10900
1659516018.775134,10932
1659516018.813409,10968
1659516018.853905,10996
1659516018.894402,11029
1659516018.934044,11062
1659516018.973686,11111
1659516019.013328,11173
1659516019.055362,11260
1659516019.097396,11351
1659516019.136354,11429
1659516019.175313,11501
1659516019.214271,11410
1659516019.259039,11133
1659516019.303807,10888
1659516019.348575,10739
1659516019.390097,10610
1659516019.431618,10508
1659516019.469552,10505
1659516019.507485,10502
1659516019.545418,10476
1659516019.588477,10460
1659516019.631537,10460
1659516019.669812,10492
1659516019.708087,10531
1659516019.746362,10600
1659516019.784637,10672
1659516019.822912,10767
1659516019.861187,10870
1659516019.902708,10985
1659516019.94423,11100
1659516019.982505,11209
1659516020.02078,11308
1659516020.059055,11390
1659516020.098013,11484
1659516020.136971,11544
1659516020.17593,11437
1659516020.217964,11121
1659516020.259998,10854
1659516020.298615,10716
1659516020.337232,10626
1659516020.375848,10575
1659516020.41737,10589
1659516020.458891,10590
1659516020.498192,10540
1659516020.537492,10510
1659516020.576792,10534
1659516020.618313,10571
1659516020.659835,10614
1659516020.703578,10664
1659516020.747321,10707
1659516020.791063,10759
1659516020.824383,10801
1659516020.857703,10864
1659516020.902129,10925
1659516020.946555,11005
1659516020.990982,11085
1659516021.02994,11150
1659516021.068899,11231
1659516021.107857,11248
1659516021.146816,11076
1659516021.185774,10740
1659516021.224732,10521
1659516021.263691,10437
1659516021.302649,10429
1659516021.341608,10479
1659516021.383129,10545
1659516021.424651,10581
1659516021.463951,10614
1659516021.503251,10693
1659516021.542552,10777
1659516021.584586,10886
1659516021.62662,10993
1659516021.665578,11083
1659516021.704537,11181
1659516021.743495,11268
1659516021.784504,11361
1659516021.825513,11446
1659516021.864471,11549
1659516021.90343,11625
1659516021.942388,11710
1659516021.986473,11809
1659516022.030557,11885
1659516022.074642,11865
1659516022.108474,11646
1659516022.142307,11418
1659516022.186391,11296
1659516022.230476,11241
1659516022.27456,11197
1659516022.315569,11222
1659516022.356578,11255
1659516022.395537,11252
1659516022.434495,11253
1659516022.473454,11280
1659516022.512412,11327
1659516022.55137,11394
1659516022.590329,11469
1659516022.632363,11542
1659516022.674397,11601
1659516022.713356,11673
1659516022.752314,11724
1659516022.791272,11776
1659516022.831769,11778
1659516022.872265,11800
1659516022.911223,11848
1659516022.950182,11927
1659516022.989141,11968
1659516023.027757,11847
1659516023.066374,11618
1659516023.10499,11445
1659516023.146512,11372
1659516023.188034,11318
1659516023.22665,11310
1659516023.265267,11328
1659516023.303884,11307
1659516023.34438,11253
1659516023.384876,11202
1659516023.424176,11173
1659516023.463477,11177
1659516023.502777,11223
1659516023.544811,11276
1659516023.586845,11336
1659516023.62512,11398
1659516023.663395,11471
1659516023.70167,11537
1659516023.746438,11634
1659516023.791206,11733
1659516023.835974,11830
1659516023.878008,11909
1659516023.920043,11927
1659516023.958659,11748
1659516023.997276,11456
1659516024.035892,11273
1659516024.076901,11187
1659516024.11791,11160
1659516024.157211,11143
1659516024.196511,11136
1659516024.235811,11101
1659516024.273744,11056
1659516024.311677,11023
1659516024.349611,11007
1659516024.392157,11015
1659516024.434704,11036
1659516024.473663,11092
1659516024.512621,11150
1659516024.551579,11212
1659516024.593101,11299
1659516024.634623,11375
1659516024.673581,11451
1659516024.712539,11537
1659516024.751498,11606
1659516024.790798,11674
1659516024.830098,11726
1659516024.869398,11621
1659516024.91092,11368
1659516024.952441,11180
1659516024.9914,11088
1659516025.030358,11056
1659516025.069317,11029
1659516025.110838,11044
1659516025.15236,11048
1659516025.196445,11018
1659516025.240529,11000
1659516025.284614,11000
1659516025.317933,11033
1659516025.351253,11073
1659516025.396021,11131
1659516025.440789,11190
1659516025.485557,11263
1659516025.517339,11352
1659516025.549121,11430
1659516025.593547,11504
1659516025.637974,11589
1659516025.6824,11642
1659516025.7217,11695
1659516025.761,11731
1659516025.800301,11627
1659516025.842335,11386
1659516025.884369,11213
1659516025.922986,11121
1659516025.961602,11082
1659516026.000219,11102
1659516026.042253,11108
1659516026.084287,11090
1659516026.122562,11084
1659516026.160837,11088
1659516026.199112,11124
1659516026.237387,11186
1659516026.275662,11251
1659516026.313937,11331
1659516026.352895,11426
1659516026.391854,11496
1659516026.430812,11577
1659516026.474897,11675
1659516026.518981,11766
1659516026.563066,11839
1659516026.595873,11884
1659516026.62868,11916
1659516026.673107,11898
1659516026.717533,11747
1659516026.761959,11448
1659516026.800918,11280
1659516026.839876,11241
1659516026.878834,11223
1659516026.920356,11254
1659516026.961878,11319
1659516027.001178,11383
1659516027.040478,11413
1659516027.079778,11429
1659516027.1213,11442
1659516027.162821,11461
1659516027.20178,11493
1659516027.240738,11533
1659516027.279696,11606
1659516027.318655,11664
1659516027.357614,11742
1659516027.396572,11824
1659516027.439119,11895
1659516027.481665,11955
1659516027.51994,12016
1659516027.558215,12067
1659516027.59649,12001
1659516027.637499,11769
1659516027.678508,11523
1659516027.717808,11395
1659516027.757108,11313
1659516027.796409,11263
1659516027.83793,11252
1659516027.879452,11236
1659516027.918068,11198
1659516027.956685,11166
1659516027.995302,11170
1659516028.040412,11182
1659516028.085521,11199
1659516028.130631,11223
1659516028.17164,11225
1659516028.212649,11243
1659516028.251607,11265
1659516028.290566,11316
1659516028.329524,11369
1659516028.372071,11467
1659516028.414618,11568
1659516028.453234,11670
1659516028.491851,11737
1659516028.530468,11625
1659516028.568743,11445
1659516028.607018,11335
1659516028.645293,11290
1659516028.687327,11259
1659516028.729361,11273
1659516028.767636,11307
1659516028.805911,11311
1659516028.844186,11325
1659516028.883486,11344
1659516028.922786,11414
1659516028.962087,11482
1659516029.004121,11575
1659516029.046155,11682
1659516029.08443,11780
1659516029.122705,11882
1659516029.16098,11978
1659516029.201989,12067
1659516029.242998,12142
1659516029.28264,12233
1659516029.322282,12304
1659516029.361923,12397
1659516029.403445,12482
1659516029.444967,12550
1659516029.483241,12508
1659516029.521516,12334
1659516029.559791,12184
1659516029.601313,12127
1659516029.642834,12083
1659516029.686919,12043
1659516029.731004,12044
1659516029.775088,12056
1659516029.813705,12053
1659516029.852322,12061
1659516029.890938,12114
1659516029.932972,12160
1659516029.975007,12190
1659516030.013623,12224
1659516030.05224,12263
1659516030.090857,12301
1659516030.131866,12350
1659516030.172874,12404
1659516030.212858,12455
1659516030.252842,12520
1659516030.292825,12572
1659516030.331784,12632
1659516030.370742,12700
1659516030.409701,12759
1659516030.45071,12784
1659516030.491719,12673
1659516030.531019,12453
1659516030.570319,12260
1659516030.609619,12175
1659516030.652166,12162
1659516030.694713,12178
1659516030.732988,12207
1659516030.771263,12200
1659516030.809538,12197
1659516030.848154,12204
1659516030.886771,12236
1659516030.925388,12271
1659516030.966909,12325
1659516031.008431,12395
1659516031.047047,12467
1659516031.085664,12549
1659516031.124281,12610
1659516031.166315,12681
1659516031.208349,12732
1659516031.253459,12789
1659516031.298569,12868
1659516031.343678,12940
1659516031.376486,13015
1659516031.409293,13079
1659516031.453719,13018
1659516031.498145,12887
1659516031.542572,12820
1659516031.580505,12822
1659516031.618438,12858
1659516031.656371,12926
1659516031.694305,12939
1659516031.734801,12916
1659516031.775297,12900
1659516031.814597,12920
1659516031.853898,12953
1659516031.893198,13014
1659516031.934207,13083
1659516031.975215,13142
1659516032.013832,13215
1659516032.052449,13278
1659516032.091066,13333
1659516032.131562,13378
1659516032.172058,13416
1659516032.211359,13475
1659516032.250659,13521
1659516032.289959,13548
1659516032.334044,13396
1659516032.378128,13157
1659516032.422213,12999
1659516032.45502,12934
1659516032.487827,12920
1659516032.532253,12902
1659516032.576679,12909
1659516032.621106,12888
1659516032.66314,12849
1659516032.705174,12837
1659516032.744133,12865
1659516032.783091,12910
1659516032.822049,12955
1659516032.861008,12988
1659516032.899966,13021
1659516032.938925,13056
1659516032.979934,13095
1659516033.020942,13121
1659516033.058876,13157
1659516033.096809,13165
1659516033.134742,13187
1659516033.174042,13226
1659516033.213343,13226
1659516033.252643,13051
1659516033.294677,12876
1659516033.336711,12841
1659516033.374644,12832
1659516033.412577,12810
1659516033.450511,12768
1659516033.493057,12726
1659516033.535604,12670
1659516033.574563,12605
1659516033.613521,12596
1659516033.65248,12624
1659516033.694001,12694
1659516033.735523,12763
1659516033.774823,12844
1659516033.814123,12910
1659516033.853423,12962
1659516033.894945,13027
1659516033.936466,13065
1659516033.974741,13097
1659516034.013016,13139
1659516034.051291,13191
1659516034.096059,13239
1659516034.140827,13269
1659516034.185595,13135
1659516034.228142,12883
1659516034.270689,12717
1659516034.308622,12662
1659516034.346555,12640
1659516034.384488,12653
1659516034.425497,12658
1659516034.466506,12634
1659516034.506148,12613
1659516034.54579,12605
1659516034.585432,12638
1659516034.623707,12679
1659516034.661982,12731
1659516034.700257,12784
1659516034.742804,12842
1659516034.78535,12891
1659516034.824651,12957
1659516034.863951,13041
1659516034.903251,13147
1659516034.94426,13312
1659516034.985269,13487
1659516035.023544,13647
1659516035.061819,13786
1659516035.100094,13854
1659516035.139736,13687
1659516035.179378,13411
1659516035.219019,13203
1659516035.259516,13111
1659516035.300012,13079
1659516035.338629,13072
1659516035.377245,13072
1659516035.415862,13040
1659516035.456871,13014
1659516035.49788,13019
1659516035.536839,13045
1659516035.575797,13108
1659516035.614755,13161
1659516035.655764,13233
1659516035.696773,13282
1659516035.741541,13339
1659516035.786309,13391
1659516035.831077,13446
1659516035.869694,13504
1659516035.908311,13568
1659516035.946928,13642
1659516035.988449,13719
1659516036.02997,13808
1659516036.069613,13761
1659516036.109254,13566
1659516036.148896,13368
1659516036.189905,13285
1659516036.230914,13283
1659516036.269189,13310
1659516036.307464,13350
1659516036.345739,13349
1659516036.384697,13325
1659516036.423656,13320
1659516036.462614,13343
1659516036.504648,13402
1659516036.546683,13458
1659516036.585299,13497
1659516036.623916,13550
1659516036.662533,13586
1659516036.703542,13636
1659516036.74455,13681
1659516036.784193,13719
1659516036.823834,13778
1659516036.863476,13838
1659516036.902093,13907
1659516036.94071,13900
1659516036.979326,13743
1659516037.021361,13458
1659516037.063395,13265
1659516037.105429,13193
1659516037.147463,13139
1659516037.186421,13106
1659516037.22538,13089
1659516037.264338,13028
1659516037.308423,12952
1659516037.352508,12893
1659516037.396592,12860
1659516037.435892,12852
1659516037.475193,12874
1659516037.514493,12873
1659516037.552768,12917
1659516037.591043,12932
1659516037.629318,12959
1659516037.671352,12986
1659516037.713386,13040
1659516037.752686,13094
1659516037.791986,13145
1659516037.831286,13214
1659516037.872295,13276
1659516037.913304,13218
1659516037.951579,12915
1659516037.989854,12567
1659516038.028129,12395
1659516038.068113,12302
1659516038.108097,12225
1659516038.14808,12208
1659516038.189089,12215
1659516038.230098,12195
1659516038.269056,12178
1659516038.308015,12170
1659516038.346973,12199
1659516038.387982,12257
1659516038.428991,12319
1659516038.46795,12375
1659516038.506908,12449
1659516038.545866,12505
1659516038.586363,12558
1659516038.626859,12631
1659516038.671627,12697
1659516038.716395,12769
1659516038.761163,12838
1659516038.793458,12912
1659516038.825752,12973
1659516038.869837,12898
1659516038.913921,12600
1659516038.958006,12315
1659516038.99799,12192
1659516039.037973,12146
1659516039.077957,12119
1659516039.119478,12123
1659516039.161,12127
1659516039.199275,12090
1659516039.23755,12091
1659516039.275825,12100
1659516039.318372,12149
1659516039.360918,12201
1659516039.400218,12244
1659516039.439519,12291
1659516039.478819,12337
1659516039.517436,12389
1659516039.556052,12446
1659516039.594669,12511
1659516039.635678,12585
1659516039.676687,12658
1659516039.715304,12736
1659516039.75392,12817
1659516039.792537,12883
1659516039.830812,12817
1659516039.869087,12517
1659516039.907362,12202
1659516039.949909,12043
1659516039.992455,11937
1659516040.031072,11845
1659516040.069689,11817
1659516040.108305,11811
1659516040.15034,11773
1659516040.192374,11746
1659516040.234408,11771
1659516040.276442,11830
1659516040.315742,11906
1659516040.355042,11985
1659516040.394343,12039
1659516040.438769,12089
1659516040.483195,12147
1659516040.527622,12191
1659516040.566922,12216
1659516040.606222,12228
1659516040.645522,12214
1659516040.687044,12237
1659516040.728565,12285
1659516040.76684,12365
1659516040.805115,12359
1659516040.84339,12130
1659516040.884912,11800
1659516040.926433,11573
1659516040.965392,11475
1659516041.00435,11399
1659516041.043308,11362
1659516041.081583,11336
1659516041.119859,11277
1659516041.158134,11211
1659516041.199655,11169
1659516041.241176,11180
1659516041.279793,11223
1659516041.31841,11285
1659516041.357027,11356
1659516041.396327,11418
1659516041.435627,11476
1659516041.474927,11535
1659516041.515936,11593
1659516041.556945,11639
1659516041.596245,11695
1659516041.635545,11760
1659516041.674845,11827
1659516041.715854,11838
1659516041.756863,11624
1659516041.800606,11272
1659516041.844349,11007
1659516041.888092,10876
1659516041.921412,10797
1659516041.954731,10777
1659516041.999158,10801
1659516042.043584,10792
1659516042.08801,10794
1659516042.124918,10815
1659516042.161826,10858
1659516042.198734,10934
1659516042.235642,11010
1659516042.277676,11080
1659516042.31971,11150
1659516042.358669,11217
1659516042.397627,11283
1659516042.436586,11345
1659516042.478107,11416
1659516042.519629,11483
1659516042.558929,11567
1659516042.598229,11641
1659516042.637529,11721
1659516042.679564,11705
1659516042.721598,11478
1659516042.759531,11204
1659516042.797464,11045
1659516042.835397,10953
1659516042.878457,10904
1659516042.921516,10929
1659516042.960133,10955
1659516042.998749,10957
1659516043.037366,10952
1659516043.081451,10938
1659516043.125535,10996
1659516043.16962,11079
1659516043.210629,11183
1659516043.251638,11302
1659516043.290938,11402
1659516043.330238,11507
1659516043.369538,11573
1659516043.407813,11645
1659516043.446088,11711
1659516043.484363,11787
1659516043.52691,11885
1659516043.569457,11971
1659516043.608757,12075
1659516043.648057,12055
1659516043.687357,11899
1659516043.728366,11743
1659516043.769375,11682
1659516043.808334,11649
1659516043.847292,11645
1659516043.88625,11674
1659516043.928797,11679
1659516043.971344,11679
1659516044.009277,11652
1659516044.04721,11666
1659516044.085144,11714
1659516044.12376,11769
1659516044.162377,11838
1659516044.200994,11893
1659516044.242515,11974
1659516044.284037,12035
1659516044.322995,12113
1659516044.361954,12173
1659516044.400912,12238
1659516044.441921,12320
1659516044.48293,12388
1659516044.52223,12454
1659516044.56153,12450
1659516044.600831,12317
1659516044.64184,12121
1659516044.682848,11997
1659516044.727275,11933
1659516044.771701,11879
1659516044.816127,11877
1659516044.855428,11887
1659516044.894728,11882
1659516044.934028,11871
1659516044.975549,11875
1659516045.017071,11905
1659516045.055346,11952
1659516045.093621,12012
1659516045.131896,12063
1659516045.173417,12138
1659516045.214939,12192
1659516045.253897,12253
1659516045.292856,12310
1659516045.331814,12378
1659516045.370089,12435
1659516045.408364,12502
1659516045.446639,12571
1659516045.488161,12647
1659516045.529682,12658
1659516045.568299,12508
1659516045.606915,12265
1659516045.645532,12106
1659516045.684491,12021
1659516045.723449,11970
1659516045.762408,11962
1659516045.804954,11979
1659516045.847501,11999
1659516045.886801,12010
1659516045.926101,12037
1659516045.965402,12084
1659516046.006923,12153
1659516046.048445,12212
1659516046.087061,12272
1659516046.125678,12358
1659516046.164295,12423
1659516046.207354,12493
1659516046.250413,12552
1659516046.294156,12609
1659516046.337899,12679
1659516046.381642,12745
1659516046.414449,12807
1659516046.447256,12877
1659516046.491683,12863
1659516046.536109,12689
1659516046.580535,12486
1659516046.61488,12356
1659516046.649225,12310
1659516046.692968,12306
1659516046.736711,12310
1659516046.780453,12311
1659516046.819754,12293
1659516046.859054,12281
1659516046.898354,12286
1659516046.939876,12332
1659516046.981397,12393
1659516047.020356,12444
1659516047.059314,12507
1659516047.098273,12573
1659516047.140307,12636
1659516047.182341,12707
1659516047.221299,12755
1659516047.260258,12795
1659516047.299216,12868
1659516047.337149,12928
1659516047.375082,12991
1659516047.413016,13045
1659516047.452316,12944
1659516047.491616,12695
1659516047.530916,12437
1659516047.574659,12310
1659516047.618402,12247
1659516047.662145,12197
1659516047.70042,12188
1659516047.738695,12166
1659516047.77697,12149
1659516047.819516,12129
1659516047.862063,12147
1659516047.90068,12186
1659516047.939297,12250
1659516047.977913,12317
1659516048.016872,12375
1659516048.05583,12445
1659516048.094789,12521
1659516048.136823,12579
1659516048.178857,12650
1659516048.217132,12707
1659516048.255407,12776
1659516048.293682,12852
1659516048.335203,12921
1659516048.376725,12920
1659516048.416025,12721
1659516048.455325,12477
1659516048.494626,12320
1659516048.535635,12269
1659516048.576643,12249
1659516048.61526,12250
1659516048.653877,12260
1659516048.692493,12246
1659516048.73504,12235
1659516048.777587,12228
1659516048.815862,12278
1659516048.854137,12328
1659516048.892412,12392
1659516048.936496,12465
1659516048.980581,12530
1659516049.024666,12586
1659516049.058498,12638
1659516049.09233,12706
1659516049.137098,12759
1659516049.181866,12828
1659516049.226635,12898
1659516049.268156,12969
1659516049.309677,12937
1659516049.349319,12716
1659516049.388961,12452
1659516049.428603,12310
1659516049.46722,12248
1659516049.505837,12214
1659516049.544453,12239
1659516049.58495,12254
1659516049.625446,12243
1659516049.664404,12234
1659516049.703363,12252
1659516049.742321,12307
1659516049.784868,12362
1659516049.827415,12417
1659516049.86569,12491
1659516049.903965,12548
1659516049.94224,12613
1659516049.980856,12665
1659516050.019473,12738
1659516050.05809,12793
1659516050.100124,12852
1659516050.142158,12922
1659516050.181117,12986
1659516050.220075,13025
1659516050.259033,12884
1659516050.300555,12601
1659516050.342077,12376
1659516050.381035,12272
1659516050.419993,12203
1659516050.458952,12183
1659516050.500473,12182
1659516050.541995,12185
1659516050.581295,12179
1659516050.620595,12182
1659516050.659895,12213
1659516050.700392,12271
1659516050.740888,12349
1659516050.784973,12421
1659516050.829057,12499
1659516050.873142,12573
1659516050.911758,12645
1659516050.950375,12720
1659516050.988992,12785
1659516051.030513,12856
1659516051.072035,12939
1659516051.110993,12991
1659516051.149952,13063
1659516051.18891,13083
1659516051.227527,12912
1659516051.266144,12663
1659516051.30476,12515
1659516051.345769,12466
1659516051.386778,12431
1659516051.426078,12455
1659516051.465379,12470
1659516051.504679,12466
1659516051.5462,12455
1659516051.587722,12464
1659516051.62668,12506
1659516051.665639,12566
1659516051.704597,12627
1659516051.743556,12684
1659516051.782514,12754
1659516051.821473,12816
1659516051.861969,12868
1659516051.902465,12927
1659516051.941424,12980
1659516051.980382,13049
1659516052.019341,13107
1659516052.061887,13177
1659516052.104434,13232
1659516052.148177,13150
1659516052.19192,12921
1659516052.235662,12691
1659516052.268982,12607
1659516052.302302,12553
1659516052.347412,12527
1659516052.392521,12537
1659516052.437631,12555
1659516052.470951,12561
1659516052.504271,12556
1659516052.548697,12591
1659516052.593123,12638
1659516052.63755,12704
1659516052.675483,12769
1659516052.713416,12848
1659516052.751349,12903
1659516052.789283,12958
1659516052.829779,13021
1659516052.870275,13086
1659516052.909234,13144
1659516052.948192,13205
1659516052.98715,13284
1659516053.028159,13363
1659516053.069168,13427
1659516053.107785,13472
1659516053.146402,13347
1659516053.185019,13132
1659516053.22654,12998
1659516053.268061,12949
1659516053.306678,12936
1659516053.345295,12932
1659516053.383912,12963
1659516053.427996,12984
1659516053.472081,12981
1659516053.516165,13002
1659516053.549998,13043
1659516053.58383,13109
1659516053.62894,13167
1659516053.67405,13236
1659516053.719159,13293
1659516053.760168,13356
1659516053.801177,13415
1659516053.840136,13457
1659516053.879094,13513
1659516053.918052,13570
1659516053.956669,13640
1659516053.995286,13698
1659516054.033903,13752
1659516054.075424,13786
1659516054.116946,13688
1659516054.155221,13471
1659516054.193496,13296
1659516054.231771,13241
1659516054.273292,13216
1659516054.314814,13216
1659516054.353089,13241
1659516054.391364,13240
1659516054.429639,13227
1659516054.468597,13229
1659516054.507555,13282
1659516054.546514,13343
1659516054.589061,13416
1659516054.631607,13475
1659516054.670224,13524
1659516054.708841,13575
1659516054.747458,13614
1659516054.788466,13663
1659516054.829475,13720
1659516054.868776,13772
1659516054.908076,13830
1659516054.947376,13906
1659516054.98941,13968
1659516055.031444,14001
1659516055.075871,13896
1659516055.120297,13673
1659516055.164723,13501
1659516055.19753,13437
1659516055.230337,13414
1659516055.274764,13389
1659516055.31919,13423
1659516055.363616,13440
1659516055.401891,13432
1659516055.440166,13448
1659516055.478441,13478
1659516055.520988,13537
1659516055.563535,13574
1659516055.602493,13625
1659516055.641452,13677
1659516055.68041,13735
1659516055.721931,13781
1659516055.763453,13819
1659516055.802412,13874
1659516055.84137,13919
1659516055.880328,13977
1659516055.91997,14019
1659516055.959612,14073
1659516055.999254,14085
1659516056.040776,13949
1659516056.082297,13731
1659516056.120914,13597
1659516056.159531,13565
1659516056.198147,13538
1659516056.239669,13577
1659516056.28119,13598
1659516056.319807,13588
1659516056.358424,13587
1659516056.397041,13591
1659516056.435999,13627
1659516056.474957,13668
1659516056.513916,13719
1659516056.55595,13764
1659516056.597984,13808
1659516056.638993,13842
1659516056.680002,13880
1659516056.718277,13922
1659516056.756552,13953
1659516056.794827,13988
1659516056.839595,14025
1659516056.884363,14071
1659516056.929131,14074
1659516056.962963,13935
1659516056.996796,13688
1659516057.04088,13534
1659516057.084965,13511
1659516057.129049,13547
1659516057.162369,13603
1659516057.195689,13654
1659516057.239774,13640
1659516057.283858,13599
1659516057.327943,13515
1659516057.366559,13390
1659516057.405176,13213
1659516057.443793,13019
1659516057.485314,12797
1659516057.526836,12553
1659516057.565794,12241
1659516057.604753,11884
1659516057.643711,11467
1659516057.681644,10977
1659516057.719578,10110
1659516057.757511,8721
1659516057.80057,8137
1659516057.843629,7965
