LocalTimestamp,PG
1659521604.290655,7649
1659521604.328887,7732
1659521604.367118,7841
1659521604.405349,8048
1659521604.447335,8247
1659521604.489321,8426
1659521604.528918,8536
1659521604.568515,8573
1659521604.608111,8618
1659521604.646342,8674
1659521604.684574,8723
1659521604.722805,8778
1659521604.764791,8838
1659521604.806777,8889
1659521604.846374,8920
1659521604.88597,8929
1659521604.925567,8907
1659521604.967041,8893
1659521605.008515,8945
1659521605.047429,9003
1659521605.086343,9092
1659521605.125257,9151
1659521605.166731,9218
1659521605.208205,9275
1659521605.252239,9291
1659521605.296273,9275
1659521605.340308,9252
1659521605.374101,9237
1659521605.407895,9245
1659521605.452612,9320
1659521605.497329,9379
1659521605.542046,9425
1659521605.580618,9503
1659521605.619191,9595
1659521605.657764,9686
1659521605.698726,9761
1659521605.739688,9821
1659521605.779626,9819
1659521605.819564,9809
1659521605.859502,9845
1659521605.900976,9920
1659521605.94245,9992
1659521605.981022,10048
1659521606.019595,10095
1659521606.058168,10128
1659521606.097082,10196
1659521606.135996,10255
1659521606.17491,10319
1659521606.216896,10369
1659521606.258882,10422
1659521606.297113,10483
1659521606.335344,10539
1659521606.373575,10594
1659521606.41505,10642
1659521606.456524,10684
1659521606.494755,10736
1659521606.532986,10786
1659521606.571217,10828
1659521606.610131,10861
1659521606.649045,10899
1659521606.687959,10917
1659521606.729945,10927
1659521606.771931,10924
1659521606.813917,10924
1659521606.855904,10960
1659521606.894476,11025
1659521606.933049,11094
1659521606.971621,11145
1659521607.016338,11187
1659521607.061055,11213
1659521607.105772,11230
1659521607.139054,11251
1659521607.172335,11270
1659521607.211864,11299
1659521607.251392,11340
1659521607.29092,11372
1659521607.330449,11401
1659521607.369977,11398
1659521607.412475,11387
1659521607.454973,11412
1659521607.499008,11437
1659521607.543042,11464
1659521607.587076,11486
1659521607.62599,11508
1659521607.664904,11529
1659521607.703818,11570
1659521607.745292,11590
1659521607.786766,11623
1659521607.82568,11656
1659521607.864594,11669
1659521607.903508,11684
1659521607.94208,11696
1659521607.980653,11704
1659521608.019226,11713
1659521608.061724,11721
1659521608.104222,11719
1659521608.143477,11714
1659521608.182733,11730
1659521608.221988,11754
1659521608.260561,11791
1659521608.299133,11824
1659521608.337706,11861
1659521608.37918,11918
1659521608.420654,11985
1659521608.459909,12021
1659521608.499164,12054
1659521608.53842,12079
1659521608.579894,12086
1659521608.621368,12077
1659521608.660282,12072
1659521608.699196,12042
1659521608.73811,12018
1659521608.779584,12020
1659521608.821058,12026
1659521608.859289,12042
1659521608.89752,12053
1659521608.935752,12075
1659521608.980469,12090
1659521609.025185,12115
1659521609.069902,12140
1659521609.112401,12150
1659521609.154899,12163
1659521609.193471,12164
1659521609.232044,12163
1659521609.270616,12156
1659521609.31209,12115
1659521609.353565,12060
1659521609.392478,11996
1659521609.431392,11927
1659521609.470306,11833
1659521609.508879,11790
1659521609.547451,11759
1659521609.586024,11736
1659521609.626986,11679
1659521609.667948,11647
1659521609.706862,11640
1659521609.745776,11632
1659521609.78469,11657
1659521609.82258,11742
1659521609.86047,11841
1659521609.89836,11900
1659521609.940858,11956
1659521609.983356,12002
1659521610.02227,12020
1659521610.061184,12047
1659521610.100098,12050
1659521610.141572,12061
1659521610.183046,12082
1659521610.221619,12110
1659521610.260191,12138
1659521610.298764,12169
1659521610.34075,12195
1659521610.382736,12217
1659521610.424722,12234
1659521610.466708,12256
1659521610.505281,12256
1659521610.543853,12283
1659521610.582426,12290
1659521610.6239,12299
1659521610.665374,12314
1659521610.704629,12324
1659521610.743885,12335
1659521610.78314,12343
1659521610.82359,12339
1659521610.86404,12341
1659521610.902954,12374
1659521610.941868,12367
1659521610.980782,12358
1659521611.025157,12386
1659521611.069533,12400
1659521611.113909,12409
1659521611.14719,12422
1659521611.180472,12438
1659521611.22553,12441
1659521611.270588,12458
1659521611.315647,12466
1659521611.357121,12473
1659521611.398595,12497
1659521611.437167,12502
1659521611.47574,12504
1659521611.514313,12510
1659521611.553568,12512
1659521611.592823,12532
1659521611.632078,12532
1659521611.674577,12544
1659521611.717075,12541
1659521611.755306,12558
1659521611.793537,12571
1659521611.831769,12585
1659521611.87273,12592
1659521611.913692,12593
1659521611.952606,12612
1659521611.99152,12622
1659521612.030434,12631
1659521612.068666,12636
1659521612.106897,12653
1659521612.145128,12657
1659521612.187114,12667
1659521612.2291,12692
1659521612.268014,12694
1659521612.306928,12707
1659521612.345842,12721
1659521612.387316,12734
1659521612.42879,12745
1659521612.468933,12732
1659521612.509076,12725
1659521612.549219,12741
1659521612.589362,12746
1659521612.629504,12755
1659521612.669238,12768
1659521612.708971,12784
1659521612.748704,12789
1659521612.788437,12804
1659521612.82817,12817
1659521612.870156,12833
1659521612.912143,12862
1659521612.951056,12894
1659521612.98997,12909
1659521613.028884,12927
1659521613.072236,12935
1659521613.115587,12945
1659521613.158939,12956
1659521613.191196,12963
1659521613.223454,12966
1659521613.268171,12971
1659521613.312888,12987
1659521613.357605,13008
1659521613.396519,13028
1659521613.435433,13038
1659521613.474347,13041
1659521613.516333,13046
1659521613.558319,13059
1659521613.597574,13056
1659521613.636829,13050
1659521613.676085,13026
1659521613.717559,13035
1659521613.759033,13057
1659521613.797606,13064
1659521613.836178,13094
1659521613.874751,13099
1659521613.914006,13128
1659521613.953261,13126
1659521613.992517,13113
1659521614.033991,13066
1659521614.075465,12961
1659521614.114037,12885
1659521614.15261,12834
1659521614.191182,12780
1659521614.233169,12750
1659521614.275155,12725
1659521614.313727,12742
1659521614.3523,12729
1659521614.390872,12768
1659521614.432347,12960
1659521614.473821,13120
1659521614.513417,13137
1659521614.553014,13099
1659521614.592611,13106
1659521614.634085,13075
1659521614.675559,13083
1659521614.714131,13088
1659521614.752704,13105
1659521614.791276,13118
1659521614.833775,13142
1659521614.876273,13152
1659521614.918259,13158
1659521614.960245,13169
1659521615.002231,13167
1659521615.044217,13166
1659521615.08279,13147
1659521615.121362,13135
1659521615.159935,13140
1659521615.201409,13142
1659521615.242883,13135
1659521615.281114,13137
1659521615.319345,13138
1659521615.357577,13132
1659521615.396149,13120
1659521615.434722,13133
1659521615.473295,13136
1659521615.515793,13138
1659521615.558291,13146
1659521615.596864,13150
1659521615.635436,13175
1659521615.674009,13179
1659521615.715483,13176
1659521615.756957,13203
1659521615.802015,13214
1659521615.847073,13214
1659521615.892132,13222
1659521615.925413,13226
1659521615.958695,13240
1659521616.002729,13253
1659521616.046763,13258
1659521616.090797,13258
1659521616.123567,13274
1659521616.156337,13278
1659521616.200712,13271
1659521616.245088,13276
1659521616.289464,13287
1659521616.327695,13289
1659521616.365926,13289
1659521616.404157,13284
1659521616.446655,13294
1659521616.489153,13316
1659521616.527726,13335
1659521616.566299,13353
1659521616.604871,13371
1659521616.643444,13359
1659521616.682016,13366
1659521616.720589,13366
1659521616.762575,13364
1659521616.804561,13358
1659521616.843475,13355
1659521616.882389,13358
1659521616.921303,13356
1659521616.963289,13363
1659521617.005275,13356
1659521617.044531,13367
1659521617.083786,13380
1659521617.123041,13363
1659521617.162297,13349
1659521617.201552,13350
1659521617.240807,13361
1659521617.2845,13355
1659521617.328193,13364
1659521617.371886,13381
1659521617.4108,13395
1659521617.449713,13410
1659521617.488627,13407
1659521617.530613,13423
1659521617.5726,13427
1659521617.611514,13429
1659521617.650428,13430
1659521617.689342,13442
1659521617.730816,13444
1659521617.77229,13449
1659521617.813764,13454
1659521617.855238,13457
1659521617.894493,13468
1659521617.933748,13446
1659521617.973004,13444
1659521618.011918,13460
1659521618.050832,13469
1659521618.089746,13474
1659521618.131732,13488
1659521618.173718,13512
1659521618.212632,13515
1659521618.251546,13533
1659521618.29046,13527
1659521618.328691,13538
1659521618.366922,13549
1659521618.405153,13542
1659521618.448164,13554
1659521618.491174,13552
1659521618.529405,13563
1659521618.567636,13571
1659521618.605867,13585
1659521618.646317,13586
1659521618.686767,13583
1659521618.726023,13580
1659521618.765278,13589
1659521618.804533,13585
1659521618.846007,13597
1659521618.887481,13600
1659521618.931516,13601
1659521618.97555,13607
1659521619.019584,13625
1659521619.052866,13623
1659521619.086147,13638
1659521619.130864,13644
1659521619.175581,13647
1659521619.220298,13652
1659521619.258529,13647
1659521619.296761,13664
1659521619.334992,13679
1659521619.37749,13684
1659521619.419988,13692
1659521619.457366,13688
1659521619.494744,13698
1659521619.532122,13701
1659521619.569499,13711
1659521619.613192,13718
1659521619.656885,13730
1659521619.700578,13740
1659521619.739833,13749
1659521619.779089,13756
1659521619.818344,13765
1659521619.858794,13770
1659521619.899244,13773
1659521619.937817,13781
1659521619.976389,13794
1659521620.014962,13793
1659521620.057972,13797
1659521620.100982,13801
1659521620.139896,13819
1659521620.17881,13819
1659521620.217724,13821
1659521620.256638,13852
1659521620.295552,13855
1659521620.334466,13865
1659521620.376452,13865
1659521620.418438,13868
1659521620.456669,13860
1659521620.4949,13867
1659521620.533132,13870
1659521620.575118,13877
1659521620.617104,13877
1659521620.656018,13880
1659521620.694932,13886
1659521620.733846,13891
1659521620.772418,13894
1659521620.810991,13894
1659521620.849564,13889
1659521620.890526,13896
1659521620.931488,13901
1659521620.970402,13903
1659521621.009315,13908
1659521621.048229,13919
1659521621.090216,13936
1659521621.132202,13931
1659521621.176577,13927
1659521621.220953,13941
1659521621.265328,13945
1659521621.29861,13949
1659521621.331892,13950
1659521621.376609,13963
1659521621.421325,13959
1659521621.466042,13983
1659521621.499324,13975
1659521621.532606,13975
1659521621.577323,13980
1659521621.62204,13991
1659521621.666756,14001
1659521621.705329,13999
1659521621.743902,14004
1659521621.782474,13991
1659521621.820705,13997
1659521621.858937,14004
1659521621.897168,14006
1659521621.93574,14008
1659521621.974313,14008
1659521622.012886,14010
1659521622.054872,14008
1659521622.096858,14009
1659521622.135431,14008
1659521622.174003,14014
1659521622.212576,14028
1659521622.25405,14031
1659521622.295524,14048
1659521622.334438,14052
1659521622.373352,14056
1659521622.412266,14074
1659521622.4563,14070
1659521622.500334,14067
1659521622.544368,14074
1659521622.586354,14077
1659521622.62834,14079
1659521622.667254,14085
1659521622.706168,14095
1659521622.745082,14095
1659521622.783655,14108
1659521622.822227,14108
1659521622.8608,14113
1659521622.901762,14126
1659521622.942724,14129
1659521622.980358,14143
1659521623.017992,14150
1659521623.055626,14156
1659521623.09326,14145
1659521623.134478,14154
1659521623.175696,14155
1659521623.216914,14163
1659521623.258132,14166
1659521623.300118,14174
1659521623.342104,14190
1659521623.38136,14191
1659521623.420615,14181
1659521623.45987,14195
1659521623.501856,14194
1659521623.543842,14203
1659521623.583098,14204
1659521623.622353,14207
1659521623.661608,14208
1659521623.700522,14219
1659521623.739436,14221
1659521623.77835,14218
1659521623.8188,14236
1659521623.85925,14235
1659521623.898505,14252
1659521623.937761,14253
1659521623.977016,14266
1659521624.017246,14278
1659521624.057477,14275
1659521624.097708,14276
1659521624.137938,14278
1659521624.178169,14285
1659521624.2184,14280
1659521624.25863,14284
1659521624.299007,14300
1659521624.339384,14288
1659521624.379761,14297
1659521624.420138,14315
1659521624.460515,14316
1659521624.500891,14311
1659521624.541268,14314
1659521624.580523,14312
1659521624.619779,14322
1659521624.659034,14336
1659521624.703068,14339
1659521624.747102,14359
1659521624.791137,14370
1659521624.830051,14367
1659521624.868965,14376
1659521624.907879,14382
1659521624.947134,14380
1659521624.986389,14382
1659521625.025645,14383
1659521625.066094,14384
1659521625.106544,14384
1659521625.145117,14387
1659521625.18369,14384
1659521625.222262,14398
1659521625.263224,14381
1659521625.304186,14389
1659521625.3431,14378
1659521625.382014,14400
1659521625.420928,14389
1659521625.459501,14402
1659521625.498073,14399
1659521625.536646,14401
1659521625.578632,14409
1659521625.620618,14401
1659521625.66158,14404
1659521625.702542,14414
1659521625.741798,14407
1659521625.781053,14414
1659521625.820308,14409
1659521625.865366,14420
1659521625.910425,14416
1659521625.955483,14421
1659521625.988253,14424
1659521626.021022,14427
1659521626.065398,14443
1659521626.109773,14447
1659521626.154149,14437
1659521626.187943,14445
1659521626.221736,14444
1659521626.26577,14449
1659521626.309805,14450
1659521626.353839,14454
1659521626.392411,14463
1659521626.430984,14464
1659521626.469557,14468
1659521626.511031,14469
1659521626.552505,14485
1659521626.591419,14464
1659521626.630333,14461
1659521626.669247,14469
1659521626.711233,14469
1659521626.753219,14477
1659521626.792474,14468
1659521626.831729,14469
1659521626.870985,14467
1659521626.91024,14486
1659521626.949495,14484
1659521626.988751,14500
1659521627.030225,14506
1659521627.071699,14512
1659521627.110271,14514
1659521627.148844,14512
1659521627.187417,14517
1659521627.229915,14505
1659521627.272413,14517
1659521627.310985,14516
1659521627.349558,14525
1659521627.388131,14528
1659521627.429093,14520
1659521627.470055,14536
1659521627.50931,14533
1659521627.548565,14531
1659521627.587821,14532
1659521627.629807,14532
1659521627.671793,14534
1659521627.709683,14528
1659521627.747573,14533
1659521627.785463,14534
1659521627.830179,14535
1659521627.874896,14536
1659521627.919613,14537
1659521627.961087,14536
1659521628.002561,14538
1659521628.041475,14545
1659521628.080389,14553
1659521628.119303,14550
1659521628.160777,14555
1659521628.202251,14552
1659521628.241985,14556
1659521628.281718,14557
1659521628.321451,14566
1659521628.361184,14566
1659521628.400917,14567
1659521628.434711,14578
1659521628.468505,14577
1659521628.51288,14574
1659521628.557256,14583
1659521628.601631,14586
1659521628.639521,14585
1659521628.677411,14586
1659521628.715301,14594
1659521628.756775,14594
1659521628.798249,14612
1659521628.837504,14602
1659521628.87676,14605
1659521628.916015,14615
1659521628.957489,14609
1659521628.998963,14609
1659521629.038218,14602
1659521629.077474,14605
1659521629.116729,14600
1659521629.155643,14623
1659521629.194557,14619
1659521629.233471,14619
1659521629.274945,14628
1659521629.316419,14624
1659521629.354992,14628
1659521629.393564,14635
1659521629.432137,14632
1659521629.474635,14635
1659521629.517133,14638
1659521629.555364,14642
1659521629.593596,14642
1659521629.631827,14644
1659521629.673301,14656
1659521629.714775,14655
1659521629.753689,14662
1659521629.792603,14647
1659521629.831517,14644
1659521629.873503,14641
1659521629.915489,14625
1659521629.954403,14603
1659521629.993317,14591
1659521630.032231,14595
1659521630.077289,14586
1659521630.122347,14598
1659521630.167406,14603
1659521630.20888,14597
1659521630.250354,14598
1659521630.289268,14606
1659521630.328182,14610
1659521630.367096,14618
1659521630.409594,14614
1659521630.452092,14613
1659521630.490323,14622
1659521630.528554,14631
1659521630.566786,14620
1659521630.605017,14607
1659521630.643248,14594
1659521630.681479,14599
1659521630.722954,14593
1659521630.764427,14592
1659521630.803341,14591
1659521630.842255,14570
1659521630.881169,14550
1659521630.922131,14538
1659521630.963094,14554
1659521631.001666,14558
1659521631.040239,14559
1659521631.078811,14559
1659521631.117725,14523
1659521631.156639,14520
1659521631.195553,14524
1659521631.237027,14530
1659521631.278501,14550
1659521631.317415,14541
1659521631.356329,14541
1659521631.395243,14537
1659521631.436717,14537
1659521631.478191,14545
1659521631.517105,14545
1659521631.556019,14556
1659521631.594933,14551
1659521631.636919,14569
1659521631.678905,14559
1659521631.723622,14559
1659521631.768339,14570
1659521631.813056,14577
1659521631.845826,14574
1659521631.878595,14575
1659521631.922288,14575
1659521631.965981,14570
1659521632.009674,14570
1659521632.048246,14565
1659521632.086819,14562
1659521632.125391,14566
1659521632.167378,14550
1659521632.209364,14533
1659521632.247936,14527
1659521632.286509,14535
1659521632.325082,14535
1659521632.364678,14541
1659521632.404275,14549
1659521632.443871,14564
1659521632.485346,14567
1659521632.52682,14568
1659521632.565392,14576
1659521632.603965,14598
1659521632.642537,14589
1659521632.681793,14589
1659521632.721048,14610
1659521632.760303,14611
1659521632.802289,14623
1659521632.844275,14624
1659521632.882507,14634
1659521632.920738,14639
1659521632.958969,14647
1659521633.000955,14638
1659521633.042942,14634
1659521633.086976,14653
1659521633.13101,14647
1659521633.175044,14656
1659521633.208326,14663
1659521633.241607,14668
1659521633.286666,14669
1659521633.331724,14681
1659521633.376782,14674
1659521633.416038,14671
1659521633.455293,14684
1659521633.494548,14677
1659521633.531926,14698
1659521633.569304,14675
1659521633.606682,14664
1659521633.64406,14666
1659521633.688776,14672
1659521633.733493,14665
1659521633.77821,14663
1659521633.816442,14668
1659521633.854673,14665
1659521633.892904,14648
1659521633.933866,14638
1659521633.974828,14643
1659521634.014083,14644
1659521634.053339,14633
1659521634.092594,14647
1659521634.131167,14642
1659521634.169739,14649
1659521634.208312,14650
1659521634.249786,14656
1659521634.29126,14663
1659521634.329833,14666
1659521634.368405,14666
1659521634.406978,14672
1659521634.44794,14667
1659521634.488902,14682
1659521634.528157,14678
1659521634.567412,14691
1659521634.606668,14711
1659521634.648142,14700
1659521634.689616,14704
1659521634.728189,14701
1659521634.766761,14722
1659521634.805334,14715
1659521634.85005,14725
1659521634.894768,14726
1659521634.939484,14738
1659521634.973278,14751
1659521635.007072,14758
1659521635.051106,14767
1659521635.09514,14767
1659521635.139174,14768
1659521635.171432,14762
1659521635.20369,14762
1659521635.248406,14768
1659521635.293123,14756
1659521635.33784,14759
1659521635.376071,14747
1659521635.414303,14744
1659521635.452534,14750
1659521635.495032,14740
1659521635.53753,14732
1659521635.576786,14726
1659521635.616041,14725
1659521635.655296,14725
1659521635.69677,14737
1659521635.738244,14720
1659521635.777158,14705
1659521635.816072,14706
1659521635.854986,14701
1659521635.894242,14686
1659521635.933497,14680
1659521635.972752,14668
1659521636.014738,14664
1659521636.056724,14646
1659521636.095297,14636
1659521636.133869,14636
1659521636.172442,14636
1659521636.213916,14627
1659521636.25539,14623
1659521636.294304,14627
1659521636.333218,14622
1659521636.372132,14621
1659521636.413606,14590
1659521636.45508,14568
1659521636.493653,14569
1659521636.532225,14572
1659521636.570798,14577
1659521636.612784,14570
1659521636.65477,14584
1659521636.693684,14585
1659521636.732598,14596
1659521636.771512,14601
1659521636.815887,14599
1659521636.860263,14615
1659521636.904639,14621
1659521636.947137,14630
1659521636.989635,14628
1659521637.028208,14633
1659521637.06678,14643
1659521637.105353,14632
1659521637.146827,14635
1659521637.188301,14624
1659521637.226873,14601
1659521637.265446,14598
1659521637.304019,14605
1659521637.342591,14619
1659521637.381164,14619
1659521637.419736,14616
1659521637.461723,14618
1659521637.503709,14621
1659521637.542623,14610
1659521637.581537,14613
1659521637.62045,14615
1659521637.661412,14610
1659521637.702374,14625
1659521637.740606,14616
1659521637.778837,14628
1659521637.817068,14626
1659521637.857006,14621
1659521637.896944,14609
1659521637.936882,14585
1659521637.977844,14570
1659521638.018806,14571
1659521638.057038,14580
1659521638.095269,14583
1659521638.1335,14575
1659521638.175998,14587
1659521638.218496,14583
1659521638.257752,14576
1659521638.297007,14567
1659521638.336262,14558
1659521638.376712,14557
1659521638.417162,14569
1659521638.461879,14569
1659521638.506596,14569
1659521638.551313,14576
1659521638.584083,14581
1659521638.616852,14583
1659521638.661228,14579
1659521638.705603,14554
1659521638.749979,14558
1659521638.787869,14561
1659521638.825759,14571
1659521638.863649,14568
1659521638.901539,14572
1659521638.940111,14591
1659521638.978684,14595
1659521639.017256,14613
1659521639.061973,14602
1659521639.10669,14607
1659521639.151407,14622
1659521639.194417,14612
1659521639.237427,14619
1659521639.276341,14620
1659521639.315255,14631
1659521639.354169,14627
1659521639.395131,14627
1659521639.436093,14636
1659521639.475348,14614
1659521639.514604,14610
1659521639.553859,14605
1659521639.592773,14623
1659521639.631687,14616
1659521639.670601,14627
1659521639.711563,14622
1659521639.752525,14635
1659521639.791439,14633
1659521639.830353,14642
1659521639.869267,14659
1659521639.910741,14653
1659521639.952215,14662
1659521639.991129,14676
1659521640.030043,14705
1659521640.068957,14737
1659521640.108212,14769
1659521640.147468,14788
1659521640.186723,14795
1659521640.227685,14790
1659521640.268647,14797
1659521640.307561,14799
1659521640.346475,14802
1659521640.385389,14802
1659521640.427375,14811
1659521640.469361,14822
1659521640.507934,14817
1659521640.546506,14830
1659521640.585079,14837
1659521640.626041,14832
1659521640.667003,14839
1659521640.711378,14834
1659521640.755754,14841
1659521640.800129,14842
1659521640.833411,14845
1659521640.866693,14852
1659521640.910727,14857
1659521640.954761,14853
1659521640.998796,14851
1659521641.037709,14860
1659521641.076623,14868
1659521641.115537,14850
1659521641.157523,14842
1659521641.19951,14853
1659521641.238082,14856
1659521641.276655,14867
1659521641.315227,14863
1659521641.354141,14869
1659521641.393055,14870
1659521641.431969,14857
1659521641.473955,14861
1659521641.515941,14862
1659521641.555197,14857
1659521641.594452,14864
1659521641.633707,14857
1659521641.674157,14857
1659521641.714607,14854
1659521641.753521,14848
1659521641.792435,14849
1659521641.831349,14850
1659521641.869922,14849
1659521641.908494,14847
1659521641.947067,14849
1659521641.989053,14839
1659521642.031039,14819
1659521642.070294,14807
1659521642.10955,14811
1659521642.148805,14799
1659521642.190279,14793
1659521642.231753,14796
1659521642.273227,14802
1659521642.314701,14801
1659521642.353957,14800
1659521642.393212,14804
1659521642.432467,14809
1659521642.476843,14805
1659521642.521218,14811
1659521642.565594,14816
1659521642.598363,14819
1659521642.631133,14823
1659521642.675509,14827
1659521642.719884,14832
1659521642.76426,14834
1659521642.798565,14828
1659521642.832871,14820
1659521642.876564,14823
1659521642.920257,14818
1659521642.96395,14792
1659521643.002522,14782
1659521643.041095,14776
1659521643.079668,14780
1659521643.121142,14774
1659521643.162616,14796
1659521643.200847,14785
1659521643.239078,14792
1659521643.277309,14800
1659521643.316906,14799
1659521643.356503,14795
1659521643.396099,14796
1659521643.438086,14787
1659521643.480072,14778
1659521643.518303,14798
1659521643.556534,14798
1659521643.594765,14804
1659521643.636751,14808
1659521643.678737,14807
1659521643.717993,14806
1659521643.757248,14792
1659521643.796503,14788
1659521643.836953,14777
1659521643.877403,14763
1659521643.915635,14761
1659521643.953866,14770
1659521643.992097,14791
1659521644.032035,14800
1659521644.071973,14838
1659521644.111911,14878
1659521644.151849,14898
1659521644.191787,14925
1659521644.235821,14935
1659521644.279855,14950
1659521644.32389,14956
1659521644.362804,14948
1659521644.401718,14936
1659521644.440632,14927
1659521644.482106,14915
1659521644.52358,14909
1659521644.562494,14915
1659521644.601408,14928
1659521644.640322,14933
1659521644.679577,14923
1659521644.718832,14924
1659521644.758087,14925
1659521644.799562,14921
1659521644.841036,14907
1659521644.880291,14905
1659521644.919546,14910
1659521644.958802,14916
1659521644.997715,14916
1659521645.036629,14918
1659521645.075543,14913
1659521645.116505,14908
1659521645.157468,14924
1659521645.199454,14922
1659521645.24144,14926
1659521645.280354,14923
1659521645.319268,14940
1659521645.358181,14938
1659521645.402216,14947
1659521645.44625,14942
1659521645.490284,14942
1659521645.523566,14948
1659521645.556848,14950
1659521645.601564,14949
1659521645.646281,14950
1659521645.690998,14951
1659521645.724792,14947
1659521645.758585,14938
1659521645.80262,14936
1659521645.846654,14950
1659521645.890688,14963
1659521645.92397,14972
1659521645.957252,14985
1659521646.001286,14995
1659521646.04532,15006
1659521646.089354,15014
1659521646.127927,15030
1659521646.166499,15030
1659521646.205072,15036
1659521646.247058,15034
1659521646.289044,15040
1659521646.327617,15045
1659521646.366189,15053
1659521646.404762,15048
1659521646.443335,15050
1659521646.481907,15064
1659521646.52048,15048
1659521646.561954,15053
1659521646.603428,15059
1659521646.643024,15060
1659521646.682621,15063
1659521646.722218,15068
1659521646.763692,15071
1659521646.805166,15067
1659521646.843397,15075
1659521646.881629,15076
1659521646.91986,15073
1659521646.962358,15064
1659521647.004856,15062
1659521647.04377,15067
1659521647.082684,15075
1659521647.121598,15058
1659521647.162048,15052
1659521647.202498,15047
1659521647.241753,15034
1659521647.281008,15034
1659521647.320264,15030
1659521647.364298,15006
1659521647.408332,15005
1659521647.452366,14999
1659521647.492816,14997
1659521647.533266,14996
1659521647.572863,14996
1659521647.61246,14996
1659521647.652056,14979
1659521647.69353,14983
1659521647.735004,14978
1659521647.773577,14955
1659521647.81215,14950
1659521647.850722,14936
1659521647.890319,14934
1659521647.929915,14920
1659521647.969512,14908
1659521648.011498,14889
1659521648.053484,14876
1659521648.091716,14847
1659521648.129947,14836
1659521648.168178,14838
1659521648.210676,14829
1659521648.253174,14843
1659521648.291747,14823
1659521648.33032,14837
1659521648.368892,14843
1659521648.407123,14853
1659521648.445355,14868
1659521648.483586,14874
1659521648.526084,14910
1659521648.568582,14931
1659521648.607496,14972
1659521648.64641,14990
1659521648.685324,15012
1659521648.725774,15040
1659521648.766224,15043
1659521648.805479,15051
1659521648.844735,15065
1659521648.88399,15071
1659521648.926488,15070
1659521648.968986,15079
1659521649.01302,15091
1659521649.057055,15089
1659521649.101089,15095
1659521649.13437,15102
1659521649.167652,15106
1659521649.21271,15115
1659521649.257769,15105
1659521649.302827,15101
1659521649.34256,15102
1659521649.382293,15107
1659521649.422026,15112
1659521649.46176,15104
1659521649.501493,15097
1659521649.540065,15096
1659521649.578638,15117
1659521649.617211,15103
1659521649.65766,15104
1659521649.698111,15106
1659521649.736342,15106
1659521649.774573,15109
1659521649.812804,15111
1659521649.85206,15122
1659521649.891315,15113
1659521649.93057,15121
1659521649.972044,15121
1659521650.013518,15123
1659521650.052432,15126
1659521650.091346,15130
1659521650.13026,15134
1659521650.172246,15132
1659521650.214232,15116
1659521650.253146,15122
1659521650.29206,15119
1659521650.330974,15108
1659521650.369888,15120
1659521650.408802,15110
1659521650.447716,15114
1659521650.489702,15133
1659521650.531688,15127
1659521650.57265,15127
1659521650.613612,15139
1659521650.652185,15143
1659521650.690758,15166
1659521650.72933,15171
1659521650.771828,15182
1659521650.814327,15185
1659521650.853582,15187
1659521650.892837,15192
1659521650.932092,15193
1659521650.975785,15204
1659521651.019478,15197
1659521651.063171,15193
1659521651.096452,15192
1659521651.129734,15196
1659521651.174451,15199
1659521651.219168,15217
1659521651.263885,15246
1659521651.305871,15259
1659521651.347857,15258
1659521651.386771,15259
1659521651.425685,15254
1659521651.464599,15253
1659521651.504196,15235
1659521651.543792,15242
1659521651.583389,15249
1659521651.623839,15254
1659521651.664289,15265
1659521651.703544,15270
1659521651.7428,15279
1659521651.782055,15279
1659521651.823529,15293
1659521651.865003,15303
1659521651.903576,15297
1659521651.942148,15302
1659521651.980721,15303
1659521652.018952,15291
1659521652.057183,15291
1659521652.095415,15298
1659521652.138425,15304
1659521652.181435,15299
1659521652.220007,15299
1659521652.25858,15302
1659521652.297153,15314
1659521652.338115,15322
1659521652.379077,15325
1659521652.418673,15321
1659521652.45827,15330
1659521652.497867,15330
1659521652.542242,15349
1659521652.586618,15345
1659521652.630993,15347
1659521652.663763,15348
1659521652.696533,15339
1659521652.74125,15343
1659521652.785966,15324
1659521652.830683,15317
1659521652.871645,15323
1659521652.912607,15292
1659521652.950497,15281
1659521652.988387,15269
1659521653.026277,15260
1659521653.065532,15222
1659521653.104788,15213
1659521653.144043,15205
1659521653.186029,15178
1659521653.228015,15163
1659521653.266247,15142
1659521653.304478,15139
1659521653.342709,15134
1659521653.381964,15120
1659521653.42122,15117
1659521653.460475,15121
1659521653.501949,15109
1659521653.543423,15098
1659521653.581995,15075
1659521653.620568,15077
1659521653.659141,15075
1659521653.701639,15081
1659521653.744137,15071
1659521653.783051,15066
1659521653.821965,15076
1659521653.860879,15076
1659521653.901329,15073
1659521653.941779,15061
1659521653.980693,15057
1659521654.019607,15050
1659521654.058521,15046
1659521654.101019,15038
1659521654.143517,15046
1659521654.187551,15054
1659521654.231586,15055
1659521654.27562,15056
1659521654.314533,15058
1659521654.353447,15066
1659521654.392361,15059
1659521654.434348,15065
1659521654.476334,15074
1659521654.514906,15077
1659521654.553479,15087
1659521654.592052,15083
1659521654.629941,15099
1659521654.667831,15107
1659521654.705721,15119
1659521654.743611,15156
1659521654.787987,15183
1659521654.832362,15199
1659521654.876738,15210
1659521654.91531,15224
1659521654.953883,15217
1659521654.992455,15220
1659521655.034954,15222
1659521655.077452,15222
1659521655.115683,15222
1659521655.153914,15223
1659521655.192145,15224
1659521655.230718,15191
1659521655.269291,15187
1659521655.307863,15178
1659521655.349337,15175
1659521655.390811,15182
1659521655.429725,15184
1659521655.468639,15187
1659521655.507553,15196
1659521655.546126,15194
1659521655.584698,15215
1659521655.623271,15203
1659521655.664745,15199
1659521655.706219,15207
1659521655.747693,15197
1659521655.789167,15206
1659521655.828423,15213
1659521655.867678,15226
1659521655.906933,15216
1659521655.948407,15201
1659521655.989881,15180
1659521656.028454,15169
1659521656.067027,15155
1659521656.105599,15138
1659521656.149292,15132
1659521656.192985,15127
1659521656.236678,15121
1659521656.269959,15111
1659521656.303241,15127
1659521656.347617,15107
1659521656.391992,15099
1659521656.436368,15104
1659521656.47494,15107
1659521656.513513,15110
1659521656.552085,15107
1659521656.59356,15118
1659521656.635034,15118
1659521656.67463,15123
1659521656.714227,15129
1659521656.753824,15119
1659521656.79581,15124
1659521656.837796,15127
1659521656.876368,15128
1659521656.914941,15122
1659521656.953514,15117
1659521656.99311,15116
1659521657.032707,15119
1659521657.072304,15113
1659521657.113266,15111
1659521657.154227,15123
1659521657.192459,15121
1659521657.23069,15129
1659521657.268921,15137
1659521657.311931,15136
1659521657.354942,15149
1659521657.393514,15154
1659521657.432087,15164
1659521657.470659,15171
1659521657.511109,15167
1659521657.551559,15174
1659521657.590815,15170
1659521657.63007,15173
1659521657.669325,15165
1659521657.711312,15157
1659521657.753298,15152
1659521657.79187,15147
1659521657.830443,15146
1659521657.869015,15146
1659521657.914074,15142
1659521657.959132,15163
1659521658.00419,15167
1659521658.045664,15169
1659521658.087138,15155
1659521658.12537,15159
1659521658.163601,15169
1659521658.201832,15177
1659521658.24433,15159
1659521658.286828,15159
1659521658.326084,15165
1659521658.365339,15149
1659521658.404594,15146
1659521658.442484,15159
1659521658.480374,15163
1659521658.518264,15155
1659521658.559738,15176
1659521658.601212,15181
1659521658.639785,15177
1659521658.678357,15174
1659521658.71693,15173
1659521658.758404,15140
1659521658.799878,15130
1659521658.838792,15130
1659521658.877706,15136
1659521658.91662,15146
1659521658.955534,15168
1659521658.994448,15189
1659521659.033362,15210
1659521659.074324,15198
1659521659.115286,15214
1659521659.154541,15216
1659521659.193796,15222
1659521659.233052,15225
1659521659.275038,15231
1659521659.317024,15242
1659521659.355255,15231
1659521659.393486,15245
1659521659.431718,15253
1659521659.47268,15235
1659521659.513642,15211
1659521659.558017,15206
1659521659.602393,15210
1659521659.646768,15204
1659521659.68005,15202
1659521659.713332,15206
1659521659.757707,15217
1659521659.802083,15223
1659521659.846458,15224
1659521659.884092,15237
1659521659.921726,15251
1659521659.95936,15258
1659521659.996994,15280
1659521660.036249,15273
1659521660.075504,15281
1659521660.11476,15274
1659521660.156234,15266
1659521660.197708,15270
1659521660.242766,15259
1659521660.287824,15239
1659521660.332883,15238
1659521660.366164,15239
1659521660.399446,15257
1659521660.443821,15276
1659521660.488197,15272
1659521660.532573,15265
1659521660.565342,15270
1659521660.598112,15268
1659521660.642488,15264
1659521660.686863,15267
1659521660.731239,15296
1659521660.769811,15293
1659521660.808384,15311
1659521660.846956,15298
1659521660.889454,15285
1659521660.931952,15283
1659521660.970525,15263
1659521661.009098,15245
1659521661.04767,15220
1659521661.089144,15219
1659521661.130619,15215
1659521661.169874,15213
1659521661.209129,15219
1659521661.248384,15226
1659521661.28764,15226
1659521661.326895,15220
1659521661.36615,15222
1659521661.407112,15242
1659521661.448074,15228
1659521661.48733,15228
1659521661.526585,15240
1659521661.56584,15240
1659521661.606802,15237
1659521661.647764,15238
1659521661.686337,15241
1659521661.72491,15229
1659521661.763482,15233
1659521661.804444,15217
1659521661.845406,15188
1659521661.88432,15187
1659521661.923234,15184
1659521661.962148,15193
1659521662.005841,15204
1659521662.049534,15207
1659521662.093227,15201
1659521662.12702,15222
1659521662.160814,15224
1659521662.205531,15227
1659521662.250248,15234
1659521662.294965,15238
1659521662.327222,15254
1659521662.35948,15257
1659521662.404197,15242
1659521662.448914,15260
1659521662.493631,15257
1659521662.536129,15255
1659521662.578627,15253
1659521662.617541,15264
1659521662.656455,15259
1659521662.695369,15241
1659521662.734624,15237
1659521662.773879,15236
1659521662.813135,15240
1659521662.854609,15246
1659521662.896083,15255
1659521662.933973,15258
1659521662.971863,15253
1659521663.009753,15252
1659521663.048666,15252
1659521663.08758,15261
1659521663.126494,15256
1659521663.168993,15255
1659521663.211491,15260
1659521663.250063,15255
1659521663.288636,15277
1659521663.327208,15256
1659521663.369195,15250
1659521663.41118,15266
1659521663.450436,15238
1659521663.489691,15219
1659521663.528946,15209
1659521663.570933,15215
1659521663.612919,15218
1659521663.651833,15231
1659521663.690747,15236
1659521663.729661,15232
1659521663.771646,15233
1659521663.813633,15242
1659521663.852205,15238
1659521663.890778,15246
1659521663.929351,15246
1659521663.971337,15248
1659521664.013323,15253
1659521664.05804,15248
1659521664.102757,15254
1659521664.147473,15257
1659521664.186046,15263
1659521664.224619,15252
1659521664.263191,15239
1659521664.303641,15218
1659521664.344091,15212
1659521664.383347,15228
1659521664.422602,15227
1659521664.461857,15240
1659521664.503843,15254
1659521664.545829,15261
1659521664.584402,15253
1659521664.622975,15272
1659521664.661547,15270
1659521664.700461,15261
1659521664.739375,15267
1659521664.778289,15277
1659521664.819763,15272
1659521664.861237,15266
1659521664.899468,15282
1659521664.9377,15277
1659521664.975931,15277
1659521665.017917,15289
1659521665.059903,15276
1659521665.099432,15270
1659521665.13896,15251
1659521665.178488,15261
1659521665.218017,15251
1659521665.257545,15258
1659521665.299531,15260
1659521665.341517,15272
1659521665.38009,15279
1659521665.418662,15280
1659521665.457235,15290
1659521665.49649,15286
1659521665.535746,15291
1659521665.575001,15294
1659521665.615963,15295
1659521665.656925,15300
1659521665.695839,15310
1659521665.734753,15304
1659521665.773667,15302
1659521665.816165,15309
1659521665.858663,15302
1659521665.897236,15302
1659521665.935808,15307
1659521665.974381,15280
1659521666.015343,15269
1659521666.056305,15278
1659521666.09556,15284
1659521666.134815,15301
1659521666.174071,15291
1659521666.215545,15298
1659521666.257019,15307
1659521666.301394,15301
1659521666.34577,15298
1659521666.390146,15292
1659521666.42906,15306
1659521666.467973,15305
1659521666.506887,15310
1659521666.548362,15306
1659521666.589836,15308
1659521666.62875,15322
1659521666.667664,15310
1659521666.706578,15314
1659521666.749076,15323
1659521666.791574,15308
1659521666.830488,15309
1659521666.869401,15288
1659521666.908315,15281
1659521666.947229,15287
1659521666.986143,15298
1659521667.025057,15296
1659521667.067555,15291
1659521667.110054,15301
1659521667.148626,15298
1659521667.187199,15297
1659521667.225771,15298
1659521667.266222,15306
1659521667.306671,15319
1659521667.345927,15310
1659521667.385182,15317
1659521667.424437,15319
1659521667.462327,15334
1659521667.500217,15324
1659521667.538107,15317
1659521667.580093,15332
1659521667.622079,15326
1659521667.660652,15322
1659521667.699224,15298
1659521667.737797,15297
1659521667.779271,15306
1659521667.820745,15305
1659521667.864779,15314
1659521667.908813,15318
1659521667.952848,15320
1659521667.987154,15318
1659521668.021459,15325
1659521668.065835,15328
1659521668.11021,15326
1659521668.154586,15334
1659521668.187356,15343
1659521668.220125,15342
1659521668.264501,15346
1659521668.308876,15348
1659521668.353252,15353
1659521668.391824,15335
1659521668.430397,15355
1659521668.46897,15332
1659521668.510444,15320
1659521668.551918,15321
1659521668.590832,15313
1659521668.629746,15322
1659521668.66866,15325
1659521668.706891,15342
1659521668.745122,15344
1659521668.783353,15350
1659521668.824315,15358
1659521668.865277,15352
1659521668.904533,15365
1659521668.943788,15367
1659521668.983043,15357
1659521669.025542,15356
1659521669.06804,15355
1659521669.106612,15348
1659521669.145185,15357
1659521669.183757,15354
1659521669.223013,15353
1659521669.262268,15357
1659521669.301523,15349
1659521669.342485,15323
1659521669.383447,15323
1659521669.425946,15314
1659521669.468444,15324
1659521669.507016,15326
1659521669.545589,15334
1659521669.584161,15335
1659521669.625635,15341
1659521669.667109,15339
1659521669.705682,15341
1659521669.744255,15348
1659521669.782827,15353
1659521669.827544,15346
1659521669.872261,15364
1659521669.916978,15358
1659521669.950772,15370
1659521669.984565,15366
1659521670.028941,15351
1659521670.073317,15363
1659521670.117692,15370
1659521670.159166,15359
1659521670.20064,15332
1659521670.239896,15318
1659521670.279151,15326
1659521670.318406,15326
1659521670.356637,15331
1659521670.394869,15345
1659521670.4331,15354
1659521670.475086,15361
1659521670.517072,15360
1659521670.555645,15377
1659521670.594217,15376
1659521670.63279,15372
1659521670.671704,15374
1659521670.710618,15380
1659521670.749532,15384
1659521670.789982,15380
1659521670.830432,15386
1659521670.869687,15389
1659521670.908942,15394
1659521670.948198,15371
1659521670.989672,15347
1659521671.031146,15364
1659521671.069377,15369
1659521671.107608,15395
1659521671.145839,15402
1659521671.190215,15401
1659521671.234591,15386
1659521671.278966,15391
1659521671.313272,15381
1659521671.347578,15388
1659521671.391612,15390
1659521671.435646,15397
1659521671.47968,15382
1659521671.512962,15392
1659521671.546243,15375
1659521671.590619,15366
1659521671.634995,15367
1659521671.67937,15362
1659521671.717602,15354
1659521671.755833,15340
1659521671.794064,15349
1659521671.83605,15354
1659521671.878036,15371
1659521671.917291,15377
1659521671.956547,15377
1659521671.995802,15380
1659521672.036252,15379
1659521672.076702,15376
1659521672.115616,15382
1659521672.15453,15375
1659521672.193444,15382
1659521672.232699,15374
1659521672.271955,15383
1659521672.31121,15389
1659521672.353196,15384
1659521672.395182,15386
1659521672.434437,15381
1659521672.473693,15366
1659521672.512948,15342
1659521672.554934,15337
1659521672.59692,15348
1659521672.635151,15351
1659521672.673383,15351
1659521672.711614,15356
1659521672.754112,15365
1659521672.79661,15374
1659521672.835524,15369
1659521672.874438,15370
1659521672.913352,15370
1659521672.954314,15384
1659521672.995276,15385
1659521673.033507,15381
1659521673.071738,15396
1659521673.10997,15392
1659521673.155028,15386
1659521673.200086,15396
1659521673.245145,15403
1659521673.287131,15388
1659521673.329117,15383
1659521673.367689,15372
1659521673.406262,15355
1659521673.444834,15370
1659521673.486821,15371
1659521673.528807,15372
1659521673.567721,15377
1659521673.606635,15383
1659521673.645549,15387
1659521673.68378,15382
1659521673.722011,15386
1659521673.760242,15382
1659521673.80274,15408
1659521673.845238,15398
1659521673.88347,15398
1659521673.921701,15405
1659521673.959932,15407
1659521673.998505,15410
1659521674.037077,15417
1659521674.07565,15406
1659521674.116612,15404
1659521674.157574,15385
1659521674.19683,15372
1659521674.236085,15363
1659521674.27534,15378
1659521674.316302,15376
1659521674.357264,15386
1659521674.396178,15397
1659521674.435092,15383
1659521674.474006,15386
1659521674.51548,15395
1659521674.556954,15402
1659521674.59621,15400
1659521674.635465,15402
1659521674.67472,15404
1659521674.715682,15398
1659521674.756644,15403
1659521674.801702,15403
1659521674.846761,15403
1659521674.891819,15410
1659521674.93005,15410
1659521674.968281,15400
1659521675.006513,15376
1659521675.047987,15363
1659521675.089461,15370
1659521675.128716,15367
1659521675.167971,15372
1659521675.207227,15384
1659521675.248701,15391
1659521675.290175,15392
1659521675.328748,15401
1659521675.36732,15402
1659521675.405893,15396
1659521675.445148,15403
1659521675.484403,15407
1659521675.523659,15406
1659521675.562572,15412
1659521675.601486,15417
1659521675.6404,15414
1659521675.685117,15413
1659521675.729834,15426
1659521675.774551,15427
1659521675.808857,15416
1659521675.843163,15415
1659521675.887538,15391
1659521675.931914,15393
1659521675.976289,15388
1659521676.014862,15389
1659521676.053434,15398
1659521676.092007,15411
1659521676.133481,15419
1659521676.174955,15414
1659521676.213528,15417
1659521676.2521,15424
1659521676.290673,15421
1659521676.329587,15418
1659521676.368501,15417
1659521676.407415,15411
1659521676.449401,15413
1659521676.491387,15418
1659521676.529959,15415
1659521676.568532,15416
1659521676.607105,15415
1659521676.648067,15398
1659521676.689029,15382
1659521676.728967,15372
1659521676.768905,15369
1659521676.808843,15372
1659521676.847074,15374
1659521676.885305,15394
1659521676.923537,15394
1659521676.965011,15397
1659521677.006485,15393
1659521677.047959,15396
1659521677.089433,15400
1659521677.128347,15395
1659521677.167261,15410
1659521677.206175,15399
1659521677.249867,15425
1659521677.29356,15416
1659521677.337253,15411
1659521677.370535,15416
1659521677.403816,15424
1659521677.448192,15403
1659521677.492568,15379
1659521677.536943,15372
1659521677.569713,15365
1659521677.602483,15374
1659521677.647199,15376
1659521677.691916,15377
1659521677.736633,15393
1659521677.775547,15394
1659521677.814461,15400
1659521677.853375,15406
1659521677.894337,15403
1659521677.935299,15409
1659521677.974554,15416
1659521678.01381,15410
1659521678.053065,15408
1659521678.095051,15411
1659521678.137037,15424
1659521678.17561,15413
1659521678.214182,15429
1659521678.252755,15423
1659521678.291669,15427
1659521678.330583,15404
1659521678.369497,15378
1659521678.410971,15396
1659521678.452445,15399
1659521678.490676,15409
1659521678.528908,15414
1659521678.567139,15434
1659521678.609637,15428
1659521678.652135,15434
1659521678.690708,15444
1659521678.72928,15442
1659521678.767853,15442
1659521678.809327,15459
1659521678.850801,15448
1659521678.889715,15453
1659521678.928629,15451
1659521678.967543,15450
1659521679.010041,15451
1659521679.052539,15448
1659521679.091453,15447
1659521679.130367,15423
1659521679.169281,15429
1659521679.213656,15413
1659521679.258032,15420
1659521679.302408,15438
1659521679.343882,15436
1659521679.385356,15438
1659521679.423587,15440
1659521679.461818,15455
1659521679.500049,15445
1659521679.538622,15455
1659521679.577195,15458
1659521679.615767,15456
1659521679.658265,15465
1659521679.700763,15478
1659521679.738995,15471
1659521679.777226,15466
1659521679.815457,15465
1659521679.856931,15464
1659521679.898405,15461
1659521679.937319,15429
1659521679.976233,15419
1659521680.015147,15424
1659521680.054744,15423
1659521680.094341,15435
1659521680.133937,15443
1659521680.174899,15452
1659521680.215861,15452
1659521680.254775,15458
1659521680.293689,15469
1659521680.332603,15474
1659521680.374589,15467
1659521680.416575,15472
1659521680.455148,15467
1659521680.493721,15480
1659521680.532293,15477
1659521680.572743,15478
1659521680.613193,15483
1659521680.652448,15475
1659521680.691704,15454
1659521680.730959,15446
1659521680.771921,15431
1659521680.812883,15440
1659521680.853845,15444
1659521680.894807,15447
1659521680.936281,15452
1659521680.977755,15463
1659521681.017011,15464
1659521681.056266,15464
1659521681.095521,15479
1659521681.133752,15485
1659521681.171984,15485
1659521681.210215,15485
1659521681.253225,15483
1659521681.296235,15493
1659521681.335149,15478
1659521681.374063,15484
1659521681.412977,15491
1659521681.453939,15486
1659521681.494901,15482
1659521681.534157,15442
1659521681.573412,15449
1659521681.612667,15459
1659521681.655165,15450
1659521681.697663,15466
1659521681.741698,15468
1659521681.785732,15468
1659521681.829766,15480
1659521681.862535,15475
1659521681.895305,15467
1659521681.940022,15460
1659521681.984739,15461
1659521682.029456,15456
1659521682.067687,15460
1659521682.105918,15470
1659521682.14415,15464
1659521682.186136,15473
1659521682.228122,15471
1659521682.267719,15493
1659521682.307315,15490
1659521682.346912,15469
1659521682.387874,15456
1659521682.428836,15452
1659521682.46775,15455
1659521682.506664,15454
1659521682.545578,15461
1659521682.584833,15456
1659521682.624088,15467
1659521682.663344,15468
1659521682.703794,15462
1659521682.744244,15459
1659521682.782816,15463
1659521682.821389,15459
1659521682.859962,15464
1659521682.901436,15466
1659521682.94291,15470
1659521682.981823,15475
1659521683.020737,15496
1659521683.059651,15510
1659521683.098224,15518
1659521683.136797,15530
1659521683.175369,15531
1659521683.217355,15545
1659521683.259341,15536
1659521683.300816,15538
1659521683.34229,15552
1659521683.381203,15544
1659521683.420117,15532
1659521683.459031,15522
1659521683.503748,15531
1659521683.548465,15531
1659521683.593182,15523
1659521683.625952,15526
1659521683.658721,15530
1659521683.703097,15517
1659521683.747473,15522
1659521683.791848,15519
1659521683.825642,15519
1659521683.859436,15511
1659521683.903811,15483
1659521683.948187,15454
1659521683.992562,15440
1659521684.030793,15434
1659521684.069025,15427
1659521684.107256,15437
1659521684.14873,15431
1659521684.190204,15441
1659521684.228777,15429
1659521684.267349,15420
1659521684.305922,15432
1659521684.344836,15444
1659521684.38375,15446
1659521684.422664,15452
1659521684.465162,15446
1659521684.50766,15444
1659521684.546915,15447
1659521684.58617,15445
1659521684.625426,15450
1659521684.666388,15445
1659521684.70735,15427
1659521684.746264,15400
1659521684.785178,15381
1659521684.824092,15373
1659521684.86659,15361
1659521684.909088,15366
1659521684.94766,15381
1659521684.986233,15381
1659521685.024806,15385
1659521685.065768,15406
1659521685.10673,15400
1659521685.145644,15416
1659521685.184558,15410
1659521685.223472,15412
1659521685.26597,15423
1659521685.308468,15422
1659521685.346358,15426
1659521685.384248,15430
1659521685.422138,15439
1659521685.467196,15435
1659521685.512254,15437
1659521685.557312,15417
1659521685.598786,15393
1659521685.64026,15390
1659521685.679174,15397
1659521685.718088,15405
1659521685.757002,15405
1659521685.798989,15408
1659521685.840975,15431
1659521685.88023,15431
1659521685.919485,15429
1659521685.95874,15444
1659521685.99663,15436
1659521686.03452,15450
1659521686.07241,15455
1659521686.113884,15468
1659521686.155358,15466
1659521686.193931,15465
1659521686.232503,15481
1659521686.271076,15476
1659521686.309649,15467
1659521686.348221,15439
1659521686.386794,15428
1659521686.428268,15428
1659521686.469742,15432
1659521686.508656,15441
1659521686.54757,15447
1659521686.586484,15454
1659521686.627446,15455
1659521686.668408,15457
1659521686.708005,15466
1659521686.747601,15465
1659521686.787198,15467
1659521686.828672,15478
1659521686.870146,15474
1659521686.908719,15476
1659521686.947291,15477
1659521686.985864,15485
1659521687.027338,15479
1659521687.068812,15476
1659521687.113529,15438
1659521687.158246,15421
1659521687.202963,15431
1659521687.241535,15414
1659521687.280108,15415
1659521687.318681,15430
1659521687.360155,15432
1659521687.401629,15436
1659521687.440884,15446
1659521687.480139,15446
1659521687.519395,15458
1659521687.557626,15460
1659521687.595857,15475
1659521687.634088,15473
1659521687.676586,15490
1659521687.719085,15476
1659521687.75834,15483
1659521687.797595,15487
1659521687.83685,15495
1659521687.877812,15472
1659521687.918775,15439
1659521687.957689,15434
1659521687.996602,15424
1659521688.035516,15429
1659521688.078014,15437
1659521688.120512,15440
1659521688.159426,15451
1659521688.19834,15460
1659521688.237254,15465
1659521688.275827,15455
1659521688.3144,15467
1659521688.352972,15469
1659521688.394446,15472
1659521688.43592,15473
1659521688.474493,15470
1659521688.513066,15470
1659521688.551638,15472
1659521688.593624,15467
1659521688.63561,15472
1659521688.679986,15432
1659521688.724361,15421
1659521688.768737,15415
1659521688.801507,15407
1659521688.834276,15407
1659521688.878652,15411
1659521688.923028,15412
1659521688.967403,15422
1659521689.006658,15420
1659521689.045913,15421
1659521689.085169,15421
1659521689.127155,15431
1659521689.169141,15434
1659521689.207714,15452
1659521689.246286,15452
1659521689.284859,15458
1659521689.323431,15478
1659521689.362004,15469
1659521689.400577,15461
1659521689.441539,15437
1659521689.482501,15412
1659521689.521073,15406
1659521689.559646,15403
1659521689.598218,15405
1659521689.640205,15405
1659521689.682191,15410
1659521689.721105,15415
1659521689.760019,15422
1659521689.798933,15435
1659521689.837505,15434
1659521689.876078,15442
1659521689.91465,15449
1659521689.956124,15461
1659521689.997598,15458
1659521690.037536,15466
1659521690.077475,15482
1659521690.117413,15474
1659521690.158375,15479
1659521690.199337,15455
1659521690.243712,15424
1659521690.288088,15410
1659521690.332463,15403
1659521690.371377,15397
1659521690.410291,15397
1659521690.449205,15410
1659521690.490167,15417
1659521690.531129,15428
1659521690.570043,15439
1659521690.608957,15448
1659521690.647871,15452
1659521690.689345,15469
1659521690.730819,15476
1659521690.769733,15484
1659521690.808647,15482
1659521690.847561,15485
1659521690.885792,15498
1659521690.924023,15501
1659521690.962255,15497
1659521691.005265,15490
1659521691.048275,15488
1659521691.087189,15465
1659521691.126103,15469
1659521691.165017,15467
1659521691.205979,15465
1659521691.246941,15475
1659521691.286026,15479
1659521691.32511,15488
1659521691.364195,15488
1659521691.40328,15484
1659521691.442364,15490
1659521691.481449,15487
1659521691.525483,15497
1659521691.569517,15509
1659521691.613551,15503
1659521691.647857,15511
1659521691.682163,15512
1659521691.726197,15522
1659521691.770231,15519
1659521691.814265,15517
1659521691.852838,15504
1659521691.891411,15476
1659521691.929983,15472
1659521691.971457,15471
1659521692.012931,15484
1659521692.051162,15478
1659521692.089394,15492
1659521692.127625,15488
1659521692.166539,15491
1659521692.205453,15497
1659521692.244367,15499
1659521692.286353,15508
1659521692.328339,15507
1659521692.366912,15509
1659521692.405484,15518
1659521692.444057,15522
1659521692.485531,15526
1659521692.527005,15527
1659521692.56626,15519
1659521692.605516,15535
1659521692.644771,15534
1659521692.688805,15528
1659521692.732839,15497
1659521692.776874,15486
1659521692.809131,15486
1659521692.841389,15476
1659521692.885764,15478
1659521692.93014,15482
1659521692.974515,15493
1659521693.012747,15490
1659521693.050978,15503
1659521693.089209,15499
1659521693.131195,15508
1659521693.173181,15525
1659521693.212437,15516
1659521693.251692,15525
1659521693.290947,15528
1659521693.332933,15529
1659521693.374919,15532
1659521693.413492,15535
1659521693.452065,15530
1659521693.490637,15531
1659521693.529892,15538
1659521693.569148,15527
1659521693.608403,15493
1659521693.650389,15504
1659521693.692375,15492
1659521693.730948,15485
1659521693.769521,15502
1659521693.808093,15501
1659521693.849055,15507
1659521693.890017,15506
1659521693.929272,15512
1659521693.968528,15511
1659521694.007783,15518
1659521694.051476,15527
1659521694.095169,15534
1659521694.138862,15542
1659521694.172655,15531
1659521694.206449,15535
1659521694.250825,15540
1659521694.2952,15536
1659521694.339576,15535
1659521694.372857,15546
1659521694.406139,15544
1659521694.450515,15519
1659521694.49489,15505
1659521694.539266,15494
1659521694.57818,15481
1659521694.617094,15497
1659521694.656008,15487
1659521694.697994,15485
1659521694.73998,15504
1659521694.778894,15502
1659521694.817808,15500
1659521694.856722,15498
1659521694.897684,15512
1659521694.938646,15510
1659521694.97756,15513
1659521695.016474,15522
1659521695.055387,15529
1659521695.09396,15532
1659521695.132533,15536
1659521695.171105,15540
1659521695.213091,15541
1659521695.255078,15539
1659521695.293309,15541
1659521695.33154,15546
1659521695.369771,15531
1659521695.410733,15512
1659521695.451695,15505
1659521695.491292,15499
1659521695.530889,15511
1659521695.570485,15501
1659521695.611959,15501
1659521695.653433,15521
1659521695.691665,15514
1659521695.729896,15522
1659521695.768127,15521
1659521695.810113,15528
1659521695.852099,15528
1659521695.891355,15540
1659521695.93061,15544
1659521695.969865,15544
1659521696.013558,15550
1659521696.057251,15550
1659521696.100944,15557
1659521696.134225,15557
1659521696.167507,15552
1659521696.211883,15545
1659521696.256258,15531
1659521696.300634,15517
1659521696.338524,15512
1659521696.376414,15521
1659521696.414304,15532
1659521696.457314,15522
1659521696.500324,15542
1659521696.539238,15542
1659521696.578152,15535
1659521696.617066,15545
1659521696.65598,15554
1659521696.694894,15557
1659521696.733808,15551
1659521696.773063,15565
1659521696.812318,15566
1659521696.851573,15569
1659521696.89629,15568
1659521696.941007,15572
1659521696.985724,15568
1659521697.017982,15569
1659521697.050239,15567
1659521697.094956,15543
1659521697.139673,15532
1659521697.18439,15538
1659521697.226376,15536
1659521697.268362,15550
1659521697.306593,15545
1659521697.344825,15554
1659521697.383056,15569
1659521697.42197,15565
1659521697.460884,15590
1659521697.499798,15571
1659521697.54076,15583
1659521697.581722,15603
1659521697.620636,15597
1659521697.65955,15598
1659521697.698464,15609
1659521697.74045,15603
1659521697.782436,15603
1659521697.82135,15607
1659521697.860264,15606
1659521697.899178,15600
1659521697.93775,15581
1659521697.976323,15561
1659521698.014895,15558
1659521698.056882,15563
1659521698.098868,15559
1659521698.137782,15562
1659521698.176696,15573
1659521698.21561,15573
1659521698.256572,15573
1659521698.297534,15579
1659521698.336106,15577
1659521698.374679,15582
1659521698.413251,15588
1659521698.454726,15592
1659521698.4962,15604
1659521698.540234,15602
1659521698.584268,15616
1659521698.628302,15610
1659521698.666875,15607
1659521698.705447,15580
1659521698.74402,15555
1659521698.786006,15543
1659521698.827992,15553
1659521698.866565,15545
1659521698.905137,15562
1659521698.94371,15564
1659521698.985696,15573
1659521699.027682,15572
1659521699.066937,15563
1659521699.106193,15571
1659521699.145448,15570
1659521699.186922,15578
1659521699.228396,15580
1659521699.266969,15600
1659521699.305542,15599
1659521699.344114,15613
1659521699.383028,15602
1659521699.421942,15602
1659521699.460856,15587
1659521699.503354,15543
1659521699.545852,15483
1659521699.584083,15449
1659521699.622315,15434
1659521699.660546,15416
1659521699.69946,15426
1659521699.738374,15425
1659521699.777288,15428
1659521699.819274,15440
1659521699.86126,15429
1659521699.899491,15434
1659521699.937722,15451
1659521699.975954,15446
1659521700.018452,15454
1659521700.06095,15469
1659521700.103448,15464
1659521700.145946,15474
1659521700.184519,15483
1659521700.223091,15500
1659521700.261664,15499
1659521700.306381,15499
1659521700.351098,15476
1659521700.395815,15429
1659521700.43012,15405
1659521700.464426,15399
1659521700.50846,15395
1659521700.552495,15403
1659521700.596529,15423
1659521700.629298,15419
1659521700.662068,15440
1659521700.706785,15439
1659521700.751502,15426
1659521700.796219,15438
1659521700.83445,15442
1659521700.872681,15438
1659521700.910913,15448
1659521700.952386,15461
1659521700.99386,15463
1659521701.033457,15468
1659521701.073054,15480
1659521701.11265,15467
1659521701.153613,15474
1659521701.194575,15461
1659521701.233147,15422
1659521701.27172,15385
1659521701.310292,15360
1659521701.349548,15357
1659521701.388803,15371
1659521701.428058,15377
1659521701.469532,15392
1659521701.511006,15392
1659521701.549238,15404
1659521701.587469,15399
1659521701.6257,15411
1659521701.667174,15419
1659521701.708648,15427
1659521701.748879,15433
1659521701.789109,15432
1659521701.82934,15447
1659521701.869571,15447
1659521701.909801,15451
1659521701.950032,15455
1659521701.990263,15429
1659521702.029176,15391
1659521702.06809,15353
1659521702.107004,15343
1659521702.148478,15343
1659521702.189952,15366
1659521702.229208,15365
1659521702.268463,15370
1659521702.307718,15381
1659521702.349704,15387
1659521702.39169,15392
1659521702.430604,15397
1659521702.469518,15409
1659521702.508432,15417
1659521702.549906,15417
1659521702.59138,15421
1659521702.630294,15433
1659521702.669208,15455
1659521702.708122,15452
1659521702.749084,15447
1659521702.790046,15433
1659521702.828619,15372
1659521702.867192,15339
1659521702.905764,15343
1659521702.950481,15343
1659521702.995198,15357
1659521703.039915,15377
1659521703.073709,15399
1659521703.107502,15402
1659521703.151878,15420
1659521703.196253,15421
1659521703.240629,15416
1659521703.282615,15429
1659521703.324601,15436
1659521703.363515,15432
1659521703.402429,15437
1659521703.441343,15451
1659521703.480598,15444
1659521703.519854,15470
1659521703.559109,15461
1659521703.601095,15464
1659521703.643081,15466
1659521703.681654,15425
1659521703.720226,15369
1659521703.758799,15334
1659521703.799249,15317
1659521703.839699,15299
1659521703.878954,15306
1659521703.91821,15326
1659521703.957465,15325
1659521703.996379,15336
1659521704.035293,15340
1659521704.074207,15333
1659521704.114657,15356
1659521704.155107,15352
1659521704.193338,15352
1659521704.231569,15370
1659521704.2698,15372
1659521704.312299,15370
1659521704.354797,15374
1659521704.393369,15380
1659521704.431942,15374
1659521704.470515,15399
1659521704.511477,15390
1659521704.552438,15368
1659521704.597156,15272
1659521704.641872,15205
1659521704.686589,15188
1659521704.725503,15176
1659521704.764417,15181
1659521704.803331,15199
1659521704.845317,15232
1659521704.887303,15246
1659521704.926558,15241
1659521704.965814,15259
1659521705.005069,15256
1659521705.046031,15259
1659521705.086993,15273
1659521705.124883,15276
1659521705.162773,15290
1659521705.200663,15321
1659521705.239918,15324
1659521705.279174,15339
1659521705.318429,15347
1659521705.359903,15349
1659521705.401377,15361
1659521705.439608,15363
1659521705.477839,15332
1659521705.516071,15263
1659521705.558569,15229
1659521705.601067,15217
1659521705.639981,15207
1659521705.678895,15216
1659521705.717809,15228
1659521705.756723,15239
1659521705.795637,15247
1659521705.834551,15246
1659521705.877049,15251
1659521705.919547,15273
1659521705.95812,15272
1659521705.996692,15289
1659521706.035265,15292
1659521706.076227,15299
1659521706.117189,15304
1659521706.161906,15317
1659521706.206623,15324
1659521706.251339,15313
1659521706.285133,15330
1659521706.318927,15334
1659521706.36262,15313
1659521706.406313,15268
1659521706.450006,15208
1659521706.483799,15201
1659521706.517593,15207
1659521706.562651,15219
1659521706.607709,15237
1659521706.652768,15253
1659521706.690999,15262
1659521706.72923,15270
1659521706.767461,15280
1659521706.809959,15290
1659521706.852458,15297
1659521706.891371,15320
1659521706.930285,15322
1659521706.969199,15350
1659521707.007772,15367
1659521707.046345,15379
1659521707.084917,15393
1659521707.12349,15414
1659521707.162062,15425
1659521707.200635,15433
1659521707.244669,15439
1659521707.288703,15406
1659521707.332738,15399
1659521707.366019,15379
1659521707.399301,15378
1659521707.443676,15393
1659521707.488052,15397
1659521707.532428,15400
1659521707.570659,15397
1659521707.60889,15409
1659521707.647121,15406
1659521707.688596,15414
1659521707.730069,15424
1659521707.768983,15423
1659521707.807897,15444
1659521707.846811,15429
1659521707.888798,15437
1659521707.930784,15448
1659521707.969356,15440
1659521708.007929,15414
1659521708.046501,15408
1659521708.085415,15402
1659521708.124329,15401
1659521708.163243,15400
1659521708.204205,15407
1659521708.245167,15415
1659521708.284081,15422
1659521708.322995,15413
1659521708.361909,15425
1659521708.403383,15424
1659521708.444857,15432
1659521708.484113,15427
1659521708.523368,15435
1659521708.562623,15440
1659521708.603585,15441
1659521708.644547,15450
1659521708.68312,15450
1659521708.721693,15439
1659521708.760265,15420
1659521708.802763,15381
1659521708.845261,15388
1659521708.884517,15383
1659521708.923772,15386
1659521708.963027,15388
1659521709.007403,15406
1659521709.051778,15409
1659521709.096154,15416
1659521709.129947,15427
1659521709.163741,15425
1659521709.207775,15454
1659521709.25181,15447
1659521709.295844,15448
1659521709.33783,15465
1659521709.379816,15472
1659521709.41873,15470
1659521709.457644,15481
1659521709.496558,15465
1659521709.535131,15444
1659521709.573703,15452
1659521709.612276,15441
1659521709.652726,15449
1659521709.693176,15458
1659521709.732772,15464
1659521709.772369,15470
1659521709.811966,15475
1659521709.853952,15486
1659521709.895938,15503
1659521709.934169,15519
1659521709.9724,15530
1659521710.010632,15539
1659521710.049887,15548
1659521710.089142,15544
1659521710.128397,15547
1659521710.170896,15568
1659521710.213394,15555
1659521710.251625,15516
1659521710.289856,15522
1659521710.328088,15527
1659521710.370074,15517
1659521710.41206,15526
1659521710.450632,15542
1659521710.489205,15538
1659521710.527777,15549
1659521710.569252,15555
1659521710.610726,15548
1659521710.65476,15560
1659521710.698794,15569
1659521710.742828,15571
1659521710.77611,15570
1659521710.809391,15579
1659521710.853426,15580
1659521710.89746,15583
1659521710.941494,15576
1659521710.980408,15548
1659521711.019322,15553
1659521711.058236,15539
1659521711.100734,15547
1659521711.143232,15539
1659521711.181463,15548
1659521711.219695,15545
1659521711.257926,15555
1659521711.29684,15561
1659521711.335754,15558
1659521711.374668,15561
1659521711.416654,15567
1659521711.45864,15578
1659521711.496871,15571
1659521711.535103,15572
1659521711.573334,15582
1659521711.615832,15577
1659521711.65833,15582
1659521711.697244,15565
1659521711.736158,15546
1659521711.775072,15505
1659521711.813644,15488
1659521711.852217,15471
1659521711.89079,15460
1659521711.931752,15472
1659521711.972714,15475
1659521712.011969,15481
1659521712.051224,15492
1659521712.09048,15497
1659521712.132466,15503
1659521712.174452,15510
1659521712.216438,15532
1659521712.258424,15546
1659521712.30041,15568
1659521712.342396,15571
1659521712.384382,15572
1659521712.426368,15595
1659521712.465282,15605
1659521712.504196,15603
1659521712.54311,15608
1659521712.581683,15595
1659521712.620255,15598
1659521712.658828,15602
1659521712.697742,15601
1659521712.736656,15620
1659521712.77557,15634
1659521712.817556,15626
1659521712.859542,15631
1659521712.900504,15640
1659521712.941466,15654
1659521712.980039,15645
1659521713.018611,15652
1659521713.057184,15657
1659521713.10156,15659
1659521713.145935,15659
1659521713.190311,15661
1659521713.224104,15661
1659521713.257898,15674
1659521713.302615,15637
1659521713.347332,15636
1659521713.392049,15634
1659521713.42533,15637
1659521713.458612,15633
1659521713.502646,15641
1659521713.54668,15658
1659521713.590715,15647
1659521713.629287,15647
1659521713.66786,15650
1659521713.706433,15646
1659521713.748419,15636
1659521713.790405,15643
1659521713.828977,15643
1659521713.86755,15649
1659521713.906122,15658
1659521713.947084,15650
1659521713.988047,15661
1659521714.026961,15665
1659521714.065874,15663
1659521714.104788,15623
1659521714.14302,15606
1659521714.181251,15571
1659521714.219482,15546
1659521714.261468,15538
1659521714.303454,15532
1659521714.343051,15527
1659521714.382648,15534
1659521714.422244,15535
1659521714.463206,15553
1659521714.504168,15566
1659521714.543082,15574
1659521714.581996,15588
1659521714.62091,15606
1659521714.66392,15616
1659521714.70693,15616
1659521714.745503,15619
1659521714.784076,15627
1659521714.822648,15631
1659521714.863098,15632
1659521714.903548,15629
1659521714.942804,15623
1659521714.982059,15594
1659521715.021314,15604
1659521715.065348,15583
1659521715.109383,15594
1659521715.153417,15598
1659521715.195403,15602
1659521715.237389,15614
1659521715.276644,15613
1659521715.3159,15611
1659521715.355155,15612
1659521715.396629,15626
1659521715.438103,15632
1659521715.476334,15623
1659521715.514565,15646
1659521715.552797,15652
1659521715.592735,15659
1659521715.632673,15653
1659521715.672611,15653
1659521715.714085,15648
1659521715.755559,15633
1659521715.792937,15623
1659521715.830315,15608
1659521715.867692,15613
1659521715.905071,15605
1659521715.949787,15609
1659521715.994504,15619
1659521716.039221,15623
1659521716.077111,15625
1659521716.115001,15633
1659521716.152891,15636
1659521716.194365,15641
1659521716.235839,15642
1659521716.274412,15648
1659521716.312984,15653
1659521716.351557,15655
1659521716.393031,15652
1659521716.434505,15648
1659521716.473419,15658
1659521716.512333,15653
1659521716.551247,15636
1659521716.590502,15613
1659521716.629757,15598
1659521716.669013,15593
1659521716.709975,15591
1659521716.750937,15600
1659521716.790192,15594
1659521716.829447,15622
1659521716.868703,15628
1659521716.910689,15637
1659521716.952675,15640
1659521716.990906,15643
1659521717.029137,15654
1659521717.067369,15661
1659521717.107819,15660
1659521717.148269,15671
1659521717.187524,15672
1659521717.226779,15674
1659521717.266035,15688
1659521717.306997,15680
1659521717.347959,15652
1659521717.391993,15653
1659521717.436027,15644
1659521717.480061,15650
1659521717.518975,15652
1659521717.557889,15661
1659521717.596803,15671
1659521717.638277,15671
1659521717.679751,15680
1659521717.718665,15667
1659521717.757579,15679
1659521717.796493,15682
1659521717.835748,15679
1659521717.875004,15678
1659521717.914259,15684
1659521717.955733,15678
1659521717.997207,15683
1659521718.036121,15688
1659521718.075035,15666
1659521718.113949,15655
1659521718.156447,15657
1659521718.198945,15648
1659521718.2382,15659
1659521718.277456,15666
1659521718.316711,15665
1659521718.354942,15669
1659521718.393174,15665
1659521718.431405,15657
1659521718.472367,15654
1659521718.513329,15648
1659521718.552584,15646
1659521718.59184,15649
1659521718.631095,15648
1659521718.672569,15652
1659521718.714043,15658
1659521718.752615,15666
1659521718.791188,15669
1659521718.829761,15656
1659521718.872259,15633
1659521718.914757,15618
1659521718.958791,15606
1659521719.002825,15606
1659521719.04686,15597
1659521719.080141,15604
1659521719.113423,15614
1659521719.15814,15623
1659521719.202857,15617
1659521719.247574,15615
1659521719.286146,15625
1659521719.324719,15629
1659521719.363292,15636
1659521719.404253,15635
1659521719.445215,15642
1659521719.483788,15647
1659521719.522361,15662
1659521719.560933,15661
1659521719.602919,15671
1659521719.644906,15680
1659521719.682796,15664
1659521719.720685,15643
1659521719.758575,15636
1659521719.798172,15622
1659521719.837769,15619
1659521719.877365,15625
1659521719.918839,15628
1659521719.960313,15639
1659521719.998544,15644
1659521720.036776,15657
1659521720.075007,15662
1659521720.117505,15679
1659521720.160003,15684
1659521720.198917,15687
1659521720.237831,15694
1659521720.276745,15695
1659521720.315318,15699
1659521720.35389,15693
1659521720.392463,15705
1659521720.433937,15714
1659521720.475411,15704
1659521720.517397,15681
1659521720.559383,15669
1659521720.597615,15673
1659521720.635846,15675
1659521720.674077,15673
1659521720.718794,15686
1659521720.763511,15687
1659521720.808228,15693
1659521720.840997,15692
1659521720.873767,15699
1659521720.917801,15705
1659521720.961835,15708
1659521721.00587,15706
1659521721.040175,15717
1659521721.074481,15714
1659521721.119198,15709
1659521721.163915,15727
1659521721.208632,15719
1659521721.247204,15727
1659521721.285777,15711
1659521721.32435,15697
1659521721.366336,15693
1659521721.408322,15689
1659521721.447918,15699
1659521721.487515,15706
1659521721.527112,15716
1659521721.565343,15713
1659521721.603574,15718
1659521721.641805,15725
1659521721.682767,15727
1659521721.72373,15717
1659521721.762644,15723
1659521721.801557,15728
1659521721.840471,15732
1659521721.881945,15724
1659521721.923419,15738
1659521721.961992,15735
1659521722.000565,15740
1659521722.039137,15708
1659521722.081123,15700
1659521722.12311,15704
1659521722.162024,15704
1659521722.200937,15728
1659521722.239851,15716
1659521722.281837,15728
1659521722.323823,15730
1659521722.362737,15735
1659521722.401651,15734
1659521722.440565,15745
1659521722.484941,15741
1659521722.529316,15746
1659521722.573692,15748
1659521722.606462,15750
1659521722.639231,15751
1659521722.683607,15743
1659521722.727983,15765
1659521722.772358,15744
1659521722.810589,15715
1659521722.84882,15712
1659521722.887052,15719
1659521722.928526,15719
1659521722.97,15731
1659521723.008572,15734
1659521723.047145,15733
1659521723.085718,15744
1659521723.124973,15749
1659521723.164228,15747
1659521723.203484,15741
1659521723.244446,15757
1659521723.285408,15747
1659521723.324322,15759
1659521723.363235,15764
1659521723.402149,15758
1659521723.444648,15767
1659521723.487146,15767
1659521723.525718,15761
1659521723.564291,15752
1659521723.602864,15725
1659521723.643826,15717
1659521723.684788,15714
1659521723.724043,15716
1659521723.763298,15717
1659521723.802553,15712
1659521723.844028,15722
1659521723.885502,15715
1659521723.924074,15727
1659521723.962647,15717
1659521724.00122,15711
1659521724.043205,15718
1659521724.085192,15728
1659521724.123764,15723
1659521724.162337,15729
1659521724.200909,15734
1659521724.245285,15734
1659521724.28966,15742
1659521724.334036,15725
1659521724.376534,15702
1659521724.419032,15708
1659521724.457946,15691
1659521724.49686,15704
1659521724.535774,15703
1659521724.574347,15694
1659521724.612919,15698
1659521724.651492,15693
1659521724.69399,15705
1659521724.736488,15709
1659521724.775743,15716
1659521724.814999,15732
1659521724.854254,15739
1659521724.894704,15742
1659521724.935154,15746
1659521724.974409,15752
1659521725.013665,15759
1659521725.05292,15758
1659521725.091151,15754
1659521725.129383,15748
1659521725.167614,15722
1659521725.2096,15705
1659521725.251586,15714
1659521725.2905,15707
1659521725.329414,15715
1659521725.368328,15722
1659521725.409802,15723
1659521725.451276,15741
1659521725.489849,15744
1659521725.528421,15733
1659521725.566994,15739
1659521725.609492,15744
1659521725.65199,15745
1659521725.690904,15741
1659521725.729818,15761
1659521725.768732,15751
1659521725.809694,15746
1659521725.850656,15760
1659521725.895031,15761
1659521725.939407,15760
1659521725.983783,15753
1659521726.022355,15728
1659521726.060928,15723
1659521726.0995,15718
1659521726.140975,15722
1659521726.182449,15727
1659521726.221363,15742
1659521726.260277,15745
1659521726.29919,15749
1659521726.340153,15760
1659521726.381114,15756
1659521726.419687,15766
1659521726.45826,15760
1659521726.496832,15761
1659521726.536088,15774
1659521726.575343,15766
1659521726.614598,15776
1659521726.657096,15771
1659521726.699594,15773
1659521726.738167,15775
1659521726.77674,15775
1659521726.815312,15776
1659521726.857298,15754
1659521726.899284,15739
1659521726.937857,15741
1659521726.97643,15736
1659521727.015002,15737
1659521727.053916,15735
1659521727.09283,15743
1659521727.131744,15738
1659521727.173218,15746
1659521727.214692,15746
1659521727.253606,15742
1659521727.29252,15756
1659521727.331434,15751
1659521727.372908,15770
1659521727.414382,15758
1659521727.458416,15759
1659521727.50245,15773
1659521727.546485,15763
1659521727.580278,15768
1659521727.614072,15755
1659521727.658789,15739
1659521727.703506,15725
1659521727.748223,15725
1659521727.781505,15724
1659521727.814786,15718
1659521727.859503,15731
1659521727.90422,15735
1659521727.948937,15740
1659521727.987851,15748
1659521728.026765,15749
1659521728.065679,15747
1659521728.107665,15757
1659521728.149651,15769
1659521728.188224,15763
1659521728.226796,15760
1659521728.265369,15774
1659521728.306331,15775
1659521728.347293,15787
1659521728.385865,15770
1659521728.424438,15783
1659521728.463011,15779
1659521728.502266,15756
1659521728.541521,15746
1659521728.580776,15743
1659521728.622251,15749
1659521728.663725,15750
1659521728.701956,15766
1659521728.740187,15774
1659521728.778418,15767
1659521728.819381,15774
1659521728.860343,15777
1659521728.90028,15778
1659521728.940218,15785
1659521728.980156,15794
1659521729.021119,15796
1659521729.062081,15787
1659521729.100653,15782
1659521729.139226,15782
1659521729.177798,15790
1659521729.219784,15787
1659521729.26177,15793
1659521729.300684,15804
1659521729.339598,15801
1659521729.378512,15768
1659521729.422205,15769
1659521729.465898,15776
1659521729.509591,15777
1659521729.542873,15776
1659521729.576154,15791
1659521729.620188,15782
1659521729.664223,15780
1659521729.708257,15777
1659521729.74683,15771
1659521729.785402,15786
1659521729.823975,15782
1659521729.866985,15784
1659521729.909995,15791
1659521729.948909,15781
1659521729.987823,15780
1659521730.026737,15786
1659521730.067699,15785
1659521730.108661,15779
1659521730.148257,15770
1659521730.187854,15751
1659521730.227451,15754
1659521730.265682,15741
1659521730.303913,15741
1659521730.342145,15750
1659521730.384131,15752
1659521730.426117,15749
1659521730.465031,15739
1659521730.503945,15748
1659521730.542859,15735
1659521730.584333,15749
1659521730.625807,15754
1659521730.664038,15755
1659521730.702269,15772
1659521730.7405,15771
1659521730.785218,15765
1659521730.829934,15774
1659521730.874651,15768
1659521730.907933,15759
1659521730.941215,15729
1659521730.98559,15715
1659521731.029966,15686
1659521731.074341,15675
1659521731.107623,15677
1659521731.140905,15683
1659521731.185622,15691
1659521731.230338,15696
1659521731.275055,15689
1659521731.313628,15702
1659521731.352201,15721
1659521731.390773,15737
1659521731.433271,15764
1659521731.475769,15791
1659521731.514342,15779
1659521731.552915,15795
1659521731.591487,15798
1659521731.631937,15793
1659521731.672387,15804
1659521731.71096,15804
1659521731.749532,15807
1659521731.788105,15811
1659521731.82736,15800
1659521731.866616,15787
1659521731.905871,15785
1659521731.946833,15795
1659521731.987795,15800
1659521732.026709,15799
1659521732.065623,15802
1659521732.104537,15795
1659521732.145499,15785
1659521732.186461,15780
1659521732.226058,15785
1659521732.265654,15808
1659521732.305251,15800
1659521732.346213,15796
1659521732.387175,15810
1659521732.426089,15803
1659521732.465003,15808
1659521732.503917,15800
1659521732.545391,15809
1659521732.586865,15809
1659521732.630558,15810
1659521732.674251,15819
1659521732.717943,15788
1659521732.757199,15771
1659521732.796454,15775
1659521732.835709,15782
1659521732.876671,15773
1659521732.917634,15782
1659521732.956206,15783
1659521732.994779,15786
1659521733.033351,15788
1659521733.072607,15778
1659521733.111862,15782
1659521733.151117,15778
1659521733.193615,15801
1659521733.236113,15787
1659521733.276051,15793
1659521733.315989,15808
1659521733.355927,15797
1659521733.395865,15800
1659521733.435803,15797
1659521733.478302,15802
1659521733.5208,15793
1659521733.559714,15794
1659521733.598628,15796
1659521733.637542,15771
1659521733.679016,15770
1659521733.72049,15781
1659521733.759745,15796
1659521733.799,15799
1659521733.838255,15803
1659521733.876145,15814
1659521733.914035,15806
1659521733.951925,15813
1659521733.993911,15808
1659521734.035897,15803
1659521734.075153,15802
1659521734.114408,15801
1659521734.153663,15803
1659521734.194113,15800
1659521734.234563,15816
1659521734.273477,15800
1659521734.312391,15807
1659521734.351305,15807
1659521734.393803,15798
1659521734.436301,15763
1659521734.474874,15752
1659521734.513447,15753
1659521734.552019,15761
1659521734.592981,15758
1659521734.633943,15768
1659521734.673199,15771
1659521734.712454,15782
1659521734.751709,15774
1659521734.795743,15769
1659521734.839778,15780
1659521734.883812,15775
1659521734.925286,15781
1659521734.96676,15790
1659521735.005674,15784
1659521735.044588,15791
1659521735.083502,15796
1659521735.121733,15794
1659521735.159964,15771
1659521735.198195,15752
1659521735.238646,15742
1659521735.279096,15742
1659521735.318351,15742
1659521735.357606,15749
1659521735.396862,15757
1659521735.435434,15765
1659521735.474007,15768
1659521735.512579,15761
1659521735.554565,15777
1659521735.596551,15771
1659521735.635807,15779
1659521735.675062,15778
1659521735.714317,15783
1659521735.756304,15793
1659521735.79829,15792
1659521735.836521,15794
1659521735.874752,15800
1659521735.912983,15796
1659521735.955482,15784
1659521735.99798,15766
1659521736.036552,15759
1659521736.075125,15754
1659521736.113697,15763
1659521736.154659,15771
1659521736.195621,15778
1659521736.234194,15785
1659521736.272767,15788
1659521736.311339,15785
1659521736.353837,15795
1659521736.396335,15802
1659521736.440711,15796
1659521736.485087,15809
1659521736.529462,15818
1659521736.568717,15817
1659521736.607973,15803
1659521736.647228,15808
1659521736.689214,15803
1659521736.7312,15809
1659521736.769773,15786
1659521736.808345,15783
1659521736.846918,15794
1659521736.888904,15781
1659521736.93089,15785
1659521736.970145,15798
1659521737.009401,15796
1659521737.048656,15797
1659521737.087229,15806
1659521737.125801,15803
1659521737.164374,15812
1659521737.205336,15820
1659521737.246298,15828
1659521737.285895,15830
1659521737.325491,15838
1659521737.365088,15829
1659521737.406562,15833
1659521737.448036,15840
1659521737.486267,15845
1659521737.524498,15839
1659521737.56273,15835
1659521737.601985,15814
1659521737.64124,15807
1659521737.680496,15813
1659521737.722482,15811
1659521737.764468,15813
1659521737.80543,15823
1659521737.846392,15823
1659521737.884965,15825
1659521737.923537,15830
1659521737.96211,15825
1659521738.006827,15822
1659521738.051544,15840
1659521738.096261,15835
1659521738.129542,15826
1659521738.162824,15843
1659521738.206858,15835
1659521738.250892,15847
1659521738.294926,15847
1659521738.328208,15835
1659521738.36149,15836
1659521738.405183,15844
1659521738.448875,15843
1659521738.492568,15814
1659521738.530202,15801
1659521738.567836,15800
1659521738.60547,15808
1659521738.643104,15794
1659521738.684578,15800
1659521738.726052,15808
1659521738.764283,15802
1659521738.802515,15799
1659521738.840746,15800
1659521738.883756,15807
1659521738.926766,15808
1659521738.96568,15820
1659521739.004594,15824
1659521739.043508,15812
1659521739.088225,15819
1659521739.132942,15818
1659521739.177659,15816
1659521739.210428,15814
1659521739.243198,15823
1659521739.287915,15816
1659521739.332632,15815
1659521739.377349,15787
1659521739.418823,15780
1659521739.460297,15788
1659521739.498869,15784
1659521739.537442,15789
1659521739.576015,15795
1659521739.614928,15804
1659521739.653842,15805
1659521739.692756,15813
1659521739.734231,15819
1659521739.775705,15833
1659521739.815301,15828
1659521739.854898,15832
1659521739.894495,15854
1659521739.936481,15868
1659521739.978467,15870
1659521740.017039,15885
1659521740.055612,15889
1659521740.094184,15886
1659521740.13344,15879
1659521740.172695,15864
1659521740.21195,15827
1659521740.254448,15822
1659521740.296947,15837
1659521740.334836,15830
1659521740.372726,15836
1659521740.410616,15841
1659521740.451578,15839
1659521740.49254,15848
1659521740.531454,15850
1659521740.570368,15861
1659521740.609282,15881
1659521740.650756,15890
1659521740.69223,15881
1659521740.730803,15897
1659521740.769376,15905
1659521740.807948,15911
1659521740.84891,15900
1659521740.889872,15890
1659521740.934248,15866
1659521740.978623,15847
1659521741.022999,15826
1659521741.061572,15806
1659521741.100144,15801
1659521741.138717,15802
1659521741.181215,15800
1659521741.223713,15832
1659521741.262285,15817
1659521741.300858,15817
1659521741.339431,15831
1659521741.378345,15817
1659521741.417259,15818
1659521741.456172,15827
1659521741.497647,15818
1659521741.539121,15825
1659521741.577693,15823
1659521741.616266,15825
1659521741.654839,15822
1659521741.696825,15823
1659521741.738811,15800
1659521741.777383,15771
1659521741.815956,15754
1659521741.854528,15736
1659521741.893442,15731
1659521741.932356,15741
1659521741.97127,15745
1659521742.012232,15749
1659521742.053195,15763
1659521742.091767,15758
1659521742.13034,15761
1659521742.168912,15750
1659521742.211922,15748
1659521742.254933,15772
1659521742.298967,15773
1659521742.343001,15779
1659521742.387035,15777
1659521742.420317,15782
1659521742.453598,15777
1659521742.497974,15771
1659521742.54235,15771
1659521742.586725,15752
1659521742.621031,15733
1659521742.655337,15745
1659521742.699371,15757
1659521742.743405,15767
1659521742.787439,15784
1659521742.826353,15782
1659521742.865267,15793
1659521742.904181,15790
1659521742.945143,15825
1659521742.986105,15844
1659521743.025019,15856
1659521743.063933,15865
1659521743.102847,15862
1659521743.145345,15865
1659521743.187843,15882
1659521743.227098,15878
1659521743.266354,15886
1659521743.305609,15896
1659521743.34384,15900
1659521743.382071,15889
1659521743.420303,15884
1659521743.462801,15888
1659521743.505299,15893
1659521743.544213,15887
1659521743.583127,15895
1659521743.622041,15897
1659521743.662491,15889
1659521743.702941,15882
1659521743.741855,15886
1659521743.780769,15876
1659521743.819683,15862
1659521743.863717,15843
1659521743.907751,15860
1659521743.951785,15856
1659521743.984555,15866
1659521744.017325,15867
1659521744.0617,15867
1659521744.106076,15826
1659521744.150451,15814
1659521744.183221,15819
1659521744.215991,15828
1659521744.257465,15831
1659521744.298939,15848
1659521744.340413,15866
1659521744.381887,15862
1659521744.423873,15863
1659521744.465859,15863
1659521744.504432,15867
1659521744.543004,15876
1659521744.581577,15873
1659521744.62015,15867
1659521744.658722,15886
1659521744.697295,15882
1659521744.739793,15893
1659521744.782291,15894
1659521744.820863,15874
1659521744.859436,15875
1659521744.898009,15845
1659521744.938459,15848
1659521744.978909,15846
1659521745.017823,15859
1659521745.056737,15866
1659521745.095651,15871
1659521745.138149,15868
1659521745.180647,15870
1659521745.22434,15877
1659521745.268033,15874
1659521745.311725,15879
1659521745.345519,15877
1659521745.379313,15883
1659521745.42403,15874
1659521745.468747,15883
1659521745.513463,15889
1659521745.552377,15887
1659521745.591291,15900
1659521745.630205,15868
1659521745.672704,15865
1659521745.715202,15859
1659521745.754457,15848
1659521745.793712,15863
1659521745.832968,15875
1659521745.873418,15867
1659521745.913867,15870
1659521745.952781,15874
1659521745.991695,15873
1659521746.030609,15887
1659521746.069865,15879
1659521746.10912,15878
1659521746.148375,15879
1659521746.188825,15878
1659521746.229275,15874
1659521746.267848,15872
1659521746.306421,15865
1659521746.344993,15838
1659521746.386979,15835
1659521746.428965,15822
1659521746.467879,15818
1659521746.506793,15835
1659521746.545707,15834
1659521746.584621,15833
1659521746.623535,15834
1659521746.662449,15832
1659521746.703923,15827
1659521746.745397,15844
1659521746.787383,15827
1659521746.829369,15831
1659521746.868283,15841
1659521746.907197,15845
1659521746.946111,15843
1659521746.990487,15853
1659521747.034862,15844
1659521747.079238,15828
1659521747.112007,15811
1659521747.144777,15813
1659521747.18847,15804
1659521747.232163,15817
1659521747.275856,15822
1659521747.309137,15817
1659521747.342419,15835
1659521747.386795,15830
1659521747.43117,15839
1659521747.475546,15835
1659521747.514118,15827
1659521747.552691,15835
1659521747.591264,15842
1659521747.632738,15838
1659521747.674212,15849
1659521747.713467,15845
1659521747.752722,15837
1659521747.791977,15832
1659521747.830209,15811
1659521747.86844,15799
1659521747.906671,15807
1659521747.948657,15804
1659521747.990644,15809
1659521748.03024,15814
1659521748.069837,15810
1659521748.109433,15810
1659521748.149884,15818
1659521748.190333,15818
1659521748.228906,15808
1659521748.267479,15813
1659521748.306051,15806
1659521748.349061,15804
1659521748.392071,15809
1659521748.430303,15809
1659521748.468534,15810
1659521748.506765,15783
1659521748.547727,15755
1659521748.588689,15737
1659521748.628286,15733
1659521748.667883,15716
1659521748.707479,15724
1659521748.749465,15727
1659521748.791451,15743
1659521748.830365,15748
1659521748.869279,15752
1659521748.908193,15756
1659521748.950435,15755
1659521748.992677,15739
1659521749.03492,15743
1659521749.077162,15744
1659521749.115393,15745
1659521749.153624,15749
1659521749.191855,15751
1659521749.236573,15748
1659521749.281289,15725
1659521749.326006,15690
1659521749.358776,15629
1659521749.391546,15603
1659521749.435238,15568
1659521749.478931,15561
1659521749.522624,15555
1659521749.561538,15556
1659521749.600452,15557
1659521749.639366,15564
1659521749.681864,15569
1659521749.724362,15570
1659521749.762594,15576
1659521749.800825,15574
1659521749.839056,15583
1659521749.881042,15578
1659521749.923028,15569
1659521749.961942,15568
1659521750.000856,15572
1659521750.03977,15578
1659521750.078342,15573
1659521750.116915,15552
1659521750.155488,15495
1659521750.197474,15410
1659521750.23946,15368
1659521750.278374,15343
1659521750.317288,15337
1659521750.356202,15342
1659521750.394433,15358
1659521750.432664,15356
1659521750.470896,15353
1659521750.511858,15366
1659521750.55282,15360
1659521750.59455,15370
1659521750.63628,15382
1659521750.67801,15395
1659521750.71974,15403
1659521750.757971,15418
1659521750.796202,15421
1659521750.834434,15427
1659521750.873689,15444
1659521750.912944,15444
1659521750.9522,15427
1659521750.994186,15371
1659521751.036172,15310
1659521751.075086,15289
1659521751.114,15301
1659521751.152914,15303
1659521751.1949,15306
1659521751.236886,15315
1659521751.281603,15302
1659521751.32632,15299
1659521751.371037,15316
1659521751.40483,15320
1659521751.438624,15318
1659521751.483,15325
1659521751.527375,15335
1659521751.571751,15326
1659521751.60452,15337
1659521751.63729,15346
1659521751.681324,15340
1659521751.725358,15304
1659521751.769392,15218
1659521751.808306,15182
1659521751.84722,15157
1659521751.886134,15154
1659521751.92812,15169
1659521751.970107,15177
1659521752.009021,15194
1659521752.047934,15191
1659521752.086848,15200
1659521752.128322,15209
1659521752.169796,15222
1659521752.209052,15215
1659521752.248307,15233
1659521752.287562,15235
1659521752.326818,15233
1659521752.366073,15240
1659521752.405328,15243
1659521752.446802,15245
1659521752.488276,15221
1659521752.52719,15141
1659521752.566104,15081
1659521752.605018,15058
1659521752.64598,15050
1659521752.686942,15044
1659521752.725515,15040
1659521752.764087,15046
1659521752.80266,15057
1659521752.844134,15044
1659521752.885608,15054
1659521752.924181,15070
1659521752.962754,15071
1659521753.001326,15091
1659521753.042288,15091
1659521753.08325,15104
1659521753.122847,15104
1659521753.162443,15110
1659521753.20204,15118
1659521753.246757,15130
1659521753.291474,15112
1659521753.336191,15023
1659521753.368448,14971
1659521753.400706,14951
1659521753.445423,14951
1659521753.49014,14950
1659521753.534857,14959
1659521753.576843,14972
1659521753.618829,14972
1659521753.657402,14970
1659521753.695974,14976
1659521753.734547,14987
1659521753.773461,14990
1659521753.812375,15003
1659521753.851289,15008
1659521753.892763,15023
1659521753.934237,15028
1659521753.972127,15034
1659521754.010016,15053
1659521754.047906,15060
1659521754.090405,15051
1659521754.132903,14988
1659521754.171817,14918
1659521754.210731,14882
1659521754.249645,14894
1659521754.288217,14897
1659521754.32679,14914
1659521754.365362,14933
1659521754.407348,14947
1659521754.449335,14948
1659521754.48859,14970
1659521754.527845,14991
1659521754.567101,15018
1659521754.608574,15048
1659521754.650048,15066
1659521754.689304,15090
1659521754.728559,15102
1659521754.767814,15132
1659521754.809289,15120
1659521754.850763,15116
1659521754.895138,15067
1659521754.939514,14853
1659521754.983889,14645
1659521755.017171,14444
1659521755.050453,14171
1659521755.09517,13793
