LocalTimestamp,PG
1659441042.773202,14332
1659441042.812166,14468
1659441042.85113,14535
1659441042.890095,14620
1659441042.931622,14638
1659441042.97315,14637
1659441043.012456,14582
1659441043.051762,14393
1659441043.091068,14147
1659441043.133108,14076
1659441043.175149,14193
1659441043.213088,14418
1659441043.251026,14631
1659441043.288965,14802
1659441043.327929,14934
1659441043.366894,15064
1659441043.405858,15251
1659441043.446873,15400
1659441043.487888,15489
1659441043.52651,15488
1659441043.565132,15447
1659441043.603755,15470
1659441043.645283,15465
1659441043.68681,15366
1659441043.725774,15253
1659441043.764739,15199
1659441043.803703,15192
1659441043.844718,15170
1659441043.885733,15122
1659441043.925039,15068
1659441043.964345,15006
1659441044.003651,14938
1659441044.045178,14875
1659441044.086706,14835
1659441044.125328,14821
1659441044.163951,14828
1659441044.202573,14825
1659441044.247006,14784
1659441044.291439,14562
1659441044.335872,14161
1659441044.376887,13807
1659441044.417902,13600
1659441044.456524,13479
1659441044.495147,13424
1659441044.533769,13404
1659441044.572733,13362
1659441044.611697,13307
1659441044.650662,13256
1659441044.691677,13244
1659441044.732692,13265
1659441044.771314,13289
1659441044.809936,13322
1659441044.848559,13366
1659441044.891112,13353
1659441044.933665,13115
1659441044.972971,12797
1659441045.012277,12589
1659441045.051583,12477
1659441045.090205,12413
1659441045.128828,12396
1659441045.16745,12408
1659441045.208978,12405
1659441045.250505,12391
1659441045.289469,12335
1659441045.328434,12348
1659441045.367398,12425
1659441045.409438,12518
1659441045.451478,12577
1659441045.490101,12666
1659441045.528723,12752
1659441045.567346,12852
1659441045.608873,12818
1659441045.650401,12648
1659441045.689365,12514
1659441045.728329,12449
1659441045.767294,12430
1659441045.809334,12418
1659441045.851374,12447
1659441045.895807,12493
1659441045.94024,12491
1659441045.984673,12476
1659441046.023295,12555
1659441046.061918,12725
1659441046.10054,12929
1659441046.142068,13086
1659441046.183595,13200
1659441046.222902,13311
1659441046.262208,13406
1659441046.301513,13477
1659441046.343554,13543
1659441046.385594,13565
1659441046.424217,13414
1659441046.462839,13015
1659441046.501462,12658
1659441046.540084,12495
1659441046.578706,12442
1659441046.617329,12439
1659441046.658344,12512
1659441046.699358,12596
1659441046.737639,12644
1659441046.77592,12678
1659441046.8142,12710
1659441046.856241,12769
1659441046.898281,12836
1659441046.936903,12915
1659441046.975526,12998
1659441047.014148,13080
1659441047.052771,13160
1659441047.091393,13237
1659441047.130016,13308
1659441047.171031,13375
1659441047.212045,13431
1659441047.255111,13370
1659441047.298177,13121
1659441047.336799,12869
1659441047.375422,12731
1659441047.414044,12637
1659441047.458477,12597
1659441047.50291,12644
1659441047.547343,12686
1659441047.580667,12704
1659441047.613992,12699
1659441047.658083,12695
1659441047.702174,12723
1659441047.746265,12779
1659441047.779077,12800
1659441047.811889,12856
1659441047.856664,12922
1659441047.901438,13000
1659441047.946213,13095
1659441047.984836,13193
1659441048.023458,13313
1659441048.06208,13438
1659441048.103095,13563
1659441048.14411,13574
1659441048.183758,13439
1659441048.223406,13295
1659441048.263054,13232
1659441048.305094,13239
1659441048.347134,13258
1659441048.385415,13329
1659441048.423696,13393
1659441048.461976,13442
1659441048.501282,13461
1659441048.540588,13491
1659441048.579894,13550
1659441048.621935,13626
1659441048.663975,13732
1659441048.702939,13821
1659441048.741903,13927
1659441048.780868,14036
1659441048.822395,14112
1659441048.863923,14166
1659441048.902887,14212
1659441048.941851,14160
1659441048.980815,13905
1659441049.022343,13649
1659441049.063871,13506
1659441049.102835,13468
1659441049.141799,13497
1659441049.180763,13563
1659441049.225196,13612
1659441049.269629,13629
1659441049.314062,13633
1659441049.346874,13635
1659441049.379686,13689
1659441049.424119,13749
1659441049.468552,13827
1659441049.512985,13911
1659441049.551949,13973
1659441049.590913,14030
1659441049.629877,14083
1659441049.671405,14151
1659441049.712932,14158
1659441049.751897,13981
1659441049.790861,13642
1659441049.829825,13369
1659441049.87084,13243
1659441049.911855,13189
1659441049.950135,13192
1659441049.988416,13247
1659441050.026697,13287
1659441050.064977,13292
1659441050.103258,13255
1659441050.141539,13220
1659441050.183579,13205
1659441050.225619,13241
1659441050.2639,13286
1659441050.302181,13373
1659441050.340461,13500
1659441050.381989,13660
1659441050.423517,13851
1659441050.462139,14034
1659441050.500761,14172
1659441050.539384,14172
1659441050.581937,13979
1659441050.62449,13742
1659441050.663112,13596
1659441050.701735,13519
1659441050.740357,13470
1659441050.785132,13438
1659441050.829906,13424
1659441050.874681,13423
1659441050.907493,13412
1659441050.940305,13376
1659441050.983712,13357
1659441051.02712,13388
1659441051.070527,13438
1659441051.11308,13499
1659441051.155633,13574
1659441051.194256,13636
1659441051.232878,13704
1659441051.271501,13770
1659441051.310123,13824
1659441051.348745,13895
1659441051.387368,13900
1659441051.429408,13673
1659441051.471448,13292
1659441051.511096,13040
1659441051.550744,12955
1659441051.590392,12956
1659441051.631919,13019
1659441051.673447,13091
1659441051.713847,13166
1659441051.754247,13189
1659441051.794646,13203
1659441051.835046,13219
1659441051.875446,13271
1659441051.914068,13330
1659441051.952691,13400
1659441051.991313,13488
1659441052.029935,13564
1659441052.068558,13635
1659441052.10718,13720
1659441052.149221,13777
1659441052.191261,13708
1659441052.2292,13396
1659441052.267139,13096
1659441052.305078,12943
1659441052.346605,12911
1659441052.388133,12936
1659441052.427439,13003
1659441052.466745,13077
1659441052.506051,13107
1659441052.546553,13121
1659441052.587055,13134
1659441052.631488,13176
1659441052.675921,13250
1659441052.720354,13313
1659441052.75966,13384
1659441052.798966,13462
1659441052.838272,13549
1659441052.880312,13634
1659441052.922353,13711
1659441052.960633,13755
1659441052.998914,13631
1659441053.037194,13288
1659441053.079747,12952
1659441053.1223,12777
1659441053.160581,12711
1659441053.198862,12713
1659441053.237142,12762
1659441053.275423,12854
1659441053.313704,12925
1659441053.351984,12949
1659441053.394024,12962
1659441053.436065,12977
1659441053.474345,13014
1659441053.512626,13093
1659441053.550907,13190
1659441053.589187,13312
1659441053.627468,13415
1659441053.665749,13514
1659441053.707789,13599
1659441053.749829,13694
1659441053.788452,13635
1659441053.827074,13348
1659441053.865696,13063
1659441053.907737,12955
1659441053.949777,13015
1659441053.994552,13056
1659441054.039326,13132
1659441054.084101,13226
1659441054.117426,13313
1659441054.15075,13336
1659441054.1945,13370
1659441054.238249,13410
1659441054.281998,13463
1659441054.316348,13562
1659441054.350698,13645
1659441054.394789,13734
1659441054.43888,13825
1659441054.482971,13910
1659441054.521594,13996
1659441054.560216,14049
1659441054.598839,13940
1659441054.640366,13646
1659441054.681894,13386
1659441054.7212,13281
1659441054.760506,13270
1659441054.799812,13326
1659441054.84134,13414
1659441054.882867,13488
1659441054.922173,13515
1659441054.961479,13540
1659441055.000785,13571
1659441055.03975,13642
1659441055.078714,13719
1659441055.117678,13807
1659441055.159718,13890
1659441055.201759,13960
1659441055.240723,14044
1659441055.279687,14125
1659441055.318651,14089
1659441055.360692,13837
1659441055.402732,13488
1659441055.441354,13286
1659441055.479977,13229
1659441055.518599,13241
1659441055.559614,13310
1659441055.600629,13406
1659441055.639935,13462
1659441055.679241,13482
1659441055.718547,13501
1659441055.760075,13544
1659441055.801602,13608
1659441055.839883,13687
1659441055.878164,13772
1659441055.916444,13850
1659441055.960877,13935
1659441056.00531,14005
1659441056.049743,14066
1659441056.08358,14012
1659441056.117417,13706
1659441056.161509,13311
1659441056.2056,13079
1659441056.249691,12998
1659441056.291218,12992
1659441056.332746,13041
1659441056.37171,13141
1659441056.410674,13221
1659441056.449639,13279
1659441056.487919,13288
1659441056.5262,13326
1659441056.564481,13395
1659441056.606521,13473
1659441056.648561,13553
1659441056.687183,13641
1659441056.725806,13727
1659441056.764428,13786
1659441056.802367,13867
1659441056.840306,13910
1659441056.878245,13797
1659441056.91926,13446
1659441056.960275,13088
1659441056.999923,12923
1659441057.03957,12885
1659441057.079218,12916
1659441057.123309,12993
1659441057.1674,13104
1659441057.211491,13183
1659441057.245841,13220
1659441057.280191,13267
1659441057.324966,13318
1659441057.369741,13406
1659441057.414515,13495
1659441057.447327,13580
1659441057.480139,13673
1659441057.52423,13758
1659441057.568321,13835
1659441057.612412,13902
1659441057.651377,13951
1659441057.690341,13800
1659441057.729305,13464
1659441057.770833,13169
1659441057.812361,13076
1659441057.850983,13091
1659441057.889605,13161
1659441057.928228,13268
1659441057.970268,13359
1659441058.012308,13407
1659441058.050931,13416
1659441058.089553,13457
1659441058.128175,13503
1659441058.167482,13580
1659441058.206788,13666
1659441058.246094,13732
1659441058.288134,13807
1659441058.330174,13875
1659441058.368797,13931
1659441058.407419,13848
1659441058.446041,13503
1659441058.488082,13121
1659441058.530122,12936
1659441058.569428,12913
1659441058.608734,12950
1659441058.64804,13053
1659441058.689055,13164
1659441058.73007,13225
1659441058.768351,13243
1659441058.806631,13262
1659441058.844912,13315
1659441058.884902,13380
1659441058.924891,13470
1659441058.964881,13556
1659441059.00487,13641
1659441059.04486,13715
1659441059.085875,13784
1659441059.12689,13700
1659441059.171323,13329
1659441059.215755,12931
1659441059.260188,12726
1659441059.298811,12673
1659441059.337433,12685
1659441059.376055,12746
1659441059.41707,12849
1659441059.458086,12922
1659441059.497733,12973
1659441059.537381,13008
1659441059.577029,13054
1659441059.618556,13135
1659441059.660084,13224
1659441059.698707,13323
1659441059.737329,13421
1659441059.775951,13512
1659441059.814232,13592
1659441059.852513,13649
1659441059.890793,13481
1659441059.933346,13065
1659441059.975899,12732
1659441060.013838,12598
1659441060.051777,12585
1659441060.089716,12641
1659441060.127996,12737
1659441060.166277,12841
1659441060.204558,12918
1659441060.245573,12949
1659441060.286587,13009
1659441060.325893,13070
1659441060.3652,13156
1659441060.404505,13259
1659441060.446033,13358
1659441060.487561,13456
1659441060.527209,13549
1659441060.566856,13631
1659441060.606504,13690
1659441060.648032,13627
1659441060.689559,13304
1659441060.733992,12933
1659441060.778425,12764
1659441060.822858,12743
1659441060.856695,12783
1659441060.890533,12882
1659441060.934966,12990
1659441060.979398,13050
1659441061.023831,13075
1659441061.062112,13093
1659441061.100393,13150
1659441061.138673,13211
1659441061.180201,13298
1659441061.221729,13385
1659441061.259155,13472
1659441061.296581,13560
1659441061.334007,13615
1659441061.371433,13513
1659441061.415866,13163
1659441061.460299,12837
1659441061.504732,12714
1659441061.539082,12701
1659441061.573432,12757
1659441061.617523,12868
1659441061.661614,12950
1659441061.705705,12993
1659441061.744669,13027
1659441061.783633,13052
1659441061.822598,13119
1659441061.863612,13208
1659441061.904628,13311
1659441061.943592,13403
1659441061.982556,13500
1659441062.02152,13581
1659441062.059801,13654
1659441062.098081,13550
1659441062.136362,13164
1659441062.179428,12782
1659441062.222493,12610
1659441062.261663,12556
1659441062.300832,12564
1659441062.340001,12629
1659441062.37917,12725
1659441062.41834,12811
1659441062.460893,12846
1659441062.503446,12874
1659441062.542068,12927
1659441062.580691,12997
1659441062.619313,13099
1659441062.660328,13186
1659441062.701343,13290
1659441062.740307,13384
1659441062.779271,13456
1659441062.818236,13541
1659441062.8572,13606
1659441062.896164,13535
1659441062.935128,13162
1659441062.976656,12725
1659441063.018183,12511
1659441063.057489,12444
1659441063.096796,12434
1659441063.136101,12489
1659441063.177116,12598
1659441063.218131,12678
1659441063.256412,12732
1659441063.294693,12763
1659441063.332973,12813
1659441063.375014,12898
1659441063.417054,12984
1659441063.455676,13094
1659441063.494299,13195
1659441063.532921,13295
1659441063.574449,13386
1659441063.615976,13462
1659441063.657504,13537
1659441063.699032,13604
1659441063.738338,13664
1659441063.777644,13605
1659441063.81695,13241
1659441063.858477,12794
1659441063.900005,12567
1659441063.938627,12500
1659441063.97725,12523
1659441064.015872,12589
1659441064.058425,12670
1659441064.100978,12748
1659441064.139942,12768
1659441064.178907,12780
1659441064.217871,12816
1659441064.258886,12894
1659441064.299901,12979
1659441064.344334,13075
1659441064.388767,13178
1659441064.433199,13278
1659441064.472164,13375
1659441064.511128,13450
1659441064.550092,13529
1659441064.59162,13490
1659441064.633147,13186
1659441064.672112,12803
1659441064.711076,12598
1659441064.75004,12562
1659441064.79208,12616
1659441064.834121,12728
1659441064.872743,12828
1659441064.911366,12909
1659441064.949988,12939
1659441064.988952,12971
1659441065.027916,13042
1659441065.06688,13132
1659441065.109433,13242
1659441065.151986,13354
1659441065.190609,13456
1659441065.229231,13558
1659441065.267854,13629
1659441065.308869,13701
1659441065.349884,13673
1659441065.388506,13368
1659441065.427129,12935
1659441065.465751,12684
1659441065.504373,12598
1659441065.542996,12609
1659441065.581618,12673
1659441065.623146,12804
1659441065.664673,12886
1659441065.703638,12934
1659441065.742602,12975
1659441065.781566,13022
1659441065.825315,13106
1659441065.869065,13202
1659441065.912814,13302
1659441065.951436,13403
1659441065.990059,13505
1659441066.028681,13594
1659441066.067987,13657
1659441066.107293,13537
1659441066.146599,13176
1659441066.185221,12880
1659441066.223844,12774
1659441066.262466,12775
1659441066.304507,12841
1659441066.346547,12917
1659441066.386195,12990
1659441066.425843,13018
1659441066.46549,12971
1659441066.505993,12889
1659441066.546495,12891
1659441066.590928,12904
1659441066.635361,12940
1659441066.679794,12978
1659441066.714144,13029
1659441066.748493,13052
1659441066.792585,12821
1659441066.836676,12323
1659441066.880767,11963
1659441066.912553,11795
1659441066.94434,11732
1659441066.989456,11755
1659441067.034573,11869
1659441067.079689,11979
1659441067.118654,12027
1659441067.157618,12023
1659441067.196582,12033
1659441067.238622,12103
1659441067.280663,12189
1659441067.319968,12284
1659441067.359275,12390
1659441067.398581,12514
1659441067.440621,12626
1659441067.482661,12620
1659441067.519831,12285
1659441067.557001,11822
1659441067.594171,11564
1659441067.631341,11469
1659441067.675773,11432
1659441067.720206,11446
1659441067.764639,11515
1659441067.802578,11579
1659441067.840517,11632
1659441067.878456,11657
1659441067.920496,11717
1659441067.962536,11831
1659441068.001842,11947
1659441068.041148,12074
1659441068.080454,12195
1659441068.118735,12312
1659441068.157015,12407
1659441068.195296,12298
1659441068.237336,11865
1659441068.279377,11479
1659441068.321161,11316
1659441068.362945,11298
1659441068.404729,11330
1659441068.446513,11435
1659441068.479325,11559
1659441068.512136,11657
1659441068.556569,11705
1659441068.601002,11751
1659441068.645435,11836
1659441068.679272,11927
1659441068.71311,12040
1659441068.756859,12152
1659441068.800608,12277
1659441068.844358,12393
1659441068.88298,12508
1659441068.921602,12580
1659441068.960225,12376
1659441069.00124,11973
1659441069.042255,11723
1659441069.081219,11642
1659441069.120183,11636
1659441069.159148,11710
1659441069.19777,11817
1659441069.236392,11910
1659441069.275015,11977
1659441069.316542,12022
1659441069.35807,12096
1659441069.396693,12178
1659441069.435315,12286
1659441069.473937,12408
1659441069.515978,12531
1659441069.558018,12661
1659441069.596982,12744
1659441069.635946,12635
1659441069.674911,12260
1659441069.716951,11974
1659441069.758991,11835
1659441069.797272,11808
1659441069.835552,11842
1659441069.873833,11915
1659441069.916386,12003
1659441069.958939,12047
1659441069.997903,12081
1659441070.036867,12121
1659441070.075832,12225
1659441070.119581,12318
1659441070.16333,12449
1659441070.20708,12589
1659441070.248607,12712
1659441070.290135,12819
1659441070.329099,12912
1659441070.368063,12998
1659441070.407027,12940
1659441070.445992,12592
1659441070.484956,12203
1659441070.52392,11993
1659441070.56596,11908
1659441070.608001,11883
1659441070.650041,11938
1659441070.692081,12004
1659441070.725919,12067
1659441070.759756,12118
1659441070.804189,12173
1659441070.848622,12264
1659441070.893055,12362
1659441070.926379,12474
1659441070.959704,12588
1659441071.003453,12709
1659441071.047203,12817
1659441071.090952,12894
1659441071.129574,12789
1659441071.168197,12385
1659441071.206819,12018
1659441071.249372,11849
1659441071.291925,11789
1659441071.330548,11787
1659441071.36917,11851
1659441071.407792,11922
1659441071.446073,11979
1659441071.484354,12007
1659441071.522634,12030
1659441071.565187,12088
1659441071.60774,12181
1659441071.646363,12284
1659441071.684985,12386
1659441071.723608,12495
1659441071.765135,12600
1659441071.806663,12689
1659441071.845969,12773
1659441071.885275,12588
1659441071.924581,12112
1659441071.965596,11740
1659441072.006611,11583
1659441072.044549,11544
1659441072.082488,11549
1659441072.120427,11634
1659441072.16298,11743
1659441072.205533,11824
1659441072.244156,11853
1659441072.282778,11902
1659441072.3214,11970
1659441072.36515,12076
1659441072.408899,12211
1659441072.452648,12343
1659441072.494176,12465
1659441072.535704,12579
1659441072.57501,12681
1659441072.614316,12776
1659441072.653622,12824
1659441072.691902,12537
1659441072.730183,12069
1659441072.768463,11799
1659441072.809068,11717
1659441072.849673,11721
1659441072.890278,11781
1659441072.930883,11888
1659441072.971488,11964
1659441073.011272,12001
1659441073.051056,12012
1659441073.090841,12036
1659441073.130625,12109
1659441073.17041,12187
1659441073.212963,12286
1659441073.255516,12391
1659441073.293797,12492
1659441073.332077,12573
1659441073.370358,12638
1659441073.409322,12436
1659441073.448286,11944
1659441073.487251,11589
1659441073.528265,11457
1659441073.56928,11439
1659441073.608586,11462
1659441073.647892,11556
1659441073.687198,11641
1659441073.728726,11675
1659441073.770254,11681
1659441073.80956,11706
1659441073.848866,11789
1659441073.888172,11883
1659441073.932605,11994
1659441073.977037,12121
1659441074.02147,12226
1659441074.063511,12344
1659441074.105551,12439
1659441074.145199,12528
1659441074.184847,12373
1659441074.224494,11868
1659441074.264997,11449
1659441074.305499,11275
1659441074.34378,11223
1659441074.38206,11241
1659441074.420341,11333
1659441074.459305,11442
1659441074.498269,11522
1659441074.537233,11569
1659441074.578761,11608
1659441074.620289,11673
1659441074.658911,11773
1659441074.697533,11889
1659441074.736156,12018
1659441074.774778,12160
1659441074.813401,12285
1659441074.852023,12404
1659441074.894063,12525
1659441074.936104,12540
1659441074.974384,12199
1659441075.012665,11690
1659441075.050946,11418
1659441075.092986,11351
1659441075.135026,11372
1659441075.176426,11444
1659441075.217825,11571
1659441075.259225,11688
1659441075.300624,11726
1659441075.342024,11758
1659441075.383423,11813
1659441075.424823,11895
1659441075.466222,12004
1659441075.506006,12136
1659441075.545791,12266
1659441075.585576,12400
1659441075.62536,12520
1659441075.665145,12621
1659441075.702827,12735
1659441075.74051,12751
1659441075.778192,12408
1659441075.815875,11930
1659441075.857146,11693
1659441075.898417,11661
1659441075.939688,11718
1659441075.98096,11811
1659441076.022487,11930
1659441076.064015,12007
1659441076.103663,12007
1659441076.143311,11992
1659441076.182958,12026
1659441076.221581,12108
1659441076.260203,12217
1659441076.298826,12331
1659441076.340353,12448
1659441076.381881,12546
1659441076.421187,12646
1659441076.460493,12706
1659441076.499799,12474
1659441076.541839,11956
1659441076.583879,11582
1659441076.62216,11477
1659441076.660441,11493
1659441076.698721,11576
1659441076.738027,11737
1659441076.777333,11977
1659441076.816639,12194
1659441076.857142,12427
1659441076.897644,12623
1659441076.939172,12782
1659441076.980699,12916
1659441077.020347,13011
1659441077.059995,13094
1659441077.099643,13154
1659441077.144075,13196
1659441077.188508,13239
1659441077.232941,13163
1659441077.26524,12655
1659441077.29754,11998
1659441077.342656,11647
1659441077.387773,11512
1659441077.432889,11474
1659441077.466214,11499
1659441077.499538,11594
1659441077.543288,11684
1659441077.587037,11716
1659441077.630786,11737
1659441077.66975,11763
1659441077.708715,11846
1659441077.747679,11939
1659441077.788694,12049
1659441077.829709,12170
1659441077.868331,12277
1659441077.906954,12390
1659441077.945576,12501
1659441077.987104,12491
1659441078.028631,12081
1659441078.068416,11581
1659441078.1082,11331
1659441078.147985,11284
1659441078.187769,11329
1659441078.227554,11413
1659441078.266518,11565
1659441078.305482,11676
1659441078.344446,11732
1659441078.385974,11756
1659441078.427502,11818
1659441078.466124,11928
1659441078.504747,12052
1659441078.543369,12172
1659441078.584897,12307
1659441078.626424,12448
1659441078.666072,12573
1659441078.70572,12682
1659441078.745368,12546
1659441078.783648,12077
1659441078.821929,11728
1659441078.860209,11637
1659441078.900712,11676
1659441078.941214,11785
1659441078.982742,11944
1659441079.024269,12057
1659441079.063575,12093
1659441079.102881,12106
1659441079.142187,12131
1659441079.18662,12197
1659441079.231053,12303
1659441079.275486,12415
1659441079.308298,12534
1659441079.34111,12657
1659441079.385885,12716
1659441079.430659,12493
1659441079.475434,11955
1659441079.509271,11597
1659441079.543108,11492
1659441079.587883,11490
1659441079.632658,11558
1659441079.677433,11676
1659441079.716397,11813
1659441079.755361,11859
1659441079.794325,11879
1659441079.83534,11929
1659441079.876355,12007
1659441079.915319,12117
1659441079.954283,12237
1659441079.993248,12365
1659441080.035288,12485
1659441080.077328,12602
1659441080.115609,12688
1659441080.153889,12484
1659441080.19217,11905
1659441080.230793,11480
1659441080.269415,11332
1659441080.308037,11314
1659441080.349565,11351
1659441080.391093,11446
1659441080.430057,11572
1659441080.469021,11650
1659441080.507985,11690
1659441080.550026,11743
1659441080.592066,11818
1659441080.63103,11917
1659441080.669994,12031
1659441080.708959,12165
1659441080.750486,12282
1659441080.792014,12413
1659441080.829953,12524
1659441080.867892,12461
1659441080.90583,12006
1659441080.949921,11538
1659441080.994013,11344
1659441081.038104,11299
1659441081.071941,11320
1659441081.105778,11409
1659441081.149869,11529
1659441081.19396,11647
1659441081.238051,11690
1659441081.278554,11728
1659441081.319056,11796
1659441081.358362,11910
1659441081.397668,12049
1659441081.436974,12176
1659441081.475255,12297
1659441081.513535,12430
1659441081.551816,12567
1659441081.594369,12689
1659441081.636922,12754
1659441081.675544,12491
1659441081.714167,11989
1659441081.752789,11694
1659441081.79107,11644
1659441081.82935,11676
1659441081.867631,11761
1659441081.909671,11908
1659441081.951712,12015
1659441081.991018,12046
1659441082.030324,12055
1659441082.06963,12092
1659441082.110132,12179
1659441082.150634,12284
1659441082.18994,12386
1659441082.229246,12496
1659441082.268552,12614
1659441082.309567,12719
1659441082.350582,12816
1659441082.389888,12675
1659441082.429194,12204
1659441082.4685,11847
1659441082.513275,11738
1659441082.558049,11748
1659441082.602824,11820
1659441082.635636,11944
1659441082.668448,12053
1659441082.712539,12108
1659441082.75663,12123
1659441082.800721,12160
1659441082.842762,12241
1659441082.884802,12337
1659441082.92445,12447
1659441082.964097,12566
1659441083.003745,12682
1659441083.042368,12785
1659441083.08099,12894
1659441083.119612,12989
1659441083.16114,12948
1659441083.202668,12529
1659441083.241632,12046
1659441083.280596,11811
1659441083.31956,11758
1659441083.359345,11771
1659441083.399129,11842
1659441083.438914,11949
1659441083.478698,12036
1659441083.518483,12068
1659441083.557447,12098
1659441083.596411,12144
1659441083.635375,12219
1659441083.67639,12320
1659441083.717406,12435
1659441083.75637,12555
1659441083.795334,12680
1659441083.834298,12774
1659441083.876851,12867
1659441083.919404,12972
1659441083.958026,13057
1659441083.996649,12993
1659441084.035271,12542
1659441084.076799,12078
1659441084.118327,11877
1659441084.162418,11827
1659441084.206509,11856
1659441084.2506,11923
1659441084.284437,12054
1659441084.318274,12139
1659441084.362024,12173
1659441084.405773,12205
1659441084.449522,12264
1659441084.488487,12348
1659441084.527451,12464
1659441084.566415,12575
1659441084.606917,12680
1659441084.647419,12795
1659441084.686042,12874
1659441084.724664,12985
1659441084.763287,13064
1659441084.80584,12998
1659441084.848393,12585
1659441084.887357,12160
1659441084.926321,12003
1659441084.965286,12010
1659441085.003908,12087
1659441085.04253,12198
1659441085.081153,12330
1659441085.12268,12402
1659441085.164208,12424
1659441085.203514,12447
1659441085.24282,12509
1659441085.282126,12618
1659441085.324166,12728
1659441085.366207,12854
1659441085.404487,12971
1659441085.442768,13088
1659441085.481049,13207
1659441085.520355,13247
1659441085.55966,13032
1659441085.598967,12574
1659441085.639469,12318
1659441085.679971,12270
1659441085.722011,12307
1659441085.764052,12415
1659441085.803358,12541
1659441085.842664,12628
1659441085.88197,12648
1659441085.926061,12644
1659441085.970152,12667
1659441086.014243,12740
1659441086.047055,12827
1659441086.079867,12915
1659441086.124983,13027
1659441086.1701,13129
1659441086.215216,13219
1659441086.249053,13274
1659441086.282891,13077
1659441086.327324,12545
1659441086.371757,12210
1659441086.416189,12190
1659441086.455154,12200
1659441086.494118,12258
1659441086.533082,12384
1659441086.574097,12592
1659441086.615112,12765
1659441086.653734,12908
1659441086.692357,13059
1659441086.730979,13221
1659441086.769943,13361
1659441086.808908,13496
1659441086.847872,13653
1659441086.888374,13802
1659441086.928876,13977
1659441086.967499,14087
1659441087.006121,14024
1659441087.044744,13815
1659441087.087297,13689
1659441087.12985,13864
1659441087.168472,14058
1659441087.207094,14255
1659441087.245717,14420
1659441087.286732,14006
1659441087.327747,13769
1659441087.367053,13810
1659441087.406359,14042
1659441087.445665,14059
1659441087.487705,14020
1659441087.529745,13985
1659441087.568026,13953
1659441087.606307,13973
1659441087.644587,13968
1659441087.688679,13831
1659441087.732769,13500
1659441087.77686,12998
1659441087.818388,12484
1659441087.859916,12097
1659441087.897855,11852
1659441087.935793,11707
1659441087.973732,11642
1659441088.013038,11588
1659441088.052344,11531
1659441088.09165,11463
1659441088.133691,11426
1659441088.175731,11445
1659441088.214353,11483
1659441088.252976,11484
1659441088.291598,11463
1659441088.333126,11447
1659441088.374654,11424
1659441088.413618,11214
1659441088.452582,10923
1659441088.491546,10795
1659441088.529827,10779
1659441088.568107,10807
1659441088.606388,10893
1659441088.648428,10993
1659441088.690469,11063
1659441088.732509,11147
1659441088.774549,11302
1659441088.813172,11475
1659441088.851794,11624
1659441088.890417,11778
1659441088.928697,11885
1659441088.966978,11928
1659441089.005258,11984
1659441089.047812,12057
1659441089.090364,12001
1659441089.128987,11658
1659441089.167609,11249
1659441089.206232,10967
1659441089.247759,10790
1659441089.289287,10688
1659441089.334062,10624
1659441089.378836,10608
1659441089.423611,10592
1659441089.457448,10538
1659441089.491286,10477
1659441089.535377,10440
1659441089.579468,10427
1659441089.623559,10451
1659441089.656883,10496
1659441089.690208,10553
1659441089.734299,10606
1659441089.77839,10672
1659441089.822481,10715
1659441089.861104,10607
1659441089.899726,10079
1659441089.938349,9442
1659441089.980389,9046
1659441090.022429,8841
1659441090.061393,8737
1659441090.100358,8696
1659441090.139322,8723
1659441090.177603,8747
1659441090.215883,8757
1659441090.254164,8747
1659441090.295691,8777
1659441090.337219,8855
1659441090.376867,8924
1659441090.416515,8997
1659441090.456162,9064
1659441090.497177,9119
1659441090.538192,9153
1659441090.576473,9200
1659441090.614753,9231
1659441090.653034,9099
1659441090.695587,8725
1659441090.73814,8424
1659441090.777104,8317
1659441090.816069,8309
1659441090.855033,8354
1659441090.895535,8429
1659441090.936037,8483
1659441090.975002,8495
1659441091.013966,8483
1659441091.05293,8487
1659441091.097021,8515
1659441091.141112,8586
1659441091.185203,8653
1659441091.218015,8734
1659441091.250827,8807
1659441091.295943,8882
1659441091.34106,8969
1659441091.386177,8925
1659441091.418988,8638
1659441091.4518,8363
1659441091.496233,8238
1659441091.540666,8245
1659441091.585099,8282
1659441091.624405,8371
1659441091.663711,8455
1659441091.703017,8490
1659441091.745057,8492
1659441091.787098,8521
1659441091.825378,8580
1659441091.863659,8655
1659441091.90194,8736
1659441091.94398,8819
1659441091.98602,8917
1659441092.024643,8978
1659441092.063265,8849
1659441092.101887,8541
1659441092.14051,8300
1659441092.179132,8226
1659441092.217755,8231
1659441092.259795,8265
1659441092.301835,8347
1659441092.3408,8421
1659441092.379764,8468
1659441092.418728,8490
1659441092.45923,8519
1659441092.499732,8545
1659441092.539038,8600
1659441092.578345,8681
1659441092.617651,8755
1659441092.659691,8830
1659441092.701731,8912
1659441092.740354,8974
1659441092.778976,9052
1659441092.817598,9106
1659441092.859126,8914
1659441092.900654,8536
1659441092.94577,8262
1659441092.990887,8147
1659441093.036003,8129
1659441093.073942,8137
1659441093.111881,8199
1659441093.14982,8276
1659441093.192373,8333
1659441093.234926,8350
1659441093.273548,8382
1659441093.312171,8429
1659441093.350793,8497
1659441093.389073,8584
1659441093.427354,8665
1659441093.465635,8744
1659441093.506137,8825
1659441093.546639,8911
1659441093.585945,8995
1659441093.625251,9065
1659441093.664557,9101
1659441093.706085,8934
1659441093.747612,8561
1659441093.786577,8288
1659441093.825541,8190
1659441093.864505,8190
1659441093.9047,8237
1659441093.944894,8326
1659441093.985089,8448
1659441094.025284,8545
1659441094.065478,8587
1659441094.107006,8624
1659441094.148534,8694
1659441094.187498,8784
1659441094.226462,8884
1659441094.265426,8996
1659441094.304049,9078
1659441094.342671,9176
1659441094.381294,9267
1659441094.421796,9341
1659441094.462298,9426
1659441094.504339,9433
1659441094.546379,9190
1659441094.585343,8827
1659441094.624307,8625
1659441094.663271,8580
1659441094.707362,8606
1659441094.751453,8675
1659441094.795545,8771
1659441094.828869,8850
1659441094.862194,8871
1659441094.906627,8880
1659441094.95106,8918
1659441094.995492,8980
1659441095.02933,9073
1659441095.063167,9163
1659441095.1076,9259
1659441095.152033,9355
1659441095.196466,9442
1659441095.235772,9526
1659441095.275078,9573
1659441095.314384,9435
1659441095.354886,9060
1659441095.395388,8805
1659441095.434694,8733
1659441095.474,8745
1659441095.513306,8830
1659441095.554834,8927
1659441095.596362,9001
1659441095.634984,9020
1659441095.673606,9030
1659441095.712229,9047
1659441095.75051,9101
1659441095.78879,9163
1659441095.827071,9237
1659441095.870136,9320
1659441095.913202,9396
1659441095.954473,9467
1659441095.995745,9535
1659441096.037016,9601
1659441096.078287,9527
1659441096.120328,9168
1659441096.162368,8797
1659441096.201674,8617
1659441096.24098,8597
1659441096.280286,8601
1659441096.318567,8667
1659441096.356847,8741
1659441096.395128,8789
1659441096.43563,8811
1659441096.476132,8825
1659441096.515438,8850
1659441096.554744,8908
1659441096.59405,8990
1659441096.632673,9071
1659441096.671295,9153
1659441096.709918,9218
1659441096.751445,9278
1659441096.792973,9351
1659441096.831254,9360
1659441096.869534,9121
1659441096.907815,8712
1659441096.949342,8459
1659441096.99087,8373
1659441097.029834,8393
1659441097.068798,8439
1659441097.107763,8526
1659441097.149803,8613
1659441097.191843,8651
1659441097.230466,8667
1659441097.269088,8690
1659441097.30771,8751
1659441097.349238,8827
1659441097.390766,8915
1659441097.43554,9000
1659441097.480315,9092
1659441097.52509,9182
1659441097.564054,9263
1659441097.603018,9346
1659441097.641982,9393
1659441097.682485,9194
1659441097.722987,8795
1659441097.762293,8545
1659441097.801599,8482
1659441097.840905,8511
1659441097.879185,8578
1659441097.917466,8676
1659441097.955747,8752
1659441097.9983,8784
1659441098.040853,8788
1659441098.079817,8820
1659441098.118781,8875
1659441098.157745,8960
1659441098.199786,9050
1659441098.241826,9142
1659441098.280107,9212
1659441098.318387,9292
1659441098.356668,9352
1659441098.395632,9348
1659441098.434596,9090
1659441098.473561,8721
1659441098.515601,8549
1659441098.557641,8527
1659441098.596606,8576
1659441098.63557,8663
1659441098.674534,8762
1659441098.715549,8814
1659441098.756564,8817
1659441098.800997,8831
1659441098.845429,8851
1659441098.889862,8916
1659441098.923187,8981
1659441098.956512,9078
1659441099.000945,9153
1659441099.045377,9232
1659441099.08981,9310
1659441099.129595,9327
1659441099.169379,9085
1659441099.209164,8680
1659441099.248948,8471
1659441099.288733,8426
1659441099.326159,8452
1659441099.363585,8519
1659441099.401011,8616
1659441099.438437,8704
1659441099.479965,8732
1659441099.521493,8750
1659441099.560799,8789
1659441099.600105,8858
1659441099.639411,8931
1659441099.680938,9023
1659441099.722466,9125
1659441099.761088,9207
1659441099.799711,9292
1659441099.838333,9361
1659441099.879348,9435
1659441099.920363,9318
1659441099.958986,8920
1659441099.997608,8591
1659441100.03623,8469
1659441100.078271,8466
1659441100.120311,8513
1659441100.15825,8571
1659441100.196189,8661
1659441100.234128,8729
1659441100.27856,8754
1659441100.322993,8787
1659441100.367426,8840
1659441100.408954,8914
1659441100.450481,9018
1659441100.490129,9120
1659441100.529777,9209
1659441100.569425,9305
1659441100.61044,9383
1659441100.651455,9464
1659441100.690761,9533
1659441100.730067,9430
1659441100.769373,9043
1659441100.807995,8721
1659441100.846617,8607
1659441100.88524,8605
1659441100.92728,8663
1659441100.969321,8736
1659441101.008285,8821
1659441101.047249,8872
1659441101.086213,8885
1659441101.127741,8904
1659441101.169268,8952
1659441101.207207,9027
1659441101.245146,9110
1659441101.283085,9207
1659441101.322733,9292
1659441101.362381,9385
1659441101.402028,9460
1659441101.444069,9505
1659441101.486109,9323
1659441101.525073,8950
1659441101.564037,8735
1659441101.603002,8695
1659441101.644529,8739
1659441101.686057,8828
1659441101.725021,8927
1659441101.763985,9015
1659441101.802949,9039
1659441101.844477,9049
1659441101.886005,9064
1659441101.930779,9120
1659441101.975554,9204
1659441102.020329,9297
1659441102.053653,9385
1659441102.086978,9482
1659441102.130727,9568
1659441102.174477,9620
1659441102.218226,9455
1659441102.256848,9048
1659441102.295471,8786
1659441102.334093,8717
1659441102.376646,8731
1659441102.419199,8781
1659441102.457138,8870
1659441102.495077,8965
1659441102.533016,9005
1659441102.57198,9016
1659441102.610944,9048
1659441102.649908,9088
1659441102.691436,9168
1659441102.732964,9253
1659441102.771586,9348
1659441102.810208,9432
1659441102.848831,9508
1659441102.890871,9593
1659441102.932911,9638
1659441102.972218,9426
1659441103.011523,9029
1659441103.050829,8773
1659441103.08911,8690
1659441103.127391,8692
1659441103.165671,8726
1659441103.206686,8803
1659441103.247701,8892
1659441103.292134,8939
1659441103.336567,8949
1659441103.381,8968
1659441103.414837,9016
1659441103.448674,9088
1659441103.492766,9171
1659441103.536857,9241
1659441103.580948,9327
1659441103.620254,9407
1659441103.65956,9481
1659441103.698866,9557
1659441103.739881,9592
1659441103.780896,9383
1659441103.81986,8986
1659441103.858824,8775
1659441103.897788,8697
1659441103.939829,8721
1659441103.981869,8774
1659441104.020833,8856
1659441104.059797,8941
1659441104.098762,8985
1659441104.137384,9011
1659441104.176006,9063
1659441104.214629,9140
1659441104.256669,9249
1659441104.298709,9367
1659441104.337503,9476
1659441104.376296,9573
1659441104.415089,9637
1659441104.453883,9691
1659441104.492676,9690
1659441104.531469,9413
1659441104.572484,9032
1659441104.613499,8831
1659441104.653147,8793
1659441104.692795,8824
1659441104.732443,8892
1659441104.77397,8994
1659441104.815498,9053
1659441104.860273,9057
1659441104.905047,9075
1659441104.949822,9110
1659441104.988786,9161
1659441105.02775,9245
1659441105.066715,9314
1659441105.107729,9388
1659441105.148744,9481
1659441105.187367,9540
1659441105.225989,9597
1659441105.264612,9461
1659441105.306652,9048
1659441105.348692,8736
1659441105.387315,8634
1659441105.425937,8626
1659441105.46456,8643
1659441105.50284,8720
1659441105.541121,8803
1659441105.579401,8845
1659441105.620929,8852
1659441105.662457,8863
1659441105.700737,8897
1659441105.739018,8957
1659441105.777298,9034
1659441105.816605,9126
1659441105.855911,9221
1659441105.895216,9291
1659441105.936744,9369
1659441105.978272,9446
1659441106.016552,9364
1659441106.054833,9008
1659441106.093114,8642
1659441106.134641,8495
1659441106.176169,8473
1659441106.220944,8491
1659441106.265718,8561
1659441106.310493,8653
1659441106.343818,8731
1659441106.377142,8757
1659441106.420892,8785
1659441106.464641,8817
1659441106.50839,8887
1659441106.541715,8990
1659441106.575039,9076
1659441106.61913,9159
1659441106.663222,9239
1659441106.707313,9315
1659441106.745935,9388
1659441106.784558,9358
1659441106.82318,9034
1659441106.86522,8722
1659441106.907261,8616
1659441106.946225,8628
1659441106.985189,8691
1659441107.024153,8777
1659441107.063117,8881
1659441107.102082,8933
1659441107.141046,8942
1659441107.183599,8963
1659441107.226152,9004
1659441107.265116,9079
1659441107.30408,9177
1659441107.343045,9308
1659441107.384572,9415
1659441107.4261,9508
1659441107.465064,9519
1659441107.504028,9232
1659441107.542992,8853
1659441107.581273,8659
1659441107.619554,8628
1659441107.657834,8655
1659441107.699875,8745
1659441107.741915,8854
1659441107.783442,8949
1659441107.82497,8999
1659441107.863593,9019
1659441107.902215,9059
1659441107.940837,9118
1659441107.984928,9200
1659441108.02902,9288
1659441108.073111,9381
1659441108.106948,9440
1659441108.140785,9499
1659441108.185902,9567
1659441108.231018,9555
1659441108.276135,9337
1659441108.308947,9071
1659441108.341758,8989
1659441108.386191,9038
1659441108.430624,9163
1659441108.475057,9335
1659441108.51761,9585
1659441108.560163,9810
1659441108.598444,9964
1659441108.636724,10040
1659441108.675005,10145
1659441108.713628,10278
1659441108.75225,10384
1659441108.790872,10473
1659441108.8324,10552
1659441108.873928,10656
1659441108.912208,10738
1659441108.950489,10724
1659441108.98877,10473
1659441109.027392,10089
1659441109.066014,9837
1659441109.104637,9698
1659441109.146164,9614
1659441109.187692,9588
1659441109.226998,9599
1659441109.266304,9607
1659441109.30561,9544
1659441109.346625,9440
1659441109.38764,9340
1659441109.426604,9305
1659441109.465568,9359
1659441109.504533,9455
1659441109.547086,9559
1659441109.589638,9651
1659441109.629013,9649
1659441109.668387,9380
1659441109.707762,9089
1659441109.747136,8927
1659441109.78651,8873
1659441109.830943,8856
1659441109.875376,8877
1659441109.919809,8931
1659441109.95809,8961
1659441109.99637,8944
1659441110.034651,8918
1659441110.076691,8922
1659441110.118731,8955
1659441110.157696,9013
1659441110.19666,9110
1659441110.235624,9220
1659441110.277152,9315
1659441110.318679,9233
1659441110.357644,8970
1659441110.396608,8789
1659441110.435572,8740
1659441110.478638,8765
1659441110.521703,8808
1659441110.560326,8925
1659441110.598948,9022
1659441110.637571,9101
1659441110.676535,9136
1659441110.715499,9179
1659441110.754463,9256
1659441110.796504,9338
1659441110.838544,9420
1659441110.877508,9494
1659441110.916472,9588
1659441110.955436,9672
1659441110.994059,9700
1659441111.032681,9499
1659441111.071304,9173
1659441111.112831,8963
1659441111.154359,8877
1659441111.19264,8885
1659441111.23092,8938
1659441111.269201,9079
1659441111.311754,9208
1659441111.354307,9306
1659441111.395835,9327
1659441111.437362,9349
1659441111.476326,9360
1659441111.515291,9391
1659441111.554255,9465
1659441111.598346,9550
1659441111.642437,9609
1659441111.686528,9658
1659441111.720878,9688
1659441111.755228,9571
1659441111.799319,9157
1659441111.84341,8670
1659441111.887501,8357
1659441111.926124,8229
1659441111.964746,8179
1659441112.003369,8198
1659441112.044896,8268
1659441112.086424,8327
1659441112.124705,8355
1659441112.162985,8330
1659441112.201266,8296
1659441112.239546,8311
1659441112.277827,8368
1659441112.316108,8397
1659441112.358661,8453
1659441112.401214,8556
1659441112.439494,8649
1659441112.477775,8724
1659441112.516056,8551
1659441112.554678,8162
1659441112.5933,7949
1659441112.631923,7973
1659441112.673963,8084
1659441112.716003,8210
1659441112.758556,8350
1659441112.80111,8460
1659441112.839732,8503
1659441112.878354,8499
1659441112.916977,8515
1659441112.959017,8556
1659441113.001057,8640
1659441113.03968,8756
1659441113.078302,8892
1659441113.116925,9042
1659441113.161016,9163
1659441113.205107,9167
1659441113.249198,8912
1659441113.282522,8598
1659441113.315847,8455
1659441113.36028,8415
1659441113.404713,8390
1659441113.449146,8410
1659441113.487426,8472
1659441113.525707,8498
1659441113.563987,8503
1659441113.606028,8466
1659441113.648068,8446
1659441113.687032,8440
1659441113.725997,8391
1659441113.764961,8305
1659441113.807514,8267
1659441113.850067,8321
1659441113.888689,8396
1659441113.927312,8465
1659441113.965934,8486
1659441114.00524,8485
1659441114.044546,8492
1659441114.083852,8505
1659441114.124867,8540
1659441114.165882,8590
1659441114.205188,8644
1659441114.244494,8710
1659441114.2838,8810
1659441114.324815,8910
1659441114.36583,8976
1659441114.404794,9066
1659441114.443758,9148
1659441114.482723,9224
1659441114.523225,9299
1659441114.563727,9356
1659441114.603375,9394
1659441114.643023,9245
1659441114.682671,8917
1659441114.724198,8653
1659441114.765726,8556
1659441114.804006,8549
1659441114.842287,8607
1659441114.880568,8683
1659441114.922608,8766
1659441114.964648,8838
1659441115.006689,8834
1659441115.048729,8810
1659441115.087351,8788
1659441115.125974,8823
1659441115.164596,8869
1659441115.205611,8939
1659441115.246626,9024
1659441115.285932,9069
1659441115.325238,8975
1659441115.364544,8766
1659441115.408293,8659
1659441115.452043,8641
1659441115.495792,8666
1659441115.528604,8706
1659441115.561416,8754
1659441115.60619,8783
1659441115.650965,8790
1659441115.69574,8776
1659441115.73402,8759
1659441115.772301,8776
1659441115.810582,8822
1659441115.851597,8882
1659441115.892612,8929
1659441115.932259,9000
1659441115.971907,8949
1659441116.011555,8702
1659441116.053083,8443
1659441116.09461,8298
1659441116.132891,8228
1659441116.171171,8219
1659441116.209452,8248
1659441116.2491,8293
1659441116.288748,8317
1659441116.328396,8319
1659441116.370436,8314
1659441116.412476,8325
1659441116.451099,8347
1659441116.489721,8387
1659441116.528343,8426
1659441116.569358,8468
1659441116.610373,8438
1659441116.648996,8220
1659441116.687618,7987
1659441116.726241,7872
1659441116.767768,7847
1659441116.809296,7872
1659441116.84826,7918
1659441116.887224,7999
1659441116.926188,8065
1659441116.968229,8106
1659441117.010269,8142
1659441117.048892,8185
1659441117.087514,8256
1659441117.126136,8298
1659441117.170911,8369
1659441117.215686,8449
1659441117.26046,8496
1659441117.303013,8410
1659441117.345566,8161
1659441117.383847,7997
1659441117.422128,7931
1659441117.460408,7957
1659441117.501936,8000
1659441117.543463,8069
1659441117.582086,8155
1659441117.620708,8193
1659441117.659331,8199
1659441117.697611,8204
1659441117.735892,8238
1659441117.774173,8271
1659441117.816213,8342
1659441117.858253,8376
1659441117.897218,8430
1659441117.936182,8479
1659441117.975146,8537
1659441118.013768,8466
1659441118.052391,8227
1659441118.091013,8017
1659441118.132541,7940
1659441118.174068,7950
1659441118.213033,7995
1659441118.251997,8070
1659441118.290961,8148
1659441118.333001,8179
1659441118.375042,8195
1659441118.413664,8186
1659441118.452286,8224
1659441118.490909,8263
1659441118.532437,8322
1659441118.573964,8376
1659441118.612928,8437
1659441118.651893,8495
1659441118.690857,8550
1659441118.732384,8596
1659441118.773912,8575
1659441118.818345,8368
1659441118.862778,8139
1659441118.907211,8036
1659441118.945833,8038
1659441118.984456,8085
1659441119.023078,8170
1659441119.06358,8258
1659441119.104083,8317
1659441119.143389,8323
1659441119.182694,8337
1659441119.222001,8367
1659441119.263528,8394
1659441119.305056,8439
1659441119.34402,8482
1659441119.382984,8536
1659441119.421948,8602
1659441119.461254,8674
1659441119.500561,8730
1659441119.539866,8757
1659441119.581907,8782
1659441119.623947,8793
1659441119.662911,8801
1659441119.701875,8831
1659441119.74084,8855
1659441119.781855,8891
1659441119.82287,8934
1659441119.861834,8972
1659441119.900798,9005
1659441119.939762,9035
1659441119.977701,9079
1659441120.01564,9117
1659441120.053579,9162
1659441120.095619,9200
1659441120.137659,9252
1659441120.177854,9277
1659441120.218049,9162
1659441120.258243,8847
1659441120.298438,8573
1659441120.338633,8466
1659441120.379647,8466
1659441120.420663,8536
1659441120.460652,8623
1659441120.500642,8678
1659441120.540631,8688
1659441120.582159,8676
1659441120.623687,8671
1659441120.662309,8681
1659441120.700931,8721
1659441120.739554,8764
1659441120.784328,8824
1659441120.829103,8884
1659441120.873878,8919
1659441120.907202,8845
1659441120.940527,8574
1659441120.984276,8346
1659441121.028026,8254
1659441121.071775,8253
1659441121.111081,8305
1659441121.150387,8380
1659441121.189693,8459
1659441121.227632,8491
1659441121.265571,8493
1659441121.303509,8491
1659441121.344524,8536
1659441121.385539,8562
1659441121.424845,8605
1659441121.464151,8666
1659441121.503457,8721
1659441121.54208,8764
1659441121.580702,8658
1659441121.619325,8348
1659441121.661365,8116
1659441121.703405,8047
1659441121.744933,8047
1659441121.786461,8089
1659441121.825083,8166
1659441121.863705,8227
1659441121.902328,8254
1659441121.946077,8256
1659441121.989826,8251
1659441122.033576,8265
1659441122.067413,8314
1659441122.10125,8367
1659441122.145683,8416
1659441122.190116,8483
1659441122.234549,8527
1659441122.27283,8556
1659441122.31111,8390
1659441122.349391,8118
1659441122.390918,7968
1659441122.432446,7937
1659441122.47141,7965
1659441122.510375,8019
1659441122.549339,8100
1659441122.590866,8162
1659441122.632394,8197
1659441122.6717,8192
1659441122.711006,8197
1659441122.750312,8242
1659441122.789276,8282
1659441122.82824,8341
1659441122.867205,8392
1659441122.908732,8456
1659441122.95026,8505
1659441122.989566,8546
1659441123.028872,8394
1659441123.068178,8166
1659441123.109705,8057
1659441123.151233,8049
1659441123.189514,8090
1659441123.227794,8156
1659441123.266075,8240
1659441123.30709,8290
1659441123.348105,8310
1659441123.387411,8317
1659441123.426717,8340
1659441123.466023,8388
1659441123.507038,8443
1659441123.548053,8512
1659441123.587017,8577
1659441123.625981,8634
1659441123.664945,8686
1659441123.70972,8678
1659441123.754495,8482
1659441123.799269,8286
1659441123.833107,8214
1659441123.866944,8229
1659441123.911035,8274
1659441123.955126,8346
1659441123.999217,8425
1659441124.041258,8475
1659441124.083298,8494
1659441124.121579,8511
1659441124.159859,8551
1659441124.19814,8604
1659441124.23642,8666
1659441124.274701,8730
1659441124.312982,8792
1659441124.355022,8852
1659441124.397062,8913
1659441124.436027,8959
1659441124.474991,8885
1659441124.513955,8669
1659441124.551894,8481
1659441124.589833,8432
1659441124.627771,8452
1659441124.669299,8490
1659441124.710827,8552
1659441124.750133,8617
1659441124.789439,8680
1659441124.828745,8697
1659441124.870272,8731
1659441124.9118,8766
1659441124.950764,8819
1659441124.989728,8885
1659441125.028693,8943
1659441125.07022,9009
1659441125.111748,9064
1659441125.150028,9123
1659441125.188309,9166
1659441125.22659,9229
1659441125.26863,9216
1659441125.31067,9036
1659441125.355445,8801
1659441125.40022,8671
1659441125.444994,8652
1659441125.484369,8665
1659441125.523743,8719
1659441125.563118,8782
1659441125.602492,8846
1659441125.641866,8867
1659441125.681172,8870
1659441125.720478,8896
1659441125.759784,8943
1659441125.801312,9000
1659441125.842839,9064
1659441125.881462,9123
1659441125.920084,9192
1659441125.958707,9260
1659441126.00126,9328
1659441126.043813,9386
1659441126.082777,9412
1659441126.121741,9263
1659441126.160705,9021
1659441126.19967,8869
1659441126.238634,8845
1659441126.277598,8875
1659441126.320151,8929
1659441126.362704,8992
1659441126.400985,9027
1659441126.439265,9030
1659441126.477546,9028
1659441126.518561,9046
1659441126.559576,9076
1659441126.598198,9119
1659441126.636821,9176
1659441126.675443,9236
1659441126.714407,9304
1659441126.753371,9365
1659441126.792336,9422
1659441126.833351,9462
1659441126.874366,9367
1659441126.916406,9102
1659441126.958446,8879
1659441126.997411,8797
1659441127.036375,8795
1659441127.075339,8829
1659441127.11943,8882
1659441127.163521,8941
1659441127.207612,8960
1659441127.241449,8969
1659441127.275287,8961
1659441127.320061,8978
1659441127.364836,9029
1659441127.409611,9077
1659441127.44191,9132
1659441127.474209,9208
1659441127.5183,9248
1659441127.562392,9313
1659441127.606483,9367
1659441127.645788,9416
1659441127.685095,9443
1659441127.724401,9300
1659441127.764903,9016
1659441127.805405,8791
1659441127.844028,8730
1659441127.88265,8721
1659441127.921272,8743
1659441127.960237,8806
1659441127.999201,8870
1659441128.038165,8901
1659441128.080205,8901
1659441128.122246,8901
1659441128.16121,8929
1659441128.200174,8983
1659441128.239138,9046
1659441128.280666,9107
1659441128.322193,9179
1659441128.3615,9240
1659441128.400805,9311
1659441128.440111,9354
1659441128.481639,9403
1659441128.523167,9418
1659441128.562473,9236
1659441128.601779,8931
1659441128.641085,8743
1659441128.682612,8693
1659441128.72414,8703
1659441128.762421,8762
1659441128.800701,8815
1659441128.838982,8873
1659441128.881022,8890
1659441128.923063,8883
1659441128.962368,8891
1659441129.001675,8918
1659441129.040981,8971
1659441129.08473,9025
1659441129.128479,9096
1659441129.172228,9156
1659441129.211193,9203
1659441129.250157,9258
1659441129.289121,9305
1659441129.331161,9231
1659441129.373202,8977
1659441129.412166,8725
1659441129.45113,8625
1659441129.490094,8635
1659441129.532135,8676
1659441129.574175,8747
1659441129.613823,8818
1659441129.653471,8842
1659441129.693118,8852
1659441129.731057,8851
1659441129.768996,8874
1659441129.806935,8930
1659441129.848463,8985
1659441129.88999,9043
1659441129.928612,9100
1659441129.967235,9172
1659441130.005857,9212
1659441130.047385,9271
1659441130.088913,9191
1659441130.127535,8924
1659441130.166157,8685
1659441130.20478,8565
1659441130.24682,8552
1659441130.288861,8585
1659441130.327141,8654
1659441130.365422,8718
1659441130.403702,8782
1659441130.448135,8785
1659441130.492568,8802
1659441130.537001,8841
1659441130.579554,8879
1659441130.622107,8936
1659441130.660729,8998
1659441130.699352,9069
1659441130.737974,9119
1659441130.777554,9182
1659441130.817133,9244
1659441130.856713,9260
1659441130.896292,9114
1659441130.935871,8827
1659441130.974494,8633
1659441131.013116,8589
1659441131.051739,8597
1659441131.090361,8645
1659441131.128983,8724
1659441131.167606,8801
1659441131.208621,8840
1659441131.249636,8860
1659441131.288258,8882
1659441131.326881,8922
1659441131.365503,8980
1659441131.407543,9049
1659441131.449584,9121
1659441131.48889,9180
1659441131.528196,9247
1659441131.567502,9306
1659441131.608517,9370
1659441131.649532,9332
1659441131.688154,9083
1659441131.726776,8852
1659441131.765399,8751
1659441131.807952,8746
1659441131.850505,8791
1659441131.889469,8859
1659441131.928433,8950
1659441131.967397,8982
1659441132.008669,8987
1659441132.04994,9004
1659441132.091211,9033
1659441132.132483,9073
1659441132.171789,9139
1659441132.211095,9197
1659441132.250401,9261
1659441132.291928,9320
1659441132.333456,9341
1659441132.372078,9209
1659441132.410701,8971
1659441132.449323,8808
1659441132.491364,8782
1659441132.533404,8811
1659441132.572368,8881
1659441132.611332,8951
1659441132.650296,9021
1659441132.691824,9019
1659441132.733352,9005
1659441132.778468,9040
1659441132.823585,9068
1659441132.868701,9128
1659441132.901513,9190
1659441132.934325,9265
1659441132.978074,9314
1659441133.021824,9379
1659441133.065573,9433
1659441133.105221,9410
1659441133.144869,9214
1659441133.184516,8914
1659441133.224506,8747
1659441133.264495,8684
1659441133.303118,8701
1659441133.34174,8748
1659441133.380363,8826
1659441133.418985,8889
1659441133.457608,8926
1659441133.49623,8943
1659441133.538783,8960
1659441133.581336,8996
1659441133.619958,9035
1659441133.658581,9086
1659441133.697203,9150
1659441133.736509,9214
1659441133.775815,9270
1659441133.815121,9277
1659441133.856649,9094
1659441133.898176,8824
1659441133.936457,8685
1659441133.974738,8647
1659441134.013018,8656
1659441134.055059,8709
1659441134.097099,8771
1659441134.136063,8839
1659441134.175027,8848
1659441134.213992,8831
1659441134.254494,8837
1659441134.294996,8881
1659441134.339087,8945
1659441134.383178,9006
1659441134.427269,9086
1659441134.461619,9157
1659441134.49597,9216
1659441134.539719,9194
1659441134.583468,8975
1659441134.627217,8762
1659441134.66584,8694
1659441134.704462,8725
1659441134.743085,8811
1659441134.785638,8921
1659441134.828191,9056
1659441134.866813,9215
1659441134.905435,9355
1659441134.944058,9457
1659441134.986098,9591
1659441135.028138,9740
1659441135.067445,9837
1659441135.10675,9877
1659441135.146056,9893
1659441135.184679,9899
1659441135.223301,9734
1659441135.261924,9451
1659441135.302939,9297
1659441135.343954,9334
1659441135.38326,9515
1659441135.422566,9843
1659441135.461872,10162
1659441135.500836,10377
1659441135.5398,10530
1659441135.578764,10687
1659441135.620292,10865
1659441135.661819,11055
1659441135.700784,11277
1659441135.739748,11479
1659441135.778712,11690
1659441135.82024,11912
1659441135.861768,12112
1659441135.903295,12173
1659441135.944823,12032
1659441135.985222,11869
1659441136.025622,11800
1659441136.066022,11753
1659441136.106422,11654
1659441136.146821,11568
1659441136.185444,11528
1659441136.224066,11481
1659441136.262689,11443
1659441136.307122,11432
1659441136.351554,11468
1659441136.395987,11517
1659441136.429825,11552
1659441136.463662,11612
1659441136.507069,11673
1659441136.550477,11746
1659441136.593884,11778
1659441136.632849,11616
1659441136.671813,11360
1659441136.710777,11218
1659441136.751279,11198
1659441136.791781,11208
1659441136.830746,11247
1659441136.86971,11326
1659441136.908674,11390
1659441136.950202,11441
1659441136.991729,11540
1659441137.030694,11832
1659441137.069658,12136
1659441137.108622,12298
1659441137.147244,12411
1659441137.185867,12476
1659441137.224489,12554
1659441137.26653,12635
1659441137.30857,12707
1659441137.347534,12684
1659441137.386498,12455
1659441137.425462,12196
1659441137.466478,12004
1659441137.507493,11808
1659441137.545773,11694
1659441137.584054,11726
1659441137.622334,11836
1659441137.664887,11992
1659441137.70744,12129
1659441137.746405,12262
1659441137.785369,12413
1659441137.824333,12624
1659441137.864835,12805
1659441137.905338,12915
1659441137.950454,13012
1659441137.99557,13046
1659441138.040687,13004
1659441138.079651,12756
1659441138.118615,12333
1659441138.157579,11984
1659441138.199107,11833
1659441138.240635,11784
1659441138.279941,11809
1659441138.319247,11895
1659441138.358553,11974
1659441138.399568,12005
1659441138.440583,12003
1659441138.479205,11997
1659441138.517828,12023
1659441138.55645,12066
1659441138.595414,12116
1659441138.634378,12166
1659441138.673342,12220
1659441138.715896,12230
1659441138.758449,12061
1659441138.796729,11664
1659441138.83501,11317
1659441138.873291,11173
1659441138.912255,11203
1659441138.951219,11310
1659441138.990183,11507
1659441139.031711,11718
1659441139.073238,11836
1659441139.111519,11843
1659441139.1498,11874
1659441139.18808,12020
1659441139.230121,12194
1659441139.272161,12282
1659441139.311809,12269
1659441139.351456,12287
1659441139.391104,12355
1659441139.432119,12463
1659441139.473134,12545
1659441139.517567,12593
1659441139.562,12624
1659441139.606433,12653
1659441139.640783,12698
1659441139.675133,12737
1659441139.718882,12789
1659441139.762631,12804
1659441139.806381,12832
1659441139.84432,12849
1659441139.882258,12849
1659441139.920197,12849
1659441139.961725,12857
1659441140.003253,12865
1659441140.041533,12869
1659441140.079814,12887
1659441140.118094,12881
1659441140.159622,12894
1659441140.20115,12910
1659441140.240797,12920
1659441140.280445,12780
1659441140.320093,12360
1659441140.358374,12128
1659441140.396654,12084
1659441140.434935,12129
1659441140.473557,12186
1659441140.51218,12217
1659441140.550802,12239
1659441140.593355,12221
1659441140.635908,12203
1659441140.674531,12194
1659441140.713153,12211
1659441140.751775,12241
1659441140.79279,12310
1659441140.833805,12370
1659441140.872428,12437
1659441140.91105,12505
1659441140.949672,12481
1659441140.991713,12311
1659441141.033753,12143
1659441141.077502,12093
1659441141.121252,12156
1659441141.165001,12221
1659441141.198326,12267
1659441141.23165,12278
1659441141.271845,12264
1659441141.31204,12221
1659441141.352234,12221
1659441141.392429,12219
1659441141.432624,12249
1659441141.47774,12278
1659441141.522856,12272
1659441141.567973,12232
1659441141.606937,12098
1659441141.645901,11702
1659441141.684865,11256
1659441141.725881,10955
1659441141.766896,10800
1659441141.806201,10712
1659441141.845507,10698
1659441141.884814,10708
1659441141.923436,10685
1659441141.962058,10636
1659441142.000681,10568
1659441142.042721,10513
1659441142.084761,10475
1659441142.123384,10437
1659441142.162006,10418
1659441142.200629,10427
1659441142.242156,10395
1659441142.283684,10131
1659441142.321965,9723
1659441142.360245,9371
1659441142.398526,9175
1659441142.440566,9079
1659441142.482606,9049
1659441142.521571,9093
1659441142.560535,9163
1659441142.599499,9237
1659441142.641027,9315
1659441142.682554,9436
1659441142.721519,9574
1659441142.760483,9728
1659441142.799447,9864
1659441142.844222,9980
1659441142.888996,10058
1659441142.933771,10013
1659441142.967608,9745
1659441143.001446,9432
1659441143.045195,9246
1659441143.088944,9208
1659441143.132694,9246
1659441143.170974,9360
1659441143.209255,9503
1659441143.247535,9640
1659441143.28855,9718
1659441143.329565,9728
1659441143.367846,9749
1659441143.406126,9779
1659441143.444407,9814
1659441143.486447,9845
1659441143.528488,9869
1659441143.567794,9875
1659441143.6071,9904
1659441143.646406,9791
1659441143.684686,9448
1659441143.722967,9116
1659441143.761248,8896
1659441143.803288,8786
1659441143.845328,8732
1659441143.884976,8749
1659441143.924624,8786
1659441143.964272,8832
1659441144.005287,8830
1659441144.046302,8829
1659441144.085266,8851
1659441144.12423,8894
1659441144.163194,8958
1659441144.204209,9027
1659441144.245224,9092
1659441144.283846,9156
1659441144.322469,9215
1659441144.361091,9266
1659441144.402619,9307
1659441144.444147,9262
1659441144.483111,9028
1659441144.522075,8767
1659441144.561039,8641
1659441144.605472,8623
1659441144.649905,8666
1659441144.694338,8751
1659441144.735865,8897
1659441144.777393,9015
1659441144.817383,9104
1659441144.857372,9262
1659441144.897362,9505
1659441144.938377,9740
1659441144.979392,9972
1659441145.018014,10212
1659441145.056637,10431
1659441145.095259,10631
1659441145.134565,10816
1659441145.173871,10969
1659441145.213177,11073
1659441145.255217,11181
1659441145.297258,11226
1659441145.33588,11150
1659441145.374502,11060
1659441145.413125,11045
1659441145.454653,11107
1659441145.49618,11194
1659441145.534461,11305
1659441145.572742,11435
1659441145.611022,11536
1659441145.649644,11602
1659441145.688267,11646
1659441145.726889,11693
1659441145.769442,11756
1659441145.811995,11809
1659441145.850618,11871
1659441145.88924,11917
1659441145.927863,11958
1659441145.96939,11961
1659441146.010918,11978
1659441146.050224,11993
1659441146.08953,12022
1659441146.128836,11998
1659441146.170363,11861
1659441146.211891,11648
1659441146.255982,11482
1659441146.300073,11385
1659441146.344164,11331
1659441146.376976,11339
1659441146.409788,11383
1659441146.454221,11407
1659441146.498654,11396
1659441146.543087,11400
1659441146.582871,11414
1659441146.622656,11427
1659441146.66244,11456
1659441146.702225,11481
1659441146.742009,11512
1659441146.780632,11549
1659441146.819254,11565
1659441146.857877,11581
1659441146.898892,11594
1659441146.939907,11595
1659441146.979213,11434
1659441147.018518,11135
1659441147.057825,10870
1659441147.096789,10723
1659441147.135753,10653
1659441147.174717,10631
1659441147.216758,10640
1659441147.258798,10619
1659441147.297762,10546
1659441147.336726,10487
1659441147.37569,10446
1659441147.416705,10438
1659441147.45772,10430
1659441147.496685,10441
1659441147.535649,10445
1659441147.574613,10461
1659441147.616141,10481
1659441147.657668,10506
1659441147.696632,10499
1659441147.735597,10353
1659441147.774561,9980
1659441147.816088,9593
1659441147.857616,9339
1659441147.896239,9199
1659441147.934861,9123
1659441147.973483,9114
1659441148.018258,9132
1659441148.063033,9137
1659441148.107807,9106
1659441148.142157,9080
1659441148.176507,9093
1659441148.220598,9138
1659441148.26469,9209
1659441148.308781,9306
1659441148.342618,9452
1659441148.376455,9599
1659441148.420546,9762
1659441148.464638,9907
1659441148.508729,10019
1659441148.548035,10009
1659441148.587341,10040
1659441148.626647,10188
1659441148.667661,10359
1659441148.708676,10477
1659441148.747641,10578
1659441148.786605,10680
1659441148.825569,10698
1659441148.866071,10758
1659441148.906574,10830
1659441148.94588,10916
1659441148.985186,11020
1659441149.024492,11139
1659441149.063114,11273
1659441149.101737,11406
1659441149.140359,11511
1659441149.181374,11617
1659441149.222389,11712
1659441149.261353,11756
1659441149.300317,11629
1659441149.339281,11412
1659441149.381835,11297
1659441149.424387,11237
1659441149.462668,11184
1659441149.500949,11190
1659441149.539229,11246
1659441149.583662,11297
1659441149.628095,11343
1659441149.672528,11390
1659441149.70534,11488
1659441149.738152,11600
1659441149.782243,11709
1659441149.826334,11843
1659441149.870425,11959
1659441149.909047,12082
1659441149.94767,12188
1659441149.986292,12284
1659441150.028333,12252
1659441150.070373,12133
1659441150.108312,12111
1659441150.14625,12167
1659441150.184189,12252
1659441150.225717,12333
1659441150.267245,12424
1659441150.306551,12480
1659441150.345857,12496
1659441150.385163,12497
1659441150.423785,12525
1659441150.462408,12558
1659441150.50103,12592
1659441150.543583,12617
1659441150.586136,12632
1659441150.625442,12658
1659441150.664748,12632
1659441150.704054,12464
1659441150.744556,12297
1659441150.785058,12246
1659441150.823681,12281
1659441150.862303,12322
1659441150.900926,12398
1659441150.943479,12457
1659441150.986032,12503
1659441151.024654,12514
1659441151.063277,12532
1659441151.101899,12578
1659441151.146332,12663
1659441151.190765,12759
1659441151.235198,12837
1659441151.268522,12886
1659441151.301847,12928
1659441151.34628,12898
1659441151.390713,12713
1659441151.435146,12558
1659441151.477186,12483
1659441151.519226,12450
1659441151.55819,12448
1659441151.597155,12478
1659441151.636119,12536
1659441151.674741,12574
1659441151.713364,12606
1659441151.751986,12613
1659441151.790779,12646
1659441151.829573,12684
1659441151.868366,12724
1659441151.907159,12780
1659441151.945953,12821
1659441151.984746,12863
1659441152.026786,12838
1659441152.068827,12631
1659441152.112576,12361
1659441152.156325,12167
1659441152.200074,12064
1659441152.232886,12018
1659441152.265698,12025
1659441152.309789,12065
1659441152.35388,12093
1659441152.397972,12105
1659441152.436936,12123
1659441152.4759,12143
1659441152.514864,12180
1659441152.556905,12231
1659441152.598945,12275
1659441152.637909,12339
1659441152.676873,12379
1659441152.715837,12410
1659441152.756852,12317
1659441152.797867,12105
1659441152.836832,11925
1659441152.875796,11827
1659441152.91476,11762
1659441152.953724,11731
1659441152.992688,11750
1659441153.031653,11780
1659441153.07318,11795
1659441153.114708,11795
1659441153.15333,11795
1659441153.191953,11807
1659441153.230575,11839
1659441153.269539,11888
1659441153.308504,11939
1659441153.347468,12011
1659441153.38797,12059
1659441153.428472,12106
1659441153.473247,12125
1659441153.518022,11993
1659441153.562796,11780
1659441153.597146,11616
1659441153.631496,11535
1659441153.675587,11484
1659441153.719678,11502
1659441153.76377,11544
1659441153.802734,11573
1659441153.841698,11589
1659441153.880662,11585
1659441153.923215,11596
1659441153.965768,11617
1659441154.004732,11646
1659441154.043697,11692
1659441154.082661,11743
1659441154.123676,11782
1659441154.164691,11823
1659441154.203655,11871
1659441154.242619,11915
1659441154.281583,11915
1659441154.319864,11734
1659441154.358145,11485
1659441154.396425,11337
1659441154.438466,11277
1659441154.480506,11256
1659441154.519812,11261
1659441154.559118,11286
1659441154.598424,11291
1659441154.639951,11292
1659441154.681479,11278
1659441154.720443,11287
1659441154.759408,11330
1659441154.798372,11373
1659441154.837336,11424
1659441154.8763,11483
1659441154.915264,11552
1659441154.956792,11571
1659441154.99832,11459
1659441155.039335,11236
1659441155.08035,11093
1659441155.119656,11044
1659441155.158962,11029
1659441155.198267,11056
1659441155.242359,11119
1659441155.28645,11149
1659441155.330541,11167
1659441155.363865,11184
1659441155.39719,11222
1659441155.441623,11263
1659441155.486056,11332
1659441155.530489,11393
1659441155.568769,11462
1659441155.60705,11522
1659441155.645331,11575
1659441155.685833,11602
1659441155.726335,11452
1659441155.765641,11215
1659441155.804947,11068
1659441155.844253,11000
1659441155.885781,10956
1659441155.927308,10954
1659441155.965931,10984
1659441156.004553,11028
1659441156.043176,11054
1659441156.082482,11060
1659441156.121788,11072
1659441156.161094,11105
1659441156.202621,11163
1659441156.244149,11214
1659441156.282429,11294
1659441156.32071,11352
1659441156.358991,11384
1659441156.401031,11259
1659441156.443071,11027
1659441156.481694,10876
1659441156.520316,10807
1659441156.558939,10781
1659441156.599954,10802
1659441156.640969,10862
1659441156.679249,10908
1659441156.71753,10936
1659441156.75581,10968
1659441156.798363,10999
1659441156.840916,11057
1659441156.880223,11109
1659441156.919528,11175
1659441156.958834,11246
1659441157.000533,11310
1659441157.042232,11269
1659441157.08393,11048
1659441157.125629,10816
1659441157.167327,10679
1659441157.209026,10622
1659441157.251066,10571
1659441157.293106,10589
1659441157.332412,10642
1659441157.371718,10675
1659441157.411024,10691
1659441157.45033,10711
1659441157.489636,10743
1659441157.528942,10795
1659441157.568932,10868
1659441157.608922,10898
1659441157.647544,10929
1659441157.686166,10975
1659441157.724789,10956
1659441157.764095,10738
1659441157.803401,10329
1659441157.842707,10018
1659441157.884234,9828
1659441157.925762,9728
1659441157.966777,9680
1659441158.007792,9693
1659441158.047098,9732
1659441158.086404,9731
1659441158.12571,9746
1659441158.169459,9773
1659441158.213208,9801
1659441158.256958,9872
1659441158.290282,9977
1659441158.323607,10090
1659441158.36804,10232
1659441158.412473,10387
1659441158.456906,10517
1659441158.49587,10551
1659441158.534834,10433
1659441158.573798,10408
1659441158.6143,10522
1659441158.654803,10658
1659441158.693767,10824
1659441158.732731,11009
1659441158.771695,11168
1659441158.813736,11258
1659441158.855776,11333
1659441158.893715,11395
1659441158.931654,11436
1659441158.969593,11497
1659441159.008557,11535
1659441159.047521,11577
1659441159.086485,11613
1659441159.128013,11656
1659441159.16954,11699
1659441159.207821,11666
1659441159.246102,11482
1659441159.284382,11323
1659441159.326935,11252
1659441159.369488,11197
1659441159.408453,11203
1659441159.447417,11244
1659441159.486381,11276
1659441159.527396,11287
1659441159.568411,11319
1659441159.607033,11370
1659441159.645656,11452
1659441159.684278,11584
1659441159.729053,11714
1659441159.773828,11861
1659441159.818602,12004
1659441159.851414,12126
1659441159.884226,12165
1659441159.929001,12176
1659441159.973775,12265
1659441160.01855,12403
1659441160.050849,12559
1659441160.083149,12703
1659441160.127582,12848
1659441160.172014,12944
1659441160.216447,13023
1659441160.256095,13107
1659441160.295743,13208
1659441160.335391,13290
1659441160.377431,13389
1659441160.419471,13472
1659441160.458094,13507
1659441160.496716,13570
1659441160.535338,13577
1659441160.577379,13463
1659441160.619419,13396
1659441160.659067,13404
1659441160.698715,13464
1659441160.738363,13532
1659441160.776643,13616
1659441160.814924,13707
1659441160.853204,13762
1659441160.893707,13780
1659441160.934209,13821
1659441160.973173,13887
1659441161.012137,13966
1659441161.051101,14032
1659441161.093142,14105
1659441161.135182,14159
1659441161.173805,14191
1659441161.212427,14104
1659441161.25105,14002
1659441161.292577,13984
1659441161.334105,14039
1659441161.373411,14100
1659441161.412717,14163
1659441161.452023,14238
1659441161.493038,14250
1659441161.534053,14246
1659441161.578827,14261
1659441161.623602,14294
1659441161.668377,14324
1659441161.706657,14344
1659441161.744938,14362
1659441161.783218,14377
1659441161.824234,14398
1659441161.865248,14297
1659441161.903871,14104
1659441161.942493,13974
1659441161.981116,13923
1659441162.019738,13922
1659441162.05836,13938
1659441162.096983,13984
1659441162.13851,14029
1659441162.180038,14036
1659441162.218661,14050
1659441162.257283,14089
1659441162.295905,14169
1659441162.337433,14263
1659441162.378961,14367
1659441162.420488,14464
1659441162.462016,14557
1659441162.500638,14608
1659441162.539261,14425
1659441162.577883,14244
1659441162.619924,14207
1659441162.661964,14216
1659441162.70127,14243
1659441162.740576,14315
1659441162.779882,14377
1659441162.818504,14408
1659441162.857127,14408
1659441162.895749,14407
1659441162.938302,14416
1659441162.980855,14452
1659441163.019819,14476
1659441163.058784,14512
1659441163.097748,14536
1659441163.13825,14562
1659441163.178752,14586
1659441163.217716,14505
1659441163.256681,14281
1659441163.295645,14108
1659441163.337685,14051
1659441163.379725,14056
1659441163.417664,14059
1659441163.455603,14110
1659441163.493542,14130
1659441163.535582,14134
1659441163.577623,14118
1659441163.616929,14116
1659441163.656235,14140
1659441163.695541,14161
1659441163.739974,14191
1659441163.784406,14219
1659441163.828839,14249
1659441163.87088,14266
1659441163.91292,14276
1659441163.952568,14146
1659441163.992216,13899
1659441164.031863,13719
1659441164.072366,13631
1659441164.112868,13601
1659441164.151149,13608
1659441164.189429,13634
1659441164.22771,13681
1659441164.267016,13676
1659441164.306322,13670
1659441164.345628,13679
1659441164.387155,13736
1659441164.428683,13784
1659441164.467305,13835
1659441164.505928,13893
1659441164.54455,13937
1659441164.583514,13956
1659441164.622479,13874
1659441164.661443,13618
1659441164.702458,13370
1659441164.743473,13275
1659441164.782437,13250
1659441164.821401,13282
1659441164.860365,13341
1659441164.901893,13392
1659441164.943421,13416
1659441164.982043,13413
1659441165.020665,13437
1659441165.059288,13467
1659441165.100816,13514
1659441165.142343,13561
1659441165.181991,13620
1659441165.221639,13676
1659441165.261286,13691
1659441165.301789,13575
1659441165.342291,13331
1659441165.38604,13177
1659441165.42979,13154
1659441165.473539,13163
1659441165.512503,13221
1659441165.551467,13277
1659441165.590432,13310
1659441165.631447,13318
1659441165.672462,13337
1659441165.711426,13359
1659441165.75039,13402
1659441165.789354,13437
1659441165.830882,13443
1659441165.872409,13410
1659441165.911374,13420
1659441165.950338,13498
1659441165.989302,13578
1659441166.027925,13635
1659441166.066547,13656
1659441166.105169,13677
1659441166.147722,13708
1659441166.190275,13738
1659441166.229239,13773
1659441166.268204,13808
1659441166.307168,13850
1659441166.348183,13897
1659441166.389198,13941
1659441166.428162,13981
1659441166.467126,14018
1659441166.50609,14062
1659441166.545055,14093
1659441166.584019,13978
1659441166.622983,13690
1659441166.664511,13471
1659441166.706038,13404
1659441166.747053,13414
1659441166.788068,13472
1659441166.827374,13525
1659441166.86668,13587
1659441166.905986,13583
1659441166.950419,13577
1659441166.994852,13579
1659441167.039285,13609
1659441167.073122,13657
1659441167.10696,13705
1659441167.151734,13751
1659441167.196509,13777
1659441167.241283,13688
1659441167.274608,13471
1659441167.307933,13331
1659441167.351682,13284
1659441167.395431,13315
1659441167.439181,13385
1659441167.477461,13458
1659441167.515742,13496
1659441167.554023,13491
1659441167.594012,13506
1659441167.634002,13532
1659441167.673991,13570
1659441167.713981,13629
1659441167.75397,13682
1659441167.794985,13702
1659441167.836,13518
1659441167.875306,13261
1659441167.914612,13102
1659441167.953918,13065
1659441167.995446,13075
1659441168.036974,13126
1659441168.076963,13186
1659441168.116953,13219
1659441168.156942,13230
1659441168.196932,13231
1659441168.236922,13257
1659441168.275202,13302
1659441168.313483,13359
1659441168.351763,13418
1659441168.393291,13391
1659441168.434819,13181
1659441168.474125,12915
1659441168.513431,12788
1659441168.552737,12739
1659441168.590676,12743
1659441168.628614,12785
1659441168.666553,12849
1659441168.708081,12888
1659441168.749609,12899
1659441168.788231,12910
1659441168.826853,12946
1659441168.865476,12978
1659441168.907516,13039
1659441168.949556,13104
1659441168.993647,13098
1659441169.037739,12907
1659441169.08183,12619
1659441169.115667,12468
1659441169.149504,12415
1659441169.193595,12408
1659441169.237686,12443
1659441169.281777,12510
1659441169.315615,12563
1659441169.349452,12579
1659441169.394569,12602
1659441169.439685,12641
1659441169.484802,12696
1659441169.523424,12757
1659441169.562046,12823
1659441169.600669,12861
1659441169.641171,12888
1659441169.681673,12758
1659441169.720979,12455
1659441169.760285,12237
1659441169.799591,12149
1659441169.841632,12130
1659441169.883672,12142
1659441169.922294,12212
1659441169.960917,12274
1659441169.999539,12305
1659441170.038162,12325
1659441170.076784,12362
1659441170.115407,12422
1659441170.157447,12478
1659441170.199487,12538
1659441170.238451,12598
1659441170.277416,12674
1659441170.31638,12716
1659441170.35842,12612
1659441170.40046,12361
1659441170.439425,12140
1659441170.478389,12057
1659441170.517353,12029
1659441170.558881,12056
1659441170.600408,12133
1659441170.639714,12191
1659441170.67902,12213
1659441170.718326,12220
1659441170.759854,12255
1659441170.801382,12315
1659441170.839662,12381
1659441170.877943,12437
1659441170.916223,12495
1659441170.960656,12566
1659441171.005089,12619
1659441171.049522,12671
1659441171.082847,12616
1659441171.116171,12398
1659441171.160262,12172
1659441171.204353,12080
1659441171.248445,12075
1659441171.287067,12098
1659441171.325689,12171
1659441171.364312,12228
1659441171.406352,12255
1659441171.448392,12262
1659441171.486673,12286
1659441171.524954,12333
1659441171.563234,12389
1659441171.605275,12454
1659441171.647315,12507
1659441171.685937,12567
1659441171.72456,12622
1659441171.763182,12666
1659441171.802488,12697
1659441171.841794,12585
1659441171.8811,12351
1659441171.921602,12148
1659441171.962105,12079
1659441172.001411,12062
1659441172.040717,12099
1659441172.080023,12157
1659441172.122063,12209
1659441172.164103,12206
1659441172.202042,12205
1659441172.239981,12237
1659441172.27792,12277
1659441172.322353,12330
1659441172.366786,12380
1659441172.411218,12429
1659441172.445056,12473
1659441172.478893,12506
1659441172.522984,12412
1659441172.567075,12211
1659441172.611166,12110
1659441172.645516,12120
1659441172.679866,12157
1659441172.724641,12215
1659441172.769416,12277
1659441172.81419,12317
1659441172.85136,12349
1659441172.88853,12373
1659441172.9257,12418
1659441172.96287,12481
1659441173.007986,12541
1659441173.053102,12631
1659441173.098219,12714
1659441173.1365,12772
1659441173.17478,12742
1659441173.213061,12550
1659441173.254076,12342
1659441173.295091,12267
1659441173.334055,12262
1659441173.373019,12294
1659441173.411983,12360
1659441173.450264,12427
1659441173.488545,12473
1659441173.526825,12508
1659441173.568866,12536
1659441173.610906,12589
1659441173.650554,12640
1659441173.690202,12710
1659441173.729849,12766
1659441173.770864,12841
1659441173.811879,12896
1659441173.850843,12876
1659441173.889807,12692
1659441173.928772,12449
1659441173.968078,12326
1659441174.007384,12289
1659441174.04669,12285
1659441174.087192,12307
1659441174.127694,12385
1659441174.168197,12445
1659441174.208699,12468
1659441174.247663,12500
1659441174.286627,12526
1659441174.325592,12589
1659441174.369683,12653
1659441174.413774,12711
1659441174.457865,12771
1659441174.491189,12826
1659441174.524514,12881
1659441174.569289,12913
1659441174.614063,12819
1659441174.658838,12551
1659441174.69165,12324
1659441174.724462,12258
1659441174.768211,12235
1659441174.81196,12262
1659441174.85571,12333
1659441174.895358,12402
1659441174.935005,12432
1659441174.974653,12448
1659441175.015668,12475
1659441175.056683,12533
1659441175.095305,12587
1659441175.133928,12644
1659441175.17255,12716
1659441175.211514,12770
1659441175.250479,12820
1659441175.289443,12745
1659441175.331483,12501
1659441175.373523,12292
1659441175.411804,12228
1659441175.450085,12248
1659441175.488365,12288
1659441175.529893,12371
1659441175.571421,12437
1659441175.610043,12460
1659441175.648665,12485
1659441175.687288,12512
1659441175.729328,12564
1659441175.771369,12627
1659441175.810333,12689
1659441175.849297,12748
1659441175.888261,12803
1659441175.930301,12862
1659441175.972342,12911
1659441176.011306,12968
1659441176.05027,12917
1659441176.089235,12682
1659441176.134009,12414
1659441176.178784,12288
1659441176.223558,12253
1659441176.257396,12251
1659441176.291233,12296
1659441176.335324,12371
1659441176.379415,12421
1659441176.423506,12434
1659441176.464521,12448
1659441176.505536,12492
1659441176.544501,12552
1659441176.583465,12614
1659441176.622429,12686
1659441176.66071,12753
1659441176.69899,12812
1659441176.737271,12862
1659441176.779311,12839
1659441176.821352,12636
1659441176.860657,12361
1659441176.899963,12235
1659441176.939269,12212
1659441176.980797,12223
1659441177.022325,12267
1659441177.060947,12346
1659441177.09957,12400
1659441177.138192,12431
1659441177.177498,12450
1659441177.216804,12502
1659441177.25611,12571
1659441177.29815,12661
1659441177.340191,12727
1659441177.378129,12807
1659441177.416068,12884
1659441177.454007,12907
1659441177.495022,12778
1659441177.536037,12513
1659441177.575001,12310
1659441177.613966,12212
1659441177.65293,12216
1659441177.694457,12240
1659441177.735985,12386
1659441177.780076,12590
1659441177.824167,12755
1659441177.868258,12874
1659441177.902096,12958
1659441177.935933,13038
1659441177.980024,13100
1659441178.024115,13146
1659441178.068206,13176
1659441178.108401,13205
1659441178.148595,13240
1659441178.18879,13201
1659441178.228985,12989
1659441178.269179,12777
1659441178.307802,12701
1659441178.346424,12723
1659441178.385046,12777
1659441178.426574,12859
1659441178.468102,12956
1659441178.507408,13043
1659441178.546714,13060
1659441178.58602,13092
1659441178.627548,13136
1659441178.669075,13198
1659441178.707356,13266
1659441178.745636,13331
1659441178.783917,13387
1659441178.823223,13439
1659441178.862529,13497
1659441178.901835,13442
1659441178.94285,13244
1659441178.983865,13061
1659441179.023171,13023
1659441179.062477,13082
1659441179.101783,13154
1659441179.143311,13254
1659441179.184838,13333
1659441179.223802,13376
1659441179.262767,13388
1659441179.301731,13418
1659441179.343258,13473
1659441179.384786,13535
1659441179.424434,13600
1659441179.464082,13670
1659441179.503729,13738
1659441179.54577,13777
1659441179.58781,13633
1659441179.626091,13441
1659441179.664371,13381
1659441179.702652,13419
1659441179.747427,13500
1659441179.792201,13606
1659441179.836976,13707
1659441179.870301,13752
1659441179.903625,13740
1659441179.947375,13743
1659441179.991124,13786
1659441180.034873,13832
1659441180.076401,13879
1659441180.117928,13906
1659441180.156893,13926
1659441180.195857,13849
1659441180.234821,13642
1659441180.273443,13505
1659441180.312066,13498
1659441180.350688,13543
1659441180.392729,13602
1659441180.434769,13700
1659441180.473733,13766
1659441180.512697,13790
1659441180.551661,13797
1659441180.592676,13846
1659441180.633691,13885
1659441180.672314,13939
1659441180.710936,14007
1659441180.749559,14041
1659441180.787839,13937
1659441180.82612,13651
1659441180.864401,13466
1659441180.906441,13413
1659441180.948481,13441
1659441180.987104,13506
1659441181.025726,13609
1659441181.064348,13715
1659441181.105363,13776
1659441181.146378,13811
1659441181.185684,13831
1659441181.22499,13869
1659441181.264296,13915
1659441181.305824,13975
1659441181.347352,14039
1659441181.386316,14054
1659441181.42528,13896
1659441181.464244,13739
1659441181.508335,13730
1659441181.552426,13754
1659441181.596518,13798
1659441181.637532,13887
1659441181.678547,13983
1659441181.717853,14040
1659441181.757159,14062
1659441181.796465,14063
1659441181.838506,14015
1659441181.880546,14007
1659441181.919168,14009
1659441181.957791,14058
1659441181.996413,14108
1659441182.035378,14017
1659441182.074342,13850
1659441182.113306,13761
1659441182.154834,13771
1659441182.196361,13811
1659441182.234984,13881
1659441182.273606,13968
1659441182.312228,14026
1659441182.354269,14049
1659441182.396309,14044
1659441182.435615,14060
1659441182.474921,14107
1659441182.514227,14156
1659441182.552508,14219
1659441182.590788,14206
1659441182.629069,14028
1659441182.671109,13841
1659441182.71315,13750
1659441182.752797,13748
1659441182.792445,13788
1659441182.832093,13857
1659441182.873108,13917
1659441182.914123,13955
1659441182.958214,13967
1659441183.002305,13970
1659441183.046396,14001
1659441183.08536,14032
1659441183.124325,14072
1659441183.163289,14122
1659441183.203791,14066
1659441183.244293,13855
1659441183.283257,13667
1659441183.322222,13576
1659441183.361186,13557
1659441183.398356,13599
1659441183.435525,13668
1659441183.472695,13747
1659441183.509865,13789
1659441183.553956,13788
1659441183.598047,13827
1659441183.642138,13867
1659441183.682128,13918
1659441183.722117,13963
1659441183.762107,14026
1659441183.800388,14026
1659441183.838668,13894
1659441183.876949,13713
1659441183.918477,13627
1659441183.960004,13631
1659441183.998627,13658
1659441184.037249,13726
1659441184.075871,13809
1659441184.114152,13843
1659441184.152433,13840
1659441184.190713,13847
1659441184.232754,13875
1659441184.274794,13912
1659441184.316322,13972
1659441184.357849,14026
1659441184.39613,14086
1659441184.434411,14098
1659441184.472691,13960
1659441184.516782,13809
1659441184.560873,13784
1659441184.604964,13808
1659441184.639314,13859
1659441184.673664,13950
1659441184.718439,14014
1659441184.763214,14051
1659441184.807988,14043
1659441184.8408,14054
1659441184.873612,14069
1659441184.918387,14118
1659441184.963162,14154
1659441185.007936,14196
1659441185.046901,14244
1659441185.085865,14276
1659441185.124829,14276
1659441185.166869,14106
1659441185.20891,13934
1659441185.247874,13855
1659441185.286838,13848
1659441185.325802,13873
1659441185.36733,13930
1659441185.408857,14005
1659441185.447138,14037
1659441185.485419,14060
1659441185.523699,14069
1659441185.562664,14102
1659441185.601628,14144
1659441185.640592,14183
1659441185.682632,14238
1659441185.724673,14272
1659441185.763295,14305
1659441185.801917,14280
1659441185.84054,14096
1659441185.882067,13915
1659441185.923595,13850
1659441185.962901,13853
1659441186.002207,13883
1659441186.041513,13950
1659441186.083554,14025
1659441186.125594,14053
1659441186.164558,14058
1659441186.203522,14075
1659441186.242486,14103
1659441186.283501,14146
1659441186.324516,14200
1659441186.363481,14240
1659441186.402445,14295
1659441186.441409,14319
1659441186.485158,14334
1659441186.528908,14214
1659441186.572657,13999
1659441186.614697,13866
1659441186.656737,13845
1659441186.695018,13878
1659441186.733299,13930
1659441186.771579,14024
1659441186.813107,14069
1659441186.854635,14079
1659441186.893257,14089
1659441186.93188,14106
1659441186.970502,14140
1659441187.01015,14179
1659441187.049797,14221
1659441187.089445,14252
1659441187.13046,14288
1659441187.171475,14319
1659441187.210439,14330
1659441187.249403,14166
1659441187.288368,13934
1659441187.32699,13785
1659441187.365613,13745
1659441187.404235,13758
1659441187.445763,13809
1659441187.48729,13879
1659441187.526254,13913
1659441187.565219,13913
1659441187.604183,13913
1659441187.64571,13927
1659441187.687238,13961
1659441187.725177,13989
1659441187.763116,14023
1659441187.801055,14060
1659441187.84412,14093
1659441187.887186,14082
1659441187.92615,13908
1659441187.965114,13728
1659441188.004079,13651
1659441188.045606,13680
1659441188.087134,13721
1659441188.131909,13806
1659441188.176683,13899
1659441188.221458,13948
1659441188.255808,13978
1659441188.290158,14000
1659441188.334249,14040
1659441188.37834,14102
1659441188.422431,14176
1659441188.461054,14231
1659441188.499676,14294
1659441188.538298,14350
1659441188.580339,14238
1659441188.622379,14008
1659441188.661958,13873
1659441188.701538,13856
1659441188.741117,13877
1659441188.780697,13927
1659441188.820276,13997
1659441188.859582,14047
1659441188.898888,14076
1659441188.938194,14102
1659441188.979209,14144
1659441189.020224,14188
1659441189.059188,14216
1659441189.098153,14244
1659441189.137117,14299
1659441189.176081,14313
1659441189.215045,14194
1659441189.254009,14009
1659441189.29605,13927
1659441189.33809,13946
1659441189.376713,13985
1659441189.415335,14080
1659441189.453957,14166
1659441189.495998,14215
1659441189.538038,14254
1659441189.576319,14307
1659441189.614599,14398
1659441189.65288,14506
1659441189.69492,14620
1659441189.73696,14698
1659441189.775241,14776
1659441189.813522,14780
1659441189.851802,14524
1659441189.895893,14356
1659441189.939985,14326
1659441189.984076,14372
1659441190.016375,14441
1659441190.048674,14529
1659441190.093449,14539
1659441190.138223,14474
1659441190.182998,14375
1659441190.225039,14345
1659441190.267079,14416
1659441190.305701,14547
1659441190.344324,14686
1659441190.382946,14782
1659441190.421568,14821
1659441190.460191,14699
1659441190.498813,14359
1659441190.540854,14112
1659441190.582894,14002
1659441190.621175,13972
1659441190.659455,13968
1659441190.697736,13986
1659441190.739776,13939
1659441190.781816,13839
1659441190.820097,13722
1659441190.858378,13634
1659441190.896658,13565
1659441190.935622,13527
1659441190.974587,13534
1659441191.013551,13539
1659441191.054053,13497
1659441191.094555,13217
1659441191.134545,12812
1659441191.174535,12490
1659441191.214524,12292
1659441191.256052,12166
1659441191.29758,12112
1659441191.336202,12118
1659441191.374824,12111
1659441191.413447,12079
1659441191.455487,12040
1659441191.497527,12033
1659441191.537175,12036
1659441191.576823,12058
1659441191.616471,11990
1659441191.660562,11825
1659441191.704653,11724
1659441191.748744,11720
1659441191.790272,11815
1659441191.831799,11883
1659441191.870422,11917
1659441191.909044,11912
1659441191.947666,11908
1659441191.986289,11916
1659441192.024911,11955
1659441192.063534,11995
1659441192.105574,12030
1659441192.147614,12081
1659441192.186579,12109
1659441192.225543,12140
1659441192.264507,12179
1659441192.302446,12200
1659441192.340385,12072
1659441192.378324,11750
1659441192.420877,11468
1659441192.463429,11322
1659441192.50171,11299
1659441192.539991,11321
1659441192.578271,11395
1659441192.619799,11437
1659441192.661327,11450
1659441192.700633,11450
1659441192.739939,11483
1659441192.779245,11527
1659441192.821285,11575
1659441192.863325,11630
1659441192.901264,11681
1659441192.939203,11728
1659441192.977142,11579
1659441193.019695,11329
1659441193.062248,11156
1659441193.106339,11071
1659441193.15043,11054
1659441193.194521,11107
1659441193.23246,11183
1659441193.270399,11231
1659441193.308338,11247
1659441193.34884,11260
1659441193.389342,11283
1659441193.42899,11326
1659441193.468638,11385
1659441193.508286,11441
1659441193.546566,11467
1659441193.584847,11336
1659441193.623127,11107
1659441193.66568,10964
1659441193.708233,10885
1659441193.747198,10896
1659441193.786162,10955
1659441193.825126,11031
1659441193.864911,11060
1659441193.904695,11071
1659441193.944479,11083
1659441193.984264,11093
1659441194.024049,11135
1659441194.063354,11168
1659441194.102661,11198
1659441194.141967,11176
1659441194.185716,10953
1659441194.229465,10566
1659441194.273214,10209
1659441194.312521,9946
1659441194.351826,9782
1659441194.391132,9682
1659441194.432147,9619
1659441194.473162,9553
1659441194.511785,9441
1659441194.550407,9335
1659441194.58903,9269
1659441194.631582,9238
1659441194.674136,9220
1659441194.713442,9240
1659441194.752748,9200
1659441194.792053,8955
1659441194.830676,8648
1659441194.869298,8469
1659441194.907921,8382
1659441194.949448,8384
1659441194.990976,8417
1659441195.030282,8471
1659441195.069588,8477
1659441195.108894,8468
1659441195.150934,8473
1659441195.192975,8518
1659441195.231597,8567
1659441195.27022,8629
1659441195.308842,8638
1659441195.35037,8456
1659441195.391897,8222
1659441195.43052,8095
1659441195.469142,8093
1659441195.507765,8176
1659441195.549805,8291
1659441195.591845,8354
1659441195.630468,8369
1659441195.66909,8372
1659441195.707712,8396
1659441195.752145,8447
1659441195.796578,8509
1659441195.841011,8584
1659441195.879975,8669
1659441195.918939,8626
1659441195.957904,8367
1659441195.999944,8109
1659441196.041984,7989
1659441196.080607,7957
1659441196.119229,7985
1659441196.157851,8066
1659441196.199379,8154
1659441196.240907,8221
1659441196.279529,8237
1659441196.318152,8254
1659441196.356774,8286
1659441196.395396,8338
1659441196.434019,8408
1659441196.472641,8458
1659441196.51058,8369
1659441196.548519,8116
1659441196.586458,7951
1659441196.628498,7881
1659441196.670538,7880
1659441196.712066,7914
1659441196.753594,8001
1659441196.792216,8075
1659441196.830839,8108
1659441196.869461,8110
1659441196.910989,8114
1659441196.952516,8141
1659441196.992506,8194
1659441197.032495,8260
1659441197.072485,8331
1659441197.116576,8359
1659441197.160667,8209
1659441197.204758,7981
1659441197.23757,7883
1659441197.270382,7878
1659441197.315157,7923
1659441197.359931,8012
1659441197.404706,8123
1659441197.445721,8206
1659441197.486736,8252
1659441197.5257,8310
1659441197.564664,8349
1659441197.603629,8420
1659441197.642935,8511
1659441197.682241,8593
1659441197.721547,8671
1659441197.762049,8702
1659441197.802551,8541
1659441197.841174,8331
1659441197.879796,8224
1659441197.918418,8202
1659441197.961484,8245
1659441198.00455,8323
1659441198.043514,8418
1659441198.082478,8463
1659441198.121443,8490
1659441198.160407,8511
1659441198.199371,8570
1659441198.238335,8630
1659441198.279863,8697
1659441198.32139,8785
1659441198.360013,8863
1659441198.398635,8926
1659441198.437258,8853
1659441198.479298,8626
1659441198.521338,8460
1659441198.560302,8413
1659441198.599267,8422
1659441198.638231,8480
1659441198.679246,8575
1659441198.720261,8630
1659441198.758541,8657
1659441198.796822,8653
1659441198.835103,8661
1659441198.877656,8694
1659441198.920209,8731
1659441198.9643,8765
1659441199.008391,8792
1659441199.052482,8846
1659441199.091275,8855
1659441199.130069,8711
1659441199.168862,8469
1659441199.207655,8319
1659441199.246449,8282
1659441199.285242,8317
1659441199.323864,8399
1659441199.362487,8489
1659441199.401109,8561
1659441199.442637,8587
1659441199.484164,8633
1659441199.52347,8694
1659441199.562776,8772
1659441199.602082,8883
1659441199.643097,8965
1659441199.684112,9023
1659441199.722051,8971
1659441199.75999,8736
1659441199.797929,8508
1659441199.838944,8383
1659441199.879959,8375
1659441199.918923,8405
1659441199.957887,8497
1659441199.996851,8588
1659441200.037866,8640
1659441200.078881,8666
1659441200.117845,8688
1659441200.15681,8737
1659441200.195774,8795
1659441200.240548,8857
1659441200.285323,8908
1659441200.330098,8904
1659441200.371113,8690
1659441200.412128,8465
1659441200.451776,8362
1659441200.491423,8337
1659441200.531071,8348
1659441200.573111,8421
1659441200.615152,8517
1659441200.653432,8580
1659441200.691713,8617
1659441200.729994,8656
1659441200.768616,8722
1659441200.807238,8769
1659441200.845861,8840
1659441200.888414,8918
1659441200.930967,8985
1659441200.969589,8906
1659441201.008212,8662
1659441201.046834,8495
1659441201.085457,8437
1659441201.124079,8449
1659441201.162701,8513
1659441201.204742,8626
1659441201.246782,8725
1659441201.285746,8769
1659441201.32471,8759
1659441201.363675,8779
1659441201.405715,8815
1659441201.447755,8863
1659441201.487061,8934
1659441201.526367,8993
1659441201.565673,9006
1659441201.607201,8829
1659441201.648729,8593
1659441201.686667,8492
1659441201.724606,8485
1659441201.762545,8544
1659441201.80732,8646
1659441201.852094,8729
1659441201.896869,8779
1659441201.938909,8808
1659441201.98095,8836
1659441202.01923,8871
1659441202.057511,8936
1659441202.095792,9020
1659441202.136806,9107
1659441202.177821,9197
1659441202.216786,9215
1659441202.25575,9033
1659441202.294714,8817
1659441202.332995,8719
1659441202.371275,8700
1659441202.409556,8741
1659441202.451596,8826
1659441202.493637,8906
1659441202.532943,8932
1659441202.572249,8901
1659441202.611555,8835
1659441202.649835,8803
1659441202.688116,8821
1659441202.726397,8831
1659441202.768437,8863
1659441202.810477,8919
1659441202.849783,8828
1659441202.889089,8632
1659441202.928395,8506
1659441202.968897,8492
1659441203.0094,8535
1659441203.048022,8634
1659441203.086644,8751
1659441203.125267,8855
1659441203.166282,8885
1659441203.207297,8911
1659441203.251388,8949
1659441203.295479,8990
1659441203.33957,9053
1659441203.373407,9111
1659441203.407245,9182
1659441203.452361,9155
1659441203.497478,8968
1659441203.542594,8803
1659441203.580875,8752
1659441203.619155,8753
1659441203.657436,8782
1659441203.698964,8875
1659441203.740491,8959
1659441203.780481,9012
1659441203.82047,9042
1659441203.86046,9097
1659441203.901988,9162
1659441203.943515,9233
1659441203.982138,9327
1659441204.02076,9413
1659441204.059382,9497
1659441204.098005,9430
1659441204.136627,9201
1659441204.17525,9006
1659441204.21729,8888
1659441204.25933,8838
1659441204.297953,8826
1659441204.336575,8862
1659441204.375198,8914
1659441204.416982,8965
1659441204.458766,8984
1659441204.50055,9009
1659441204.542334,9052
1659441204.581298,9086
1659441204.620262,9131
1659441204.659226,9167
1659441204.701267,9106
1659441204.743307,8929
1659441204.782271,8817
1659441204.821235,8800
1659441204.860199,8879
1659441204.901727,9007
1659441204.943255,9116
1659441204.982219,9182
1659441205.021183,9222
1659441205.060147,9282
1659441205.099112,9344
1659441205.138076,9431
1659441205.17704,9526
1659441205.218055,9612
1659441205.25907,9720
1659441205.297692,9807
1659441205.336315,9915
1659441205.374937,10000
1659441205.416465,10028
1659441205.457992,9855
1659441205.502084,9578
1659441205.546175,9395
1659441205.590266,9294
1659441205.623078,9270
1659441205.65589,9289
1659441205.700322,9360
1659441205.744755,9402
1659441205.789188,9416
1659441205.827811,9428
1659441205.866433,9462
1659441205.905056,9518
1659441205.947096,9570
1659441205.989136,9653
1659441206.0281,9729
1659441206.067065,9806
1659441206.106029,9716
1659441206.148069,9485
1659441206.190109,9300
1659441206.22839,9202
1659441206.266671,9184
1659441206.304951,9218
1659441206.343574,9303
1659441206.382196,9373
1659441206.420819,9414
1659441206.462859,9422
1659441206.504899,9426
1659441206.542838,9425
1659441206.580777,9415
1659441206.618716,9406
1659441206.65768,9373
1659441206.696644,9316
1659441206.735608,9274
1659441206.777648,9172
1659441206.819689,8872
1659441206.85797,8548
1659441206.89625,8306
1659441206.934531,8180
