LocalTimestamp,PG
1659520241.998382,10219
1659520242.039515,10557
1659520242.080648,10826
1659520242.12178,11066
1659520242.162913,11281
1659520242.204046,11507
1659520242.245178,11725
1659520242.284092,11908
1659520242.323006,12070
1659520242.36192,12243
1659520242.401517,12426
1659520242.441114,12593
1659520242.48071,12754
1659520242.522184,12888
1659520242.563658,12990
1659520242.602231,13057
1659520242.640804,13122
1659520242.679376,13187
1659520242.721874,13256
1659520242.764373,13347
1659520242.803287,13424
1659520242.842201,13490
1659520242.881114,13573
1659520242.920028,13589
1659520242.958942,13561
1659520242.997856,13484
1659520243.039842,13449
1659520243.081828,13418
1659520243.12006,13392
1659520243.158291,13396
1659520243.196522,13406
1659520243.238508,13431
1659520243.280494,13439
1659520243.31975,13486
1659520243.359005,13554
1659520243.39826,13648
1659520243.439222,13711
1659520243.480184,13757
1659520243.52456,13808
1659520243.568935,13851
1659520243.613311,13877
1659520243.647617,13901
1659520243.681922,13889
1659520243.726298,13844
1659520243.770674,13833
1659520243.815049,13827
1659520243.85328,13824
1659520243.891512,13839
1659520243.929743,13834
1659520243.972241,13758
1659520244.014739,13629
1659520244.05297,13511
1659520244.091202,13404
1659520244.129433,13340
1659520244.167664,13279
1659520244.205895,13281
1659520244.244127,13276
1659520244.286625,13279
1659520244.329123,13299
1659520244.367354,13295
1659520244.405585,13336
1659520244.443816,13374
1659520244.484267,13409
1659520244.524717,13444
1659520244.563972,13480
1659520244.603227,13523
1659520244.642483,13539
1659520244.681055,13566
1659520244.719628,13569
1659520244.7582,13577
1659520244.800186,13601
1659520244.842172,13603
1659520244.881086,13543
1659520244.92,13459
1659520244.958914,13398
1659520245.0009,13337
1659520245.042886,13282
1659520245.086579,13251
1659520245.130272,13233
1659520245.173965,13212
1659520245.207759,13167
1659520245.241552,13155
1659520245.285928,13166
1659520245.330303,13186
1659520245.374679,13202
1659520245.406937,13210
1659520245.439194,13231
1659520245.483228,13244
1659520245.527263,13278
1659520245.571297,13303
1659520245.610552,13329
1659520245.649807,13358
1659520245.689063,13389
1659520245.730537,13439
1659520245.772011,13469
1659520245.811266,13465
1659520245.850522,13405
1659520245.889777,13318
1659520245.931763,13221
1659520245.973749,13145
1659520246.012663,13070
1659520246.051577,13021
1659520246.090491,13006
1659520246.129746,12983
1659520246.169002,12964
1659520246.208257,12958
1659520246.250243,12935
1659520246.292229,12942
1659520246.330801,12950
1659520246.369374,12965
1659520246.407947,12955
1659520246.448909,12938
1659520246.489871,12943
1659520246.529468,12945
1659520246.569064,12950
1659520246.608661,12922
1659520246.650135,12882
1659520246.691609,12820
1659520246.72984,12825
1659520246.768071,12762
1659520246.806303,12672
1659520246.847777,12602
1659520246.889251,12576
1659520246.928848,12594
1659520246.968444,12604
1659520247.008041,12624
1659520247.052075,12619
1659520247.096109,12584
1659520247.140143,12484
1659520247.172913,12401
1659520247.205683,12364
1659520247.247327,12336
1659520247.288972,12342
1659520247.330617,12350
1659520247.372262,12395
1659520247.413906,12439
1659520247.455551,12487
1659520247.494124,12552
1659520247.532696,12610
1659520247.571269,12673
1659520247.609842,12736
1659520247.648414,12820
1659520247.686987,12851
1659520247.728461,12834
1659520247.769935,12781
1659520247.808849,12754
1659520247.847763,12754
1659520247.886677,12746
1659520247.928151,12756
1659520247.969625,12779
1659520248.013659,12761
1659520248.057693,12724
1659520248.101727,12697
1659520248.135521,12701
1659520248.169315,12702
1659520248.214032,12726
1659520248.258749,12786
1659520248.303466,12835
1659520248.342038,12887
1659520248.380611,12928
1659520248.419183,12941
1659520248.460145,12933
1659520248.501107,12894
1659520248.540363,12838
1659520248.579618,12698
1659520248.618873,12460
1659520248.660347,12278
1659520248.701822,12160
1659520248.740394,12071
1659520248.778967,12031
1659520248.817539,12041
1659520248.856453,12096
1659520248.895367,12161
1659520248.934281,12212
1659520248.975755,12262
1659520249.017229,12342
1659520249.056826,12432
1659520249.096423,12537
1659520249.136019,12635
1659520249.178005,12701
1659520249.219991,12764
1659520249.258564,12834
1659520249.297137,12886
1659520249.335709,12935
1659520249.374964,12965
1659520249.41422,12954
1659520249.453475,12820
1659520249.495973,12631
1659520249.538471,12472
1659520249.579945,12336
1659520249.621419,12233
1659520249.659651,12152
1659520249.697882,12110
1659520249.736113,12061
1659520249.78083,12007
1659520249.825547,11977
1659520249.870264,12007
1659520249.903546,12049
1659520249.936827,12124
1659520249.980861,12217
1659520250.024896,12320
1659520250.06893,12415
1659520250.1017,12496
1659520250.134469,12585
1659520250.179186,12645
1659520250.223903,12714
1659520250.26862,12761
1659520250.307193,12799
1659520250.345765,12750
1659520250.384338,12557
1659520250.426836,12328
1659520250.469334,12172
1659520250.507906,12067
1659520250.546479,11998
1659520250.585052,11996
1659520250.626526,12026
1659520250.668,12042
1659520250.706573,12079
1659520250.745145,12094
1659520250.783718,12139
1659520250.82229,12170
1659520250.860863,12227
1659520250.899436,12294
1659520250.941422,12332
1659520250.983408,12391
1659520251.02198,12463
1659520251.060553,12541
1659520251.099125,12606
1659520251.140087,12689
1659520251.18105,12759
1659520251.219964,12823
1659520251.258878,12852
1659520251.297791,12695
1659520251.342167,12436
1659520251.386543,12251
1659520251.430918,12131
1659520251.465224,12049
1659520251.499529,12021
1659520251.543564,11993
1659520251.587598,11959
1659520251.631632,11915
1659520251.673618,11884
1659520251.715604,11894
1659520251.754177,11917
1659520251.792749,11969
1659520251.831322,12016
1659520251.870236,12071
1659520251.90915,12117
1659520251.948064,12166
1659520251.99005,12219
1659520252.032036,12255
1659520252.07095,12323
1659520252.109864,12390
1659520252.148778,12451
1659520252.18974,12501
1659520252.230702,12417
1659520252.269616,12180
1659520252.30853,11958
1659520252.347444,11857
1659520252.389942,11768
1659520252.43244,11723
1659520252.472037,11721
1659520252.511633,11741
1659520252.55123,11754
1659520252.591168,11770
1659520252.631106,11809
1659520252.671044,11870
1659520252.710982,11945
1659520252.75092,12022
1659520252.790175,12104
1659520252.829431,12174
1659520252.868686,12244
1659520252.909648,12313
1659520252.95061,12380
1659520252.989524,12424
1659520253.028438,12479
1659520253.067352,12535
1659520253.111727,12594
1659520253.156103,12652
1659520253.200479,12692
1659520253.240929,12586
1659520253.281379,12328
1659520253.320634,12061
1659520253.359889,11907
1659520253.399144,11822
1659520253.440619,11766
1659520253.482093,11757
1659520253.520324,11763
1659520253.558555,11753
1659520253.596786,11725
1659520253.636042,11746
1659520253.675297,11787
1659520253.714552,11842
1659520253.756538,11890
1659520253.798524,11903
1659520253.836756,11920
1659520253.874987,11922
1659520253.913218,11945
1659520253.955204,11967
1659520253.99719,12015
1659520254.035763,12061
1659520254.074336,12127
1659520254.112908,12198
1659520254.151139,12272
1659520254.189371,12341
1659520254.227602,12280
1659520254.2701,12064
1659520254.312598,11850
1659520254.351512,11745
1659520254.390426,11672
1659520254.42934,11611
1659520254.46979,11627
1659520254.51024,11710
1659520254.554957,11754
1659520254.599674,11748
1659520254.644391,11737
1659520254.683646,11736
1659520254.722901,11760
1659520254.762157,11760
1659520254.802299,11748
1659520254.842442,11746
1659520254.882585,11776
1659520254.922728,11828
1659520254.962871,11870
1659520255.004857,11900
1659520255.046843,11910
1659520255.085074,11887
1659520255.123305,11881
1659520255.161537,11898
1659520255.200451,11820
1659520255.239365,11581
1659520255.278279,11370
1659520255.320777,11310
1659520255.363275,11274
1659520255.401506,11265
1659520255.439737,11282
1659520255.477968,11299
1659520255.51893,11315
1659520255.559893,11371
1659520255.599148,11434
1659520255.638403,11474
1659520255.677659,11518
1659520255.716914,11570
1659520255.756169,11664
1659520255.795424,11767
1659520255.836898,11912
1659520255.878372,12029
1659520255.917286,12093
1659520255.9562,12152
1659520255.995114,12197
1659520256.037101,12236
1659520256.079087,12174
1659520256.120561,11983
1659520256.162035,11878
1659520256.200949,11874
1659520256.239863,11930
1659520256.278777,11989
1659520256.322811,12025
1659520256.366845,12032
1659520256.410879,12048
1659520256.443649,12084
1659520256.476418,12108
1659520256.520453,12135
1659520256.564487,12150
1659520256.608521,12194
1659520256.647776,12235
1659520256.687032,12301
1659520256.726287,12344
1659520256.767249,12410
1659520256.808211,12471
1659520256.847125,12436
1659520256.886039,12272
1659520256.924953,12123
1659520256.966427,12114
1659520257.007901,12156
1659520257.047156,12213
1659520257.086412,12269
1659520257.125667,12314
1659520257.163898,12352
1659520257.202129,12383
1659520257.240361,12441
1659520257.279957,12498
1659520257.319554,12583
1659520257.359151,12672
1659520257.402843,12754
1659520257.446536,12837
1659520257.490229,12896
1659520257.522487,12960
1659520257.554744,13011
1659520257.599461,12957
1659520257.644178,12733
1659520257.688895,12490
1659520257.727126,12352
1659520257.765357,12263
1659520257.803589,12175
1659520257.845575,12145
1659520257.887561,12135
1659520257.929547,12114
1659520257.971533,12107
1659520258.010447,12103
1659520258.049361,12148
1659520258.088275,12207
1659520258.130261,12271
1659520258.172247,12336
1659520258.211844,12392
1659520258.251441,12459
1659520258.291037,12499
1659520258.329951,12530
1659520258.368865,12414
1659520258.407779,12109
1659520258.448229,11863
1659520258.488679,11705
1659520258.527934,11572
1659520258.56719,11477
1659520258.606445,11422
1659520258.648431,11385
1659520258.690417,11366
1659520258.728648,11348
1659520258.76688,11357
1659520258.805111,11397
1659520258.844025,11469
1659520258.882939,11542
1659520258.921853,11622
1659520258.963327,11718
1659520259.004801,11796
1659520259.046275,11901
1659520259.087749,11994
1659520259.127004,12091
1659520259.16626,12134
1659520259.205515,12011
1659520259.249891,11805
1659520259.294266,11657
1659520259.338642,11579
1659520259.371411,11521
1659520259.404181,11504
1659520259.444324,11528
1659520259.484467,11551
1659520259.524609,11558
1659520259.564752,11573
1659520259.604895,11596
1659520259.645345,11636
1659520259.685795,11683
1659520259.73017,11716
1659520259.774546,11745
1659520259.818922,11770
1659520259.852715,11794
1659520259.886509,11775
1659520259.930543,11771
1659520259.974577,11732
1659520260.018612,11718
1659520260.050869,11764
1659520260.083127,11817
1659520260.127844,11870
1659520260.172561,11778
1659520260.217278,11455
1659520260.25585,11130
1659520260.294423,10879
1659520260.332995,10670
1659520260.374981,10515
1659520260.416968,10478
1659520260.456223,10485
1659520260.495478,10508
1659520260.534734,10560
1659520260.576207,10638
1659520260.617682,10687
1659520260.655913,10739
1659520260.694144,10788
1659520260.732375,10828
1659520260.771972,10909
1659520260.811568,11006
1659520260.851165,11090
1659520260.892127,11178
1659520260.933089,11247
1659520260.971662,11332
1659520261.010235,11425
1659520261.048807,11528
1659520261.090281,11612
1659520261.131755,11684
1659520261.171352,11731
1659520261.210948,11790
1659520261.250545,11798
1659520261.291507,11653
1659520261.332469,11384
1659520261.371383,11128
1659520261.410297,10953
1659520261.449211,10837
1659520261.491197,10802
1659520261.533183,10821
1659520261.572439,10852
1659520261.611694,10833
1659520261.650949,10822
1659520261.695325,10832
1659520261.7397,10851
1659520261.784076,10857
1659520261.82299,10870
1659520261.861904,10881
1659520261.900818,10879
1659520261.939049,10870
1659520261.97728,10840
1659520262.015512,10828
1659520262.054084,10806
1659520262.092657,10750
1659520262.131229,10712
1659520262.173215,10695
1659520262.215201,10693
1659520262.253433,10689
1659520262.291664,10688
1659520262.329895,10661
1659520262.371881,10503
1659520262.413867,10217
1659520262.453464,9952
1659520262.493061,9745
1659520262.532657,9535
1659520262.573619,9418
1659520262.614581,9437
1659520262.658957,9486
1659520262.703333,9523
1659520262.747708,9569
1659520262.782014,9642
1659520262.816319,9739
1659520262.860354,9848
1659520262.904388,9932
1659520262.948422,10023
1659520262.986312,10094
1659520263.024202,10159
1659520263.062092,10222
1659520263.099726,10270
1659520263.13736,10336
1659520263.174994,10388
1659520263.212627,10453
1659520263.25632,10513
1659520263.300013,10579
1659520263.343706,10696
1659520263.382961,10826
1659520263.422216,10963
1659520263.461472,11055
1659520263.502946,11002
1659520263.54442,10918
1659520263.582651,10942
1659520263.620883,10928
1659520263.659114,10985
1659520263.702124,11087
1659520263.745134,11174
1659520263.784048,11272
1659520263.822962,11337
1659520263.861876,11400
1659520263.90079,11467
1659520263.939704,11543
1659520263.978618,11593
1659520264.020092,11635
1659520264.061566,11649
1659520264.103296,11657
1659520264.145026,11696
1659520264.186756,11719
1659520264.228486,11737
1659520264.26996,11765
1659520264.311434,11794
1659520264.35069,11840
1659520264.389945,11874
1659520264.4292,11925
1659520264.470162,11973
1659520264.511124,12035
1659520264.549697,11988
1659520264.588269,11769
1659520264.626842,11538
1659520264.666097,11382
1659520264.705353,11273
1659520264.744608,11170
1659520264.787106,11134
1659520264.829604,11140
1659520264.868177,11151
1659520264.906749,11168
1659520264.945322,11255
1659520264.987308,11360
1659520265.029294,11460
1659520265.067867,11564
1659520265.106439,11696
1659520265.145012,11809
1659520265.183585,11928
1659520265.222157,12046
1659520265.26073,12131
1659520265.302716,12222
1659520265.344702,12317
1659520265.383275,12402
1659520265.421847,12495
1659520265.46042,12547
1659520265.501382,12607
1659520265.542344,12677
1659520265.587061,12711
1659520265.631778,12654
1659520265.676495,12468
1659520265.709776,12264
1659520265.743058,12106
1659520265.787434,11994
1659520265.831809,11923
1659520265.876185,11924
1659520265.909466,11949
1659520265.942748,11948
1659520265.987465,11944
1659520266.032182,11967
1659520266.076899,12030
1659520266.11513,12086
1659520266.153361,12155
1659520266.191592,12212
1659520266.233578,12261
1659520266.275565,12317
1659520266.313199,12363
1659520266.350832,12421
1659520266.388466,12466
1659520266.4261,12543
1659520266.467062,12627
1659520266.508024,12734
1659520266.546256,12768
1659520266.584487,12666
1659520266.622718,12502
1659520266.667094,12357
1659520266.711469,12309
1659520266.755845,12248
1659520266.789638,12221
1659520266.823432,12216
1659520266.868149,12232
1659520266.912866,12237
1659520266.957583,12239
1659520266.991376,12229
1659520267.02517,12239
1659520267.069546,12284
1659520267.113921,12330
1659520267.158297,12381
1659520267.196869,12433
1659520267.235442,12474
1659520267.274014,12530
1659520267.316513,12594
1659520267.359011,12648
1659520267.397925,12708
1659520267.436839,12801
1659520267.475753,12843
1659520267.516715,12776
1659520267.557677,12582
1659520267.596591,12391
1659520267.635505,12267
1659520267.674419,12161
1659520267.712991,12087
1659520267.751564,12046
1659520267.790136,12056
1659520267.83161,12052
1659520267.873085,12052
1659520267.912681,12104
1659520267.952278,12190
1659520267.991874,12302
1659520268.033349,12408
1659520268.074823,12474
1659520268.113395,12533
1659520268.151968,12596
1659520268.19054,12648
1659520268.233038,12702
1659520268.275537,12769
1659520268.315065,12825
1659520268.354593,12896
1659520268.394122,12954
1659520268.43365,13010
1659520268.473179,12968
1659520268.517554,12790
1659520268.56193,12571
1659520268.606305,12407
1659520268.640099,12294
1659520268.673892,12217
1659520268.714855,12224
1659520268.755817,12248
1659520268.796779,12291
1659520268.837741,12312
1659520268.876655,12367
1659520268.915569,12463
1659520268.954483,12545
1659520268.995957,12612
1659520269.037431,12681
1659520269.076003,12754
1659520269.114576,12821
1659520269.153149,12895
1659520269.195647,12968
1659520269.238145,13033
1659520269.277059,13077
1659520269.315973,13116
1659520269.354887,13171
1659520269.395849,13232
1659520269.436811,13256
1659520269.475725,13172
1659520269.514639,12933
1659520269.553553,12685
1659520269.597928,12493
1659520269.642304,12335
1659520269.686679,12212
1659520269.72491,12244
1659520269.763142,12374
1659520269.801373,12455
1659520269.843871,12468
1659520269.886369,12499
1659520269.925283,12544
1659520269.964197,12600
1659520270.003111,12659
1659520270.041342,12707
1659520270.079574,12749
1659520270.117805,12794
1659520270.159791,12831
1659520270.201777,12886
1659520270.240691,12937
1659520270.279605,12987
1659520270.318519,13030
1659520270.357774,13065
1659520270.397029,13108
1659520270.436285,13123
1659520270.477759,13054
1659520270.519233,12854
1659520270.55883,12638
1659520270.598426,12537
1659520270.638023,12464
1659520270.678473,12447
1659520270.718923,12471
1659520270.760909,12511
1659520270.802895,12550
1659520270.841809,12582
1659520270.880723,12664
1659520270.919637,12730
1659520270.961111,12828
1659520271.002585,12902
1659520271.044059,12971
1659520271.085533,13046
1659520271.127007,13102
1659520271.168481,13155
1659520271.209955,13211
1659520271.25143,13272
1659520271.291368,13319
1659520271.331306,13391
1659520271.371243,13437
1659520271.411181,13489
1659520271.451119,13531
1659520271.490033,13492
1659520271.528947,13379
1659520271.567861,13258
1659520271.607117,13179
1659520271.646372,13114
1659520271.685627,13037
1659520271.723517,12989
1659520271.761407,12976
1659520271.799297,12976
1659520271.842307,12991
1659520271.885317,13017
1659520271.923548,13035
1659520271.96178,13069
1659520272.000011,13100
1659520272.040461,13116
1659520272.080911,13140
1659520272.119825,13159
1659520272.158739,13228
1659520272.197653,13283
1659520272.239639,13325
1659520272.281625,13361
1659520272.325659,13422
1659520272.369694,13476
1659520272.413728,13510
1659520272.452641,13476
1659520272.491555,13342
1659520272.530469,13235
1659520272.572456,13198
1659520272.614442,13193
1659520272.652673,13180
1659520272.690904,13215
1659520272.729136,13251
1659520272.771634,13280
1659520272.814132,13348
1659520272.853387,13427
1659520272.892642,13537
1659520272.931898,13623
1659520272.969787,13729
1659520273.007677,13829
1659520273.045567,13904
1659520273.087553,13990
1659520273.129539,14062
1659520273.168112,14133
1659520273.206685,14211
1659520273.245257,14260
1659520273.287243,14304
1659520273.329229,14339
1659520273.368143,14319
1659520273.407057,14227
1659520273.445971,14104
1659520273.485227,14016
1659520273.524482,13955
1659520273.563737,13904
1659520273.605467,13868
1659520273.647197,13850
1659520273.688927,13804
1659520273.730658,13751
1659520273.772644,13747
1659520273.81463,13795
1659520273.853202,13856
1659520273.891775,13906
1659520273.930347,13987
1659520273.972334,14058
1659520274.01432,14125
1659520274.053234,14156
1659520274.092148,14184
1659520274.131062,14188
1659520274.169293,14206
1659520274.207524,14183
1659520274.245755,14063
1659520274.286717,13863
1659520274.327679,13681
1659520274.366593,13573
1659520274.405507,13498
1659520274.444421,13462
1659520274.485895,13440
1659520274.527369,13412
1659520274.571404,13369
1659520274.615438,13365
1659520274.659472,13386
1659520274.692754,13414
1659520274.726035,13450
1659520274.770752,13483
1659520274.815469,13502
1659520274.860186,13551
1659520274.893468,13571
1659520274.926749,13612
1659520274.971125,13663
1659520275.015501,13656
1659520275.059876,13522
1659520275.098449,13286
1659520275.137021,13042
1659520275.175594,12799
1659520275.216044,12554
1659520275.256494,12351
1659520275.295066,12218
1659520275.333639,12135
1659520275.372212,12064
1659520275.411467,12017
1659520275.450722,12009
1659520275.489978,12026
1659520275.53094,12049
1659520275.571902,12087
1659520275.610816,12121
1659520275.649729,12153
1659520275.688643,12194
1659520275.730629,12237
1659520275.772616,12282
1659520275.812212,12320
1659520275.851809,12325
1659520275.891406,12195
1659520275.932368,11958
1659520275.97333,11775
1659520276.012585,11648
1659520276.05184,11561
1659520276.091096,11504
1659520276.13257,11506
1659520276.174044,11514
1659520276.212958,11511
1659520276.251872,11536
1659520276.290786,11563
1659520276.331748,11617
1659520276.37271,11673
1659520276.411965,11737
1659520276.45122,11800
1659520276.490476,11883
1659520276.534168,11944
1659520276.577861,12022
1659520276.621554,12113
1659520276.663028,12185
1659520276.704502,12268
1659520276.743757,12346
1659520276.783013,12430
1659520276.822268,12509
1659520276.861182,12518
1659520276.900096,12432
1659520276.93901,12382
1659520276.980484,12388
1659520277.021958,12394
1659520277.061555,12424
1659520277.101151,12482
1659520277.140748,12539
1659520277.182222,12581
1659520277.223696,12623
1659520277.26261,12661
1659520277.301524,12707
1659520277.340438,12723
1659520277.379693,12736
1659520277.418949,12754
1659520277.458204,12751
1659520277.498654,12776
1659520277.539104,12806
1659520277.577677,12846
1659520277.616249,12906
1659520277.654822,12967
1659520277.69732,13025
1659520277.739818,12988
1659520277.777708,12872
1659520277.815598,12738
1659520277.853488,12704
1659520277.894962,12722
1659520277.936436,12753
1659520277.97535,12776
1659520278.014264,12785
1659520278.053178,12709
1659520278.095164,12624
1659520278.13715,12569
1659520278.181184,12538
1659520278.225218,12519
1659520278.269253,12509
1659520278.308849,12527
1659520278.348446,12543
1659520278.388042,12550
1659520278.428493,12569
1659520278.468943,12577
1659520278.507174,12597
1659520278.545405,12506
1659520278.583636,12233
1659520278.62255,11919
1659520278.661464,11730
1659520278.700378,11637
1659520278.742364,11583
1659520278.78435,11591
1659520278.82608,11640
1659520278.86781,11673
1659520278.909541,11671
1659520278.951271,11672
1659520278.990185,11668
1659520279.029099,11659
1659520279.068012,11659
1659520279.109487,11667
1659520279.150961,11699
1659520279.190216,11747
1659520279.229471,11803
1659520279.268727,11867
1659520279.311225,11954
1659520279.353723,12065
1659520279.392295,12146
1659520279.430868,12216
1659520279.469441,12135
1659520279.508354,11875
1659520279.547268,11580
1659520279.586182,11397
1659520279.627656,11290
1659520279.669131,11217
1659520279.707703,11219
1659520279.746276,11250
1659520279.784848,11257
1659520279.826834,11277
1659520279.868821,11332
1659520279.907734,11433
1659520279.946648,11547
1659520279.985562,11661
1659520280.024135,11741
1659520280.062708,11839
1659520280.10128,11944
1659520280.142754,12052
1659520280.184228,12148
1659520280.223484,12245
1659520280.262739,12333
1659520280.301994,12411
1659520280.34398,12492
1659520280.385967,12545
1659520280.430001,12579
1659520280.474035,12514
1659520280.518069,12344
1659520280.551351,12190
1659520280.584632,12086
1659520280.628667,12003
1659520280.672701,11953
1659520280.716735,11955
1659520280.750529,11971
1659520280.784322,11984
1659520280.828357,11982
1659520280.872391,11997
1659520280.916425,12015
1659520280.954998,12048
1659520280.99357,12075
1659520281.032143,12109
1659520281.072593,12152
1659520281.113043,12193
1659520281.151957,12254
1659520281.190871,12301
1659520281.229785,12347
1659520281.271771,12387
1659520281.313757,12422
1659520281.352671,12441
1659520281.391585,12468
1659520281.430499,12489
1659520281.469413,12504
1659520281.508327,12465
1659520281.54724,12395
1659520281.589739,12337
1659520281.632237,12304
1659520281.671151,12266
1659520281.710065,12227
1659520281.748979,12213
1659520281.789941,12206
1659520281.830903,12183
1659520281.870158,12201
1659520281.909413,12215
1659520281.948669,12230
1659520281.989119,12256
1659520282.029569,12292
1659520282.068141,12322
1659520282.106714,12361
1659520282.145286,12402
1659520282.187273,12441
1659520282.229259,12494
1659520282.268173,12535
1659520282.307086,12586
1659520282.346,12612
1659520282.390376,12661
1659520282.434752,12725
1659520282.479127,12775
1659520282.521113,12815
1659520282.563099,12807
1659520282.602696,12805
1659520282.642293,12820
1659520282.681889,12832
1659520282.723363,12853
1659520282.764838,12871
1659520282.804093,12895
1659520282.843348,12911
1659520282.882603,12929
1659520282.921176,12952
1659520282.959749,12983
1659520282.998321,13016
1659520283.039795,13059
1659520283.081269,13090
1659520283.120525,13119
1659520283.15978,13145
1659520283.199035,13180
1659520283.240509,13211
1659520283.281983,13239
1659520283.319873,13269
1659520283.357763,13294
1659520283.395653,13315
1659520283.434908,13338
1659520283.474164,13358
1659520283.513419,13367
1659520283.555405,13364
1659520283.597391,13363
1659520283.635964,13374
1659520283.674536,13402
1659520283.713109,13416
1659520283.754583,13455
1659520283.796057,13477
1659520283.834971,13512
1659520283.873885,13539
1659520283.912799,13556
1659520283.954273,13580
1659520283.995747,13602
1659520284.03548,13616
1659520284.075213,13627
1659520284.114947,13640
1659520284.15468,13637
1659520284.194413,13661
1659520284.235887,13663
1659520284.277361,13671
1659520284.315934,13689
1659520284.354506,13694
1659520284.393079,13705
1659520284.437454,13713
1659520284.48183,13729
1659520284.526206,13710
1659520284.558975,13684
1659520284.591745,13646
1659520284.63612,13618
1659520284.680496,13591
1659520284.724871,13570
1659520284.76737,13563
1659520284.809868,13565
1659520284.848782,13549
1659520284.887696,13541
1659520284.92661,13537
1659520284.965182,13534
1659520285.003755,13558
1659520285.042327,13559
1659520285.083802,13562
1659520285.125276,13579
1659520285.163848,13579
1659520285.202421,13592
1659520285.240993,13611
1659520285.279566,13628
1659520285.318139,13649
1659520285.356711,13676
1659520285.399209,13701
1659520285.441707,13718
1659520285.480621,13740
1659520285.519535,13704
1659520285.558449,13650
1659520285.599923,13628
1659520285.641397,13604
1659520285.680311,13584
1659520285.719225,13561
1659520285.758139,13537
1659520285.800637,13519
1659520285.843135,13511
1659520285.882049,13511
1659520285.920963,13530
1659520285.959877,13579
1659520286.001351,13621
1659520286.042825,13662
1659520286.087542,13715
1659520286.132259,13758
1659520286.176976,13796
1659520286.21077,13819
1659520286.244564,13844
1659520286.288256,13847
1659520286.331949,13874
1659520286.375642,13904
1659520286.414215,13925
1659520286.452787,13928
1659520286.49136,13854
1659520286.532322,13736
1659520286.573284,13630
1659520286.611856,13563
1659520286.650429,13506
1659520286.689002,13491
1659520286.728257,13482
1659520286.767512,13450
1659520286.806768,13435
1659520286.848242,13403
1659520286.889716,13393
1659520286.927947,13356
1659520286.966178,13324
1659520287.00441,13297
1659520287.046396,13259
1659520287.088382,13245
1659520287.127637,13234
1659520287.166892,13218
1659520287.206148,13205
1659520287.24472,13206
1659520287.283293,13189
1659520287.321865,13182
1659520287.363339,13136
1659520287.404814,12976
1659520287.443386,12788
1659520287.481959,12653
1659520287.520531,12542
1659520287.562005,12441
1659520287.603479,12370
1659520287.647855,12306
1659520287.69223,12235
1659520287.736606,12185
1659520287.775179,12135
1659520287.813751,12112
1659520287.852324,12103
1659520287.893286,12084
1659520287.934248,12065
1659520287.973503,12051
1659520288.012758,12063
1659520288.052014,12073
1659520288.094512,12083
1659520288.13701,12095
1659520288.175241,12122
1659520288.213473,12150
1659520288.251704,12160
1659520288.291301,12053
1659520288.330897,11806
1659520288.370494,11579
1659520288.411456,11424
1659520288.452418,11296
1659520288.490991,11159
1659520288.529563,11086
1659520288.568136,11024
1659520288.610634,11001
1659520288.653132,11014
1659520288.692046,11010
1659520288.73096,11050
1659520288.769874,11090
1659520288.808105,11150
1659520288.846336,11216
1659520288.884567,11275
1659520288.926554,11300
1659520288.96854,11332
1659520289.011038,11336
1659520289.053536,11333
1659520289.092108,11312
1659520289.130681,11309
1659520289.169254,11307
1659520289.213971,11213
1659520289.258687,11029
1659520289.303405,10870
1659520289.342933,10784
1659520289.382461,10739
1659520289.42199,10686
1659520289.461518,10679
1659520289.501046,10687
1659520289.53484,10696
1659520289.568634,10698
1659520289.613009,10711
1659520289.657385,10767
1659520289.701761,10846
1659520289.739992,10957
1659520289.778223,11037
1659520289.816454,11113
1659520289.857416,11157
1659520289.898378,11201
1659520289.937292,11264
1659520289.976206,11306
1659520290.01512,11346
1659520290.054034,11391
1659520290.092948,11429
1659520290.131862,11441
1659520290.173336,11353
1659520290.21481,11168
1659520290.253383,11044
1659520290.291955,10982
1659520290.330528,10927
1659520290.372002,10919
1659520290.413476,10937
1659520290.452731,10957
1659520290.491987,10976
1659520290.531242,10999
1659520290.572716,11030
1659520290.61419,11092
1659520290.653104,11163
1659520290.692018,11222
1659520290.730932,11294
1659520290.771894,11371
1659520290.812856,11451
1659520290.85177,11528
1659520290.890684,11597
1659520290.929598,11655
1659520290.973974,11709
1659520291.018349,11753
1659520291.062725,11751
1659520291.095494,11622
1659520291.128264,11374
1659520291.172981,11218
1659520291.217698,11118
1659520291.262414,11032
1659520291.303889,11002
1659520291.345363,11040
1659520291.384959,11059
1659520291.424556,11048
1659520291.464153,10997
1659520291.503067,10965
1659520291.541981,10996
1659520291.580894,11117
1659520291.620491,11208
1659520291.660088,11272
1659520291.699684,11316
1659520291.737574,11331
1659520291.775464,11362
1659520291.813354,11381
1659520291.854828,11397
1659520291.896302,11427
1659520291.939312,11424
1659520291.982322,11417
1659520292.020554,11406
1659520292.058785,11321
1659520292.097016,11084
1659520292.137466,10903
1659520292.177916,10775
1659520292.217513,10667
1659520292.25711,10572
1659520292.296706,10507
1659520292.341082,10473
1659520292.385457,10429
1659520292.429833,10389
1659520292.468405,10369
1659520292.506978,10390
1659520292.545551,10414
1659520292.588561,10459
1659520292.631571,10527
1659520292.670144,10569
1659520292.708716,10636
1659520292.747289,10706
1659520292.785861,10776
1659520292.824434,10833
1659520292.863007,10900
1659520292.904481,10944
1659520292.945955,10987
1659520292.984527,11045
1659520293.0231,11098
1659520293.061672,11159
1659520293.100245,11222
1659520293.138818,11231
1659520293.17739,11121
1659520293.218864,10974
1659520293.260339,10887
1659520293.29857,10820
1659520293.336801,10763
1659520293.375032,10706
1659520293.417018,10701
1659520293.459004,10696
1659520293.504063,10705
1659520293.549121,10724
1659520293.594179,10754
1659520293.626437,10807
1659520293.658694,10881
1659520293.702729,10962
1659520293.746763,11035
1659520293.790797,11114
1659520293.825103,11159
1659520293.859408,11219
1659520293.904125,11279
1659520293.948842,11332
1659520293.993559,11380
1659520294.032132,11436
1659520294.070704,11492
1659520294.109277,11548
1659520294.150751,11606
1659520294.192225,11619
1659520294.230798,11495
1659520294.26937,11248
1659520294.307943,11035
1659520294.349929,10905
1659520294.391915,10778
1659520294.430829,10654
1659520294.469743,10590
1659520294.508657,10586
1659520294.547571,10613
1659520294.586485,10651
1659520294.625399,10733
1659520294.664313,10833
1659520294.703227,10906
1659520294.742141,10945
1659520294.787199,11011
1659520294.832257,11095
1659520294.877315,11166
1659520294.919302,11220
1659520294.961287,11249
1659520294.999519,11266
1659520295.03775,11274
1659520295.075981,11295
1659520295.118479,11377
1659520295.160978,11517
1659520295.19955,11600
1659520295.238123,11502
1659520295.276695,11391
1659520295.315268,11388
1659520295.353841,11480
1659520295.392413,11539
1659520295.433375,11599
1659520295.474337,11751
1659520295.513934,11886
1659520295.55353,12028
1659520295.593127,12114
1659520295.634089,12207
1659520295.675051,12287
1659520295.713965,12344
1659520295.752879,12357
1659520295.791793,12362
1659520295.831048,12359
1659520295.870304,12369
1659520295.909559,12432
1659520295.951033,12503
1659520295.992507,12524
1659520296.03108,12576
1659520296.069652,12621
1659520296.108225,12635
1659520296.149699,12594
1659520296.191173,12576
1659520296.229404,12501
1659520296.267636,12384
1659520296.305867,12323
1659520296.347341,12321
1659520296.388815,12337
1659520296.433191,12363
1659520296.477566,12375
1659520296.521942,12395
1659520296.560856,12412
1659520296.59977,12410
1659520296.638683,12442
1659520296.679133,12504
1659520296.719584,12563
1659520296.75918,12623
1659520296.798777,12679
1659520296.838373,12717
1659520296.876946,12761
1659520296.915519,12782
1659520296.954091,12762
1659520296.995565,12778
1659520297.037039,12794
1659520297.076636,12810
1659520297.116233,12845
1659520297.155829,12881
1659520297.197303,12911
1659520297.238777,12943
1659520297.276667,13001
1659520297.314557,13101
1659520297.352447,13185
1659520297.391702,13263
1659520297.430958,13332
1659520297.470213,13412
1659520297.512199,13487
1659520297.554185,13589
1659520297.592758,13632
1659520297.63133,13616
1659520297.669903,13429
1659520297.711377,13154
1659520297.752851,12997
1659520297.797568,12919
1659520297.842285,12898
1659520297.887002,12898
1659520297.919771,12921
1659520297.952541,12910
1659520297.997599,12909
1659520298.042658,12914
1659520298.087716,12933
1659520298.120998,12981
1659520298.154279,13032
1659520298.198313,13088
1659520298.242348,13109
1659520298.286382,13165
1659520298.325296,13217
1659520298.36421,13145
1659520298.403124,12902
1659520298.445622,12662
1659520298.48812,12495
1659520298.52601,12344
1659520298.5639,12207
1659520298.60179,12131
1659520298.643264,12112
1659520298.684738,12088
1659520298.72331,12078
1659520298.761883,12080
1659520298.800456,12105
1659520298.83937,12160
1659520298.878284,12206
1659520298.917197,12295
1659520298.958672,12468
1659520299.000146,12620
1659520299.039401,12727
1659520299.078656,12750
1659520299.117911,12586
1659520299.156484,12364
1659520299.195057,12227
1659520299.233629,12104
1659520299.275615,11953
1659520299.317601,11844
1659520299.359587,11833
1659520299.401574,11841
1659520299.440146,11796
1659520299.478719,11777
1659520299.517291,11755
1659520299.560984,11744
1659520299.604677,11722
1659520299.64837,11749
1659520299.682164,11745
1659520299.715957,11764
1659520299.757261,11835
1659520299.798564,11912
1659520299.839868,11959
1659520299.881171,11884
1659520299.922474,11581
1659520299.963778,11251
1659520300.00235,11034
1659520300.040923,10893
1659520300.079495,10816
1659520300.118751,10813
1659520300.158006,10796
1659520300.197261,10778
1659520300.238224,10777
1659520300.279186,10792
1659520300.318441,10822
1659520300.357696,10872
1659520300.396951,10933
1659520300.43945,11008
1659520300.481948,11077
1659520300.52052,11133
1659520300.559093,11206
1659520300.597666,11275
1659520300.642382,11327
1659520300.687099,11407
1659520300.731816,11459
1659520300.772778,11523
1659520300.81374,11614
1659520300.852313,11591
1659520300.890885,11311
1659520300.929458,10976
1659520300.971956,10760
1659520301.014454,10643
1659520301.053027,10634
1659520301.091599,10721
1659520301.130172,10851
1659520301.169086,11006
1659520301.208,11141
1659520301.246914,11256
1659520301.288388,11352
1659520301.329862,11394
1659520301.369459,11408
1659520301.409055,11420
1659520301.448652,11421
1659520301.486883,11453
1659520301.525115,11501
1659520301.563346,11575
1659520301.605332,11625
1659520301.647318,11688
1659520301.685891,11742
1659520301.724463,11801
1659520301.763036,11834
1659520301.80451,11712
1659520301.845984,11421
1659520301.884898,11158
1659520301.923812,10972
1659520301.962726,10809
1659520302.003688,10728
1659520302.04465,10740
1659520302.08254,10806
1659520302.12043,10861
1659520302.158319,10934
1659520302.200818,11016
1659520302.243316,11093
1659520302.288033,11182
1659520302.33275,11276
1659520302.377466,11362
1659520302.416039,11444
1659520302.454612,11536
1659520302.493184,11624
1659520302.534146,11721
1659520302.575108,11806
1659520302.614705,11880
1659520302.654302,11976
1659520302.693898,12055
1659520302.735372,12146
1659520302.776846,12150
1659520302.815419,12039
1659520302.853992,11905
1659520302.892564,11802
1659520302.931478,11712
1659520302.970392,11660
1659520303.009306,11698
1659520303.050268,11775
1659520303.09123,11847
1659520303.129803,11897
1659520303.168375,11955
1659520303.206948,11997
1659520303.249446,11994
1659520303.291944,11964
1659520303.330175,11954
1659520303.368407,11968
1659520303.406638,11993
1659520303.445893,12012
1659520303.485149,12036
1659520303.524404,12058
1659520303.56639,12082
1659520303.608376,12106
1659520303.650362,12139
1659520303.692348,12197
1659520303.730921,12242
1659520303.769494,12165
1659520303.808066,11851
1659520303.853124,11516
1659520303.898183,11276
1659520303.943241,11069
1659520303.975498,10888
1659520304.007756,10813
1659520304.05179,10855
1659520304.095824,10928
1659520304.139859,10967
1659520304.173652,10997
1659520304.207446,11049
1659520304.252163,11108
1659520304.29688,11152
1659520304.341597,11156
1659520304.379828,11165
1659520304.418059,11216
1659520304.45629,11304
1659520304.498276,11369
1659520304.540263,11412
1659520304.579177,11456
1659520304.618091,11545
1659520304.657005,11643
1659520304.698991,11713
1659520304.740977,11782
1659520304.779891,11841
1659520304.818805,11878
1659520304.857718,11747
1659520304.896632,11542
1659520304.935546,11368
1659520304.97446,11259
1659520305.014398,11179
1659520305.054336,11143
1659520305.094274,11247
1659520305.134212,11348
1659520305.17415,11431
1659520305.218185,11503
1659520305.262219,11614
1659520305.306253,11745
1659520305.344484,11883
1659520305.382715,12020
1659520305.420947,12149
1659520305.459519,12291
1659520305.498092,12392
1659520305.536664,12488
1659520305.578139,12577
1659520305.619613,12676
1659520305.658527,12742
1659520305.697441,12812
1659520305.736355,12886
1659520305.775269,12956
1659520305.814183,13043
1659520305.853096,13087
1659520305.895595,13050
1659520305.938093,12931
1659520305.976665,12820
1659520306.015238,12798
1659520306.05381,12808
1659520306.094772,12831
1659520306.135735,12869
1659520306.17499,12943
1659520306.214245,12988
1659520306.2535,13057
1659520306.297193,13093
1659520306.340886,13086
1659520306.384579,13057
1659520306.418373,13068
1659520306.452166,13105
1659520306.497225,13177
1659520306.542283,13296
1659520306.587341,13381
1659520306.627791,13448
1659520306.668241,13488
1659520306.707155,13515
1659520306.746069,13540
1659520306.784983,13578
1659520306.827481,13608
1659520306.869979,13638
1659520306.908893,13673
1659520306.947807,13671
1659520306.986721,13546
1659520307.025294,13358
1659520307.063866,13195
1659520307.102439,13066
1659520307.144937,12920
1659520307.187435,12796
1659520307.22669,12761
1659520307.265946,12776
1659520307.305201,12778
1659520307.345651,12779
1659520307.386101,12783
1659520307.425356,12808
1659520307.464612,12851
1659520307.503867,12875
1659520307.542098,12930
1659520307.580329,12983
1659520307.618561,13042
1659520307.660547,13097
1659520307.702533,13179
1659520307.741447,13257
1659520307.780361,13348
1659520307.819275,13439
1659520307.860749,13533
1659520307.902223,13660
1659520307.946257,13788
1659520307.990291,13908
1659520308.034325,13936
1659520308.068631,13836
1659520308.102937,13814
1659520308.147654,13868
1659520308.192371,13849
1659520308.237088,13859
1659520308.269345,13913
1659520308.301603,14005
1659520308.345978,14073
1659520308.390354,14100
1659520308.43473,14127
1659520308.473302,14151
1659520308.511875,14195
1659520308.550447,14207
1659520308.591921,14220
1659520308.633395,14231
1659520308.672309,14231
1659520308.711223,14237
1659520308.750137,14242
1659520308.78871,14247
1659520308.827282,14260
1659520308.865855,14256
1659520308.906817,14272
1659520308.947779,14286
1659520308.987035,14331
1659520309.02629,14331
1659520309.065545,14118
1659520309.108043,13842
1659520309.150541,13648
1659520309.189114,13510
1659520309.227686,13361
1659520309.266259,13278
1659520309.305514,13221
1659520309.34477,13173
1659520309.384025,13109
1659520309.424987,13092
1659520309.465949,13118
1659520309.507935,13172
1659520309.549921,13258
1659520309.588494,13312
1659520309.627066,13381
1659520309.665639,13436
1659520309.707113,13491
1659520309.748587,13529
1659520309.787501,13573
1659520309.826415,13600
1659520309.865329,13617
1659520309.909363,13645
1659520309.953398,13665
1659520309.997432,13697
1659520310.031225,13712
1659520310.065019,13566
1659520310.109736,13348
1659520310.154453,13223
1659520310.19917,13094
1659520310.238254,12981
1659520310.277339,12902
1659520310.316424,12839
1659520310.355508,12800
1659520310.394593,12736
1659520310.433677,12670
1659520310.472591,12621
1659520310.511505,12600
1659520310.550419,12587
1659520310.592405,12576
1659520310.634392,12593
1659520310.673306,12587
1659520310.712219,12611
1659520310.751133,12637
1659520310.792095,12667
1659520310.833057,12722
1659520310.87675,12761
1659520310.920443,12803
1659520310.964136,12829
1659520311.002709,12758
1659520311.041281,12479
1659520311.079854,12200
1659520311.118768,11995
1659520311.157682,11836
1659520311.196596,11721
1659520311.23807,11648
1659520311.279544,11565
1659520311.318799,11471
1659520311.358054,11415
1659520311.39731,11366
1659520311.435882,11363
1659520311.474455,11337
1659520311.513027,11331
1659520311.553989,11338
1659520311.594952,11363
1659520311.634207,11405
1659520311.673462,11457
1659520311.712718,11518
1659520311.754704,11570
1659520311.79669,11628
1659520311.834579,11636
1659520311.872469,11535
1659520311.910359,11444
1659520311.951833,11429
1659520311.993308,11490
1659520312.03188,11559
1659520312.070453,11660
1659520312.109025,11747
1659520312.150499,11798
1659520312.191973,11823
1659520312.231229,11843
1659520312.270484,11877
1659520312.309739,11925
1659520312.351725,11972
1659520312.393712,12030
1659520312.438087,12084
1659520312.482463,12135
1659520312.526838,12191
1659520312.566093,12224
1659520312.605349,12277
1659520312.644604,12304
1659520312.687102,12178
1659520312.7296,11988
1659520312.767832,11787
1659520312.806063,11662
1659520312.844294,11558
1659520312.883208,11487
1659520312.922122,11435
1659520312.961036,11413
1659520313.00251,11404
1659520313.043984,11415
1659520313.082898,11447
1659520313.121812,11494
1659520313.160726,11552
1659520313.2022,11617
1659520313.243674,11679
1659520313.282588,11741
1659520313.321502,11815
1659520313.360416,11858
1659520313.398988,11836
1659520313.437561,11665
1659520313.476134,11490
1659520313.51812,11417
1659520313.560106,11353
1659520313.599361,11326
1659520313.638617,11326
1659520313.677872,11372
1659520313.718834,11398
1659520313.759796,11415
1659520313.80127,11396
1659520313.842744,11373
1659520313.882341,11378
1659520313.921937,11392
1659520313.961534,11418
1659520314.005568,11456
1659520314.049602,11484
1659520314.093637,11520
1659520314.125894,11563
1659520314.158152,11604
1659520314.202527,11531
1659520314.246903,11314
1659520314.291278,11089
1659520314.32951,10958
1659520314.367741,10852
1659520314.405972,10771
1659520314.447958,10743
1659520314.489944,10774
1659520314.528858,10803
1659520314.567772,10816
1659520314.606686,10843
1659520314.64816,10893
1659520314.689634,10954
1659520314.728207,11009
1659520314.76678,11073
1659520314.805352,11139
1659520314.844266,11206
1659520314.88318,11267
1659520314.922094,11321
1659520314.96408,11381
1659520315.006066,11435
1659520315.044639,11501
1659520315.083211,11481
1659520315.121784,11328
1659520315.162746,11119
1659520315.203708,10992
1659520315.242622,10911
1659520315.281536,10852
1659520315.32045,10801
1659520315.362436,10805
1659520315.404422,10818
1659520315.445896,10826
1659520315.48737,10885
1659520315.528844,10951
1659520315.570318,11023
1659520315.611793,11115
1659520315.653267,11178
1659520315.68706,11257
1659520315.720854,11334
1659520315.765229,11402
1659520315.809605,11462
1659520315.853981,11508
1659520315.893577,11548
1659520315.933174,11589
1659520315.97277,11642
1659520316.014245,11697
1659520316.055719,11764
1659520316.094633,11816
1659520316.133547,11731
1659520316.172461,11504
1659520316.213935,11280
1659520316.255409,11099
1659520316.293981,10936
1659520316.332554,10802
1659520316.371126,10732
1659520316.41004,10726
1659520316.448954,10741
1659520316.487868,10737
1659520316.529855,10744
1659520316.571841,10780
1659520316.610072,10811
1659520316.648303,10865
1659520316.686534,10922
1659520316.727496,10978
1659520316.768458,11047
1659520316.808396,11106
1659520316.848334,11168
1659520316.888272,11220
1659520316.929746,11272
1659520316.97122,11326
1659520317.009452,11393
1659520317.047683,11446
1659520317.085914,11501
1659520317.130972,11546
1659520317.176031,11457
1659520317.221089,11237
1659520317.254371,11045
1659520317.287652,10908
1659520317.331345,10791
1659520317.375038,10699
1659520317.418731,10675
1659520317.459693,10675
1659520317.500655,10719
1659520317.539569,10751
1659520317.578483,10812
1659520317.617397,10899
1659520317.655287,10972
1659520317.693177,11061
1659520317.731066,11138
1659520317.773565,11215
1659520317.816063,11280
1659520317.854977,11339
1659520317.893891,11416
1659520317.932805,11480
1659520317.971377,11546
1659520318.00995,11601
1659520318.048522,11669
1659520318.090508,11716
1659520318.132495,11778
1659520318.17175,11826
1659520318.211005,11831
1659520318.250261,11708
1659520318.291734,11549
1659520318.333209,11450
1659520318.372123,11372
1659520318.411036,11309
1659520318.44995,11277
1659520318.491425,11293
1659520318.532899,11331
1659520318.57113,11358
1659520318.609361,11387
1659520318.647592,11438
1659520318.689579,11492
1659520318.731565,11551
1659520318.776281,11613
1659520318.820998,11651
1659520318.865715,11705
1659520318.904288,11758
1659520318.94286,11807
1659520318.981433,11857
1659520319.023419,11910
1659520319.065405,11970
1659520319.104661,12033
1659520319.143916,12101
1659520319.183171,12155
1659520319.225157,12215
1659520319.267143,12248
1659520319.306057,12173
1659520319.344971,12004
1659520319.383885,11881
1659520319.422799,11793
1659520319.461713,11731
1659520319.500627,11674
1659520319.541589,11665
1659520319.582551,11680
1659520319.621124,11702
1659520319.659696,11707
1659520319.698269,11724
1659520319.740767,11759
1659520319.783265,11804
1659520319.822179,11860
1659520319.861093,11917
1659520319.900007,11968
1659520319.938238,12029
1659520319.97647,12078
1659520320.014701,12128
1659520320.056175,12182
1659520320.097649,12237
1659520320.137246,12290
1659520320.176842,12344
1659520320.216439,12388
1659520320.257401,12434
1659520320.298363,12483
1659520320.342738,12454
1659520320.387114,12307
1659520320.43149,12147
1659520320.464771,12034
1659520320.498053,11963
1659520320.541746,11889
1659520320.585439,11844
1659520320.629132,11840
1659520320.662413,11855
1659520320.695695,11867
1659520320.735428,11892
1659520320.775161,11944
1659520320.814894,11999
1659520320.854628,12068
1659520320.894361,12129
1659520320.938395,12185
1659520320.982429,12260
1659520321.026463,12313
1659520321.06606,12371
1659520321.105657,12422
1659520321.145253,12478
1659520321.186727,12531
1659520321.228201,12587
1659520321.266774,12624
1659520321.305347,12665
1659520321.343919,12704
1659520321.385905,12660
1659520321.427891,12509
1659520321.467488,12339
1659520321.507085,12228
1659520321.546681,12141
1659520321.584913,12072
1659520321.623144,12031
1659520321.661375,12020
1659520321.703361,12031
1659520321.745347,12032
1659520321.78392,12037
1659520321.822493,12058
1659520321.861065,12107
1659520321.902539,12141
1659520321.944013,12201
1659520321.983268,12246
1659520322.022524,12302
1659520322.061779,12359
1659520322.102741,12408
1659520322.143703,12473
1659520322.182617,12516
1659520322.221531,12566
1659520322.260445,12619
1659520322.302943,12672
1659520322.345441,12716
1659520322.384697,12717
1659520322.423952,12616
1659520322.463207,12455
1659520322.507241,12368
1659520322.551276,12300
1659520322.59531,12241
1659520322.637296,12216
1659520322.679282,12222
1659520322.718537,12228
1659520322.757793,12237
1659520322.797048,12245
1659520322.838522,12261
1659520322.879996,12310
1659520322.918569,12343
1659520322.957141,12376
1659520322.995714,12428
1659520323.034286,12480
1659520323.072859,12527
1659520323.111432,12590
1659520323.151882,12634
1659520323.192332,12678
1659520323.230904,12733
1659520323.269477,12777
1659520323.308049,12836
1659520323.350036,12876
1659520323.392022,12848
1659520323.430594,12703
1659520323.469167,12559
1659520323.50774,12463
1659520323.546654,12399
1659520323.585567,12342
1659520323.624481,12302
1659520323.666467,12315
1659520323.708453,12308
1659520323.747026,12304
1659520323.785599,12317
1659520323.824171,12348
1659520323.866157,12395
1659520323.908144,12439
1659520323.95286,12489
1659520323.997577,12548
1659520324.042294,12592
1659520324.074552,12652
1659520324.106809,12704
1659520324.150844,12749
1659520324.194878,12799
1659520324.238912,12831
1659520324.272706,12864
1659520324.306499,12898
1659520324.350534,12902
1659520324.394568,12791
1659520324.438602,12585
1659520324.477175,12409
1659520324.515747,12302
1659520324.55432,12258
1659520324.596306,12267
1659520324.638292,12308
1659520324.677206,12352
1659520324.71612,12372
1659520324.755034,12401
1659520324.79702,12421
1659520324.839006,12477
1659520324.878261,12512
1659520324.917517,12569
1659520324.956772,12627
1659520324.995686,12679
1659520325.0346,12739
1659520325.073514,12786
1659520325.114476,12846
1659520325.155438,12903
1659520325.194693,12969
1659520325.233948,13015
1659520325.273204,13066
1659520325.314678,13109
1659520325.356152,13080
1659520325.394725,12926
1659520325.433297,12812
1659520325.47187,12748
1659520325.513344,12692
1659520325.554818,12650
1659520325.594756,12643
1659520325.634694,12656
1659520325.674632,12673
1659520325.716106,12667
1659520325.75758,12695
1659520325.795811,12708
1659520325.834043,12746
1659520325.872274,12777
1659520325.916991,12821
1659520325.961708,12875
1659520326.006424,12926
1659520326.043546,12979
1659520326.080668,13047
1659520326.11779,13116
1659520326.154912,13178
1659520326.198946,13246
1659520326.24298,13304
1659520326.287014,13343
1659520326.320296,13326
1659520326.353578,13172
1659520326.397271,13034
1659520326.440964,12959
1659520326.484656,12906
1659520326.523912,12854
1659520326.563167,12855
1659520326.602422,12886
1659520326.643896,12909
1659520326.68537,12940
1659520326.723602,12959
1659520326.761833,13001
1659520326.800064,13048
1659520326.841538,13081
1659520326.883012,13128
1659520326.922609,13171
1659520326.962206,13222
1659520327.001802,13258
1659520327.040034,13304
1659520327.078265,13340
1659520327.116496,13378
1659520327.158482,13416
1659520327.200468,13457
1659520327.239041,13488
1659520327.277613,13425
1659520327.316186,13255
1659520327.354417,13121
1659520327.392648,13052
1659520327.43088,12982
1659520327.475597,12937
1659520327.520314,12938
1659520327.56503,12960
1659520327.607528,12967
1659520327.650027,12985
1659520327.687917,13009
1659520327.725806,13042
1659520327.763696,13095
1659520327.803293,13131
1659520327.84289,13180
1659520327.882486,13221
1659520327.92396,13259
1659520327.965435,13295
1659520328.004349,13334
1659520328.043262,13371
1659520328.082176,13397
1659520328.124674,13437
1659520328.167173,13457
1659520328.206428,13459
1659520328.245683,13328
1659520328.284938,13128
1659520328.32317,12964
1659520328.361401,12855
1659520328.399632,12758
1659520328.441106,12680
1659520328.48258,12677
1659520328.521836,12695
1659520328.561091,12716
1659520328.600346,12759
1659520328.640796,12802
1659520328.681246,12881
1659520328.719819,12951
1659520328.758391,13020
1659520328.796964,13106
1659520328.83895,13183
1659520328.880936,13259
1659520328.91985,13320
1659520328.958764,13382
1659520328.997678,13435
1659520329.039152,13482
1659520329.080626,13520
1659520329.125343,13558
1659520329.17006,13569
1659520329.214777,13503
1659520329.25335,13324
1659520329.291922,13188
1659520329.330495,13116
1659520329.371969,13057
1659520329.413443,13025
1659520329.45304,13026
1659520329.492636,13035
1659520329.532233,13038
1659520329.572683,13045
1659520329.613133,13048
1659520329.651706,13094
1659520329.690278,13153
1659520329.728851,13216
1659520329.767423,13278
1659520329.805996,13340
1659520329.844568,13389
1659520329.886554,13441
1659520329.928541,13479
1659520329.967113,13513
1659520330.005686,13544
1659520330.044258,13582
1659520330.083172,13610
1659520330.122086,13586
1659520330.161,13410
1659520330.202986,13191
1659520330.244972,13022
1659520330.283204,12915
1659520330.321435,12821
1659520330.359666,12742
1659520330.401652,12721
1659520330.443638,12723
1659520330.486137,12705
1659520330.528635,12681
1659520330.566866,12693
1659520330.605097,12723
1659520330.643328,12757
1659520330.687704,12789
1659520330.73208,12827
1659520330.776455,12880
1659520330.810761,12929
1659520330.845067,12983
1659520330.889101,13032
1659520330.933135,13097
1659520330.977169,13129
1659520331.015742,13173
1659520331.054314,13200
1659520331.092887,13148
1659520331.134873,12923
1659520331.176859,12639
1659520331.215773,12419
1659520331.254687,12239
1659520331.293601,12100
1659520331.332515,12048
1659520331.371429,12052
1659520331.410343,12050
1659520331.450281,12031
1659520331.490219,12033
1659520331.530157,12047
1659520331.574532,12073
1659520331.618908,12120
1659520331.663283,12180
1659520331.696053,12228
1659520331.728823,12287
1659520331.77354,12331
1659520331.818257,12380
1659520331.862973,12451
1659520331.900863,12508
1659520331.938753,12564
1659520331.976643,12624
1659520332.015557,12681
1659520332.054471,12650
1659520332.093385,12479
1659520332.135883,12292
1659520332.178381,12158
1659520332.216612,12063
1659520332.254844,11967
1659520332.293075,11929
1659520332.335061,11905
1659520332.377047,11885
1659520332.415961,11872
1659520332.454875,11865
1659520332.493789,11879
1659520332.532362,11894
1659520332.570934,11934
1659520332.609507,11958
1659520332.651493,12013
1659520332.693479,12056
1659520332.734441,12110
1659520332.775403,12173
1659520332.813634,12221
1659520332.851866,12265
1659520332.890097,12296
1659520332.934472,12341
1659520332.978848,12332
1659520333.023223,12169
1659520333.057017,11941
1659520333.090811,11792
1659520333.134845,11690
1659520333.178879,11610
1659520333.222914,11578
1659520333.261486,11592
1659520333.300059,11622
1659520333.338631,11636
1659520333.380617,11663
1659520333.422603,11698
1659520333.461176,11741
1659520333.499749,11808
1659520333.538321,11851
1659520333.580819,11922
1659520333.623317,11983
1659520333.662573,12039
1659520333.701828,12101
1659520333.741083,12154
1659520333.782557,12215
1659520333.824032,12275
1659520333.862263,12332
1659520333.900494,12319
1659520333.938725,12163
1659520333.978322,11970
1659520334.017919,11836
1659520334.057515,11760
1659520334.098477,11686
1659520334.139439,11668
1659520334.178012,11691
1659520334.216584,11711
1659520334.255157,11700
1659520334.296631,11697
1659520334.338105,11720
1659520334.377702,11749
1659520334.417299,11795
1659520334.456895,11841
1659520334.497857,11882
1659520334.538819,11925
1659520334.577733,11970
1659520334.616647,12005
1659520334.655561,12059
1659520334.697547,12104
1659520334.739533,12169
1659520334.783909,12234
1659520334.828285,12183
1659520334.87266,11994
1659520334.911915,11811
1659520334.951171,11694
1659520334.990426,11596
1659520335.0319,11521
1659520335.073374,11512
1659520335.111605,11549
1659520335.149837,11590
1659520335.188068,11603
1659520335.22664,11634
1659520335.265213,11681
1659520335.303786,11719
1659520335.345772,11778
1659520335.387758,11837
1659520335.42633,11896
1659520335.464903,11947
1659520335.503475,12009
1659520335.54495,12066
1659520335.586424,12123
1659520335.625679,12175
1659520335.664934,12224
1659520335.70419,12251
1659520335.742762,12162
1659520335.781335,11910
1659520335.819907,11683
1659520335.861382,11556
1659520335.902855,11449
1659520335.942452,11399
1659520335.982049,11396
1659520336.021646,11403
1659520336.062095,11417
1659520336.102545,11411
1659520336.140435,11429
1659520336.178325,11470
1659520336.216215,11531
1659520336.259225,11590
1659520336.302236,11653
1659520336.346611,11717
1659520336.390987,11765
1659520336.435362,11832
1659520336.474686,11882
1659520336.514009,11938
1659520336.553333,11995
1659520336.592656,12045
1659520336.63198,12036
1659520336.671235,11865
1659520336.71049,11652
1659520336.749746,11503
1659520336.787977,11399
1659520336.826208,11322
1659520336.86444,11308
1659520336.90745,11351
1659520336.95046,11375
1659520336.989374,11390
1659520337.028288,11405
1659520337.067202,11444
1659520337.108164,11503
1659520337.149126,11576
1659520337.188381,11655
1659520337.227636,11722
1659520337.266892,11790
1659520337.30939,11859
1659520337.351888,11934
1659520337.390119,12004
1659520337.42835,12067
1659520337.466582,12122
1659520337.505496,12186
1659520337.54441,12231
1659520337.583323,12160
1659520337.624798,11950
1659520337.666272,11755
1659520337.705186,11634
1659520337.7441,11534
1659520337.783014,11458
1659520337.824488,11437
1659520337.865962,11451
1659520337.91102,11453
1659520337.956078,11469
1659520338.001137,11488
1659520338.033394,11530
1659520338.065652,11576
1659520338.110368,11626
1659520338.155086,11666
1659520338.199802,11734
1659520338.233596,11779
1659520338.26739,11831
1659520338.311083,11891
1659520338.354775,11951
1659520338.398468,12003
1659520338.437041,12062
1659520338.475614,12133
1659520338.514186,12182
1659520338.552759,12123
1659520338.591331,11894
1659520338.629904,11624
1659520338.671378,11404
1659520338.712852,11216
1659520338.751425,11088
1659520338.789997,11057
1659520338.82857,11079
1659520338.870556,11111
1659520338.912542,11115
1659520338.951456,11141
1659520338.99037,11185
1659520339.029284,11263
1659520339.067857,11338
1659520339.106429,11428
1659520339.145002,11503
1659520339.186988,11562
1659520339.228974,11629
1659520339.270448,11665
1659520339.311922,11700
1659520339.350836,11737
1659520339.38975,11788
1659520339.428664,11840
1659520339.473039,11904
1659520339.517415,11979
1659520339.56179,11973
1659520339.595584,11813
1659520339.629378,11607
1659520339.673071,11502
1659520339.716764,11443
1659520339.760457,11388
1659520339.793226,11371
1659520339.825996,11414
1659520339.870371,11411
1659520339.914747,11405
1659520339.959122,11425
1659520339.998036,11462
1659520340.03695,11516
1659520340.075864,11572
1659520340.115119,11629
1659520340.154375,11685
1659520340.19363,11732
1659520340.236128,11784
1659520340.278626,11829
1659520340.317199,11858
1659520340.355772,11881
1659520340.394344,11915
1659520340.435818,11949
1659520340.477292,11988
1659520340.516548,12006
1659520340.555803,11888
1659520340.595058,11597
1659520340.633631,11331
1659520340.672204,11202
1659520340.710776,11111
1659520340.751738,11050
1659520340.7927,11054
1659520340.834686,11088
1659520340.876672,11131
1659520340.914904,11174
1659520340.953135,11218
1659520340.991366,11275
1659520341.035742,11339
1659520341.080117,11394
1659520341.124493,11464
1659520341.158798,11513
1659520341.193104,11558
1659520341.237138,11593
1659520341.281173,11617
1659520341.325207,11648
1659520341.357976,11709
1659520341.390746,11743
1659520341.435804,11778
1659520341.480863,11809
1659520341.525921,11721
1659520341.564835,11440
1659520341.603749,11191
1659520341.642663,11046
1659520341.683113,10948
1659520341.723563,10873
1659520341.763296,10884
1659520341.803029,10932
1659520341.842762,10970
1659520341.882495,11001
1659520341.922229,11029
1659520341.963703,11083
1659520342.005177,11150
1659520342.043749,11214
1659520342.082322,11287
1659520342.120895,11342
1659520342.162881,11414
1659520342.204867,11499
1659520342.243098,11558
1659520342.281329,11633
1659520342.319561,11715
1659520342.359157,11812
1659520342.398754,11887
1659520342.43835,11855
1659520342.479825,11661
1659520342.521299,11491
1659520342.559871,11411
1659520342.598444,11370
1659520342.637016,11339
1659520342.67593,11322
1659520342.714844,11308
1659520342.753758,11306
1659520342.796256,11305
1659520342.838754,11337
1659520342.876986,11396
1659520342.915217,11476
1659520342.953448,11533
1659520342.994922,11601
1659520343.036396,11657
1659520343.07787,11724
1659520343.119344,11792
1659520343.1586,11868
1659520343.197855,11935
1659520343.23711,12013
1659520343.281486,12096
1659520343.325861,12149
1659520343.370237,12087
1659520343.403519,11905
1659520343.4368,11813
1659520343.481176,11789
1659520343.525552,11775
1659520343.569927,11771
1659520343.603721,11817
1659520343.637514,11853
1659520343.682231,11870
1659520343.726948,11895
1659520343.771665,11918
1659520343.810579,11964
1659520343.849493,12005
1659520343.888407,12040
1659520343.929369,12075
1659520343.970331,12124
1659520344.009245,12176
1659520344.048159,12222
1659520344.087073,12285
1659520344.129059,12348
1659520344.171045,12401
1659520344.209618,12470
1659520344.24819,12488
1659520344.286763,12352
1659520344.325336,12132
1659520344.363908,11986
1659520344.402481,11920
1659520344.443955,11860
1659520344.485429,11830
1659520344.524343,11862
1659520344.563257,11908
1659520344.602171,11935
1659520344.644157,11976
1659520344.686143,12022
1659520344.725398,12068
1659520344.764653,12131
1659520344.803909,12180
1659520344.845383,12232
1659520344.886857,12288
1659520344.924747,12339
1659520344.962637,12379
1659520345.000527,12434
1659520345.043537,12484
1659520345.086547,12550
1659520345.13024,12605
1659520345.173933,12627
1659520345.217625,12505
1659520345.256198,12268
1659520345.294771,12084
1659520345.333343,11980
1659520345.374305,11910
1659520345.415267,11865
1659520345.454523,11868
1659520345.493778,11901
1659520345.533033,11901
1659520345.571606,11898
1659520345.610178,11909
1659520345.648751,11923
1659520345.691249,11954
1659520345.733747,11984
1659520345.772661,12018
1659520345.811575,12043
1659520345.850489,12083
1659520345.891963,12126
1659520345.933437,12173
1659520345.973034,12211
1659520346.01263,12274
1659520346.052227,12338
1659520346.094213,12325
1659520346.136199,12136
1659520346.174089,11879
1659520346.211979,11696
1659520346.249869,11586
1659520346.289124,11496
1659520346.32838,11417
1659520346.367635,11388
1659520346.408597,11349
1659520346.449559,11294
1659520346.488814,11262
1659520346.52807,11246
1659520346.567325,11255
1659520346.608799,11263
1659520346.650273,11273
1659520346.695331,11284
1659520346.74039,11310
1659520346.785448,11352
1659520346.817705,11388
1659520346.849963,11452
1659520346.89468,11520
1659520346.939397,11590
1659520346.984114,11639
1659520347.024257,11556
1659520347.064399,11332
1659520347.104542,11142
1659520347.144685,11037
1659520347.184828,10941
1659520347.217597,10871
1659520347.250367,10853
1659520347.295084,10868
1659520347.339801,10867
1659520347.384518,10858
1659520347.425992,10865
1659520347.467466,10891
1659520347.506039,10947
1659520347.544611,11005
1659520347.583184,11075
1659520347.621756,11120
1659520347.660329,11182
1659520347.698902,11244
1659520347.739864,11305
1659520347.780826,11381
1659520347.81974,11442
1659520347.858654,11484
1659520347.897568,11366
1659520347.939554,11152
1659520347.98154,10963
1659520348.020112,10841
1659520348.058685,10727
1659520348.097258,10632
1659520348.136171,10600
1659520348.175085,10583
1659520348.213999,10553
1659520348.256497,10557
1659520348.298995,10623
1659520348.337568,10713
1659520348.376141,10796
1659520348.414713,10887
1659520348.455163,10961
1659520348.495613,11018
1659520348.534527,11059
1659520348.573441,11087
1659520348.612355,11117
1659520348.654341,11165
1659520348.696327,11125
1659520348.7349,10898
1659520348.773473,10625
1659520348.812045,10421
1659520348.853519,10255
1659520348.894993,10076
1659520348.940052,9985
1659520348.98511,9968
1659520349.030168,9939
1659520349.068741,9908
1659520349.107313,9889
1659520349.145886,9909
1659520349.188384,9940
1659520349.230882,9998
1659520349.269796,10047
1659520349.30871,10096
1659520349.347624,10161
1659520349.388586,10224
1659520349.429548,10276
1659520349.468121,10334
1659520349.506693,10409
1659520349.545266,10461
1659520349.584521,10486
1659520349.623776,10337
1659520349.663032,10079
1659520349.704506,9897
1659520349.74598,9754
1659520349.784553,9621
1659520349.823125,9551
1659520349.861698,9538
1659520349.900953,9545
1659520349.940208,9541
1659520349.979464,9545
1659520350.020426,9577
1659520350.061388,9641
1659520350.09996,9689
1659520350.138533,9751
1659520350.177106,9806
1659520350.220116,9872
1659520350.263126,9947
1659520350.30716,10012
1659520350.351194,10088
1659520350.395228,10148
1659520350.427998,10229
1659520350.460768,10301
1659520350.505143,10376
1659520350.549519,10433
1659520350.593894,10394
1659520350.632808,10161
1659520350.671722,9901
1659520350.710636,9723
1659520350.75211,9595
1659520350.793584,9497
1659520350.832498,9472
1659520350.871412,9511
1659520350.910326,9531
1659520350.948557,9512
1659520350.986789,9518
1659520351.02502,9540
1659520351.065982,9586
1659520351.106944,9651
1659520351.146541,9713
1659520351.186137,9781
1659520351.225734,9862
1659520351.267208,9925
1659520351.308682,9986
1659520351.346913,10049
1659520351.385145,10120
1659520351.423376,10187
1659520351.462631,10259
1659520351.501886,10325
1659520351.541142,10399
1659520351.583128,10465
1659520351.625114,10396
1659520351.663345,10147
1659520351.701576,9915
1659520351.739808,9778
1659520351.781282,9658
1659520351.822756,9574
1659520351.867131,9565
1659520351.911507,9601
1659520351.955883,9619
1659520351.988652,9623
1659520352.021422,9633
1659520352.066139,9680
1659520352.110856,9734
1659520352.155572,9801
1659520352.188854,9879
1659520352.222136,9950
1659520352.262279,10021
1659520352.302422,10108
1659520352.342564,10198
1659520352.382707,10284
1659520352.42285,10357
1659520352.464836,10436
1659520352.506822,10519
1659520352.551539,10590
1659520352.596256,10661
1659520352.640973,10673
1659520352.679887,10490
1659520352.718801,10206
1659520352.757715,10013
1659520352.799189,9851
1659520352.840663,9719
1659520352.879577,9658
1659520352.918491,9667
1659520352.957405,9672
1659520352.995977,9656
1659520353.03455,9655
1659520353.073123,9662
1659520353.114597,9711
1659520353.15607,9744
1659520353.194302,9797
1659520353.232533,9864
1659520353.270764,9918
1659520353.31275,9980
1659520353.354737,10041
1659520353.393992,10102
1659520353.433247,10160
1659520353.472502,10227
1659520353.511075,10289
1659520353.549648,10361
1659520353.58822,10417
1659520353.629182,10362
1659520353.670144,10117
1659520353.709058,9860
1659520353.747972,9726
1659520353.786886,9643
1659520353.828872,9586
1659520353.870858,9603
1659520353.909431,9663
1659520353.948004,9718
1659520353.986576,9739
1659520354.027538,9768
1659520354.0685,9799
1659520354.112535,9842
1659520354.156569,9899
1659520354.200603,9965
1659520354.238834,10037
1659520354.277065,10112
1659520354.315297,10181
1659520354.357283,10249
1659520354.399269,10334
1659520354.438183,10390
1659520354.477097,10457
1659520354.516011,10530
1659520354.557485,10603
1659520354.598959,10659
1659520354.637873,10618
1659520354.676787,10411
1659520354.715701,10229
1659520354.758199,10160
1659520354.800697,10094
1659520354.839952,10041
1659520354.879207,10044
1659520354.918463,10087
1659520354.956694,10113
1659520354.994925,10132
1659520355.033156,10168
1659520355.07463,10227
1659520355.116105,10295
1659520355.154677,10357
1659520355.19325,10431
1659520355.231822,10495
1659520355.270736,10568
1659520355.30965,10645
1659520355.348564,10700
1659520355.39055,10772
1659520355.432536,10842
1659520355.474523,10912
1659520355.516509,10986
1659520355.55474,11055
1659520355.592971,11054
1659520355.631202,10891
1659520355.673701,10688
1659520355.716199,10553
1659520355.755454,10464
1659520355.794709,10385
1659520355.833965,10328
1659520355.87834,10335
1659520355.922716,10347
1659520355.967091,10327
1659520356.000373,10316
1659520356.033654,10346
1659520356.078372,10348
1659520356.123088,10402
1659520356.167805,10461
1659520356.209279,10509
1659520356.250753,10575
1659520356.289326,10637
1659520356.327899,10697
1659520356.366471,10746
1659520356.405726,10802
1659520356.444982,10846
1659520356.484237,10892
1659520356.524687,10925
1659520356.565137,10812
1659520356.604392,10621
1659520356.643648,10493
1659520356.682903,10444
1659520356.724889,10400
1659520356.766875,10369
1659520356.805106,10383
1659520356.843338,10404
1659520356.881569,10426
1659520356.920483,10437
1659520356.959397,10466
1659520356.998311,10509
1659520357.040297,10560
1659520357.082283,10615
1659520357.120856,10672
1659520357.159428,10722
1659520357.198001,10779
1659520357.238963,10836
1659520357.279925,10886
1659520357.318839,10956
1659520357.357753,11000
1659520357.396667,11063
1659520357.438141,11119
1659520357.479615,11146
1659520357.519348,11036
1659520357.559081,10815
1659520357.598814,10679
1659520357.638548,10593
1659520357.678281,10548
1659520357.719755,10506
1659520357.761229,10523
1659520357.800143,10556
1659520357.839057,10563
1659520357.877971,10578
1659520357.919957,10599
1659520357.961943,10644
1659520358.000857,10706
1659520358.039771,10759
1659520358.078685,10822
1659520358.123402,10872
1659520358.168119,10935
1659520358.212836,11020
1659520358.246629,11110
1659520358.280423,11198
1659520358.32514,11281
1659520358.369857,11373
1659520358.414574,11438
1659520358.452805,11494
1659520358.491036,11525
1659520358.529267,11429
1659520358.570741,11205
1659520358.612216,11041
1659520358.650788,10941
1659520358.689361,10869
1659520358.727933,10808
1659520358.770432,10795
1659520358.81293,10819
1659520358.851844,10834
1659520358.890757,10850
1659520358.929671,10876
1659520358.968927,10931
1659520359.008182,10969
1659520359.047437,11025
1659520359.088911,11083
1659520359.130385,11129
1659520359.169299,11180
1659520359.208213,11235
1659520359.247127,11287
1659520359.289625,11344
1659520359.332124,11402
1659520359.371037,11453
1659520359.409951,11521
1659520359.448865,11568
1659520359.489315,11537
1659520359.529765,11382
1659520359.568679,11176
1659520359.607593,11075
1659520359.646507,11014
1659520359.688493,10965
1659520359.730479,10942
1659520359.768369,10961
1659520359.806259,10991
1659520359.844149,10996
1659520359.888183,11020
1659520359.932218,11046
1659520359.976252,11094
1659520360.018238,11150
1659520360.060224,11197
1659520360.098797,11256
1659520360.137369,11305
1659520360.175942,11359
1659520360.214856,11398
1659520360.25377,11465
1659520360.292684,11504
1659520360.335182,11550
1659520360.37768,11599
1659520360.415911,11644
1659520360.454142,11603
1659520360.492373,11415
1659520360.533848,11232
1659520360.575322,11122
1659520360.614577,11061
1659520360.653832,11009
1659520360.693088,10993
1659520360.73166,11020
1659520360.770233,11034
1659520360.808805,11034
1659520360.850791,11044
1659520360.892778,11066
1659520360.93135,11112
1659520360.969923,11157
1659520361.008495,11195
1659520361.049457,11236
1659520361.09042,11275
1659520361.129675,11313
1659520361.16893,11364
1659520361.208185,11404
1659520361.250171,11454
1659520361.292158,11513
1659520361.336533,11567
1659520361.380909,11618
1659520361.425284,11547
1659520361.458566,11360
1659520361.491848,11223
1659520361.536564,11138
1659520361.581281,11069
1659520361.625998,11004
1659520361.65928,10991
1659520361.692562,11000
1659520361.736596,10993
1659520361.78063,10998
1659520361.824664,11026
1659520361.863919,11068
1659520361.903175,11127
1659520361.94243,11150
1659520361.983392,11193
1659520362.024354,11245
1659520362.063609,11290
1659520362.102865,11347
1659520362.14212,11415
1659520362.184106,11486
1659520362.226092,11566
1659520362.265006,11668
1659520362.30392,11753
1659520362.342834,11823
1659520362.381407,11790
1659520362.419979,11681
1659520362.458552,11648
1659520362.50105,11630
1659520362.543548,11605
1659520362.582121,11591
1659520362.620693,11625
1659520362.659266,11649
1659520362.697839,11652
1659520362.736411,11643
1659520362.774984,11647
1659520362.816458,11677
1659520362.857932,11704
1659520362.899406,11735
1659520362.94088,11765
1659520362.979111,11792
1659520363.017343,11806
1659520363.055574,11813
1659520363.096536,11823
1659520363.137498,11842
1659520363.17607,11878
1659520363.214643,11895
1659520363.253216,11894
1659520363.295202,11764
1659520363.337188,11527
1659520363.376921,11327
1659520363.416654,11181
1659520363.456388,11084
1659520363.496121,11007
1659520363.535854,11001
1659520363.577328,11015
1659520363.618802,11038
1659520363.658057,11063
1659520363.697313,11089
1659520363.736568,11142
1659520363.778042,11192
1659520363.819516,11247
1659520363.85843,11298
1659520363.897344,11354
1659520363.936258,11409
1659520363.979951,11449
1659520364.023643,11497
1659520364.067336,11535
1659520364.10113,11579
1659520364.134924,11609
1659520364.179299,11647
1659520364.223675,11663
1659520364.26805,11523
1659520364.306623,11333
1659520364.345196,11192
1659520364.383768,11112
1659520364.425754,11038
1659520364.46774,10980
1659520364.506996,10964
1659520364.546251,10981
1659520364.585506,10967
1659520364.627492,10960
1659520364.669478,10984
1659520364.708392,11010
1659520364.747306,11062
1659520364.78622,11087
1659520364.828207,11134
1659520364.870193,11155
1659520364.908765,11194
1659520364.947338,11237
1659520364.98591,11274
1659520365.024483,11314
1659520365.063056,11356
1659520365.101628,11403
1659520365.144638,11412
1659520365.187648,11289
1659520365.225538,11080
1659520365.263428,10928
1659520365.301318,10848
1659520365.341768,10768
1659520365.382218,10735
1659520365.421815,10734
1659520365.461411,10739
1659520365.501008,10736
1659520365.542482,10732
1659520365.583956,10756
1659520365.622529,10790
1659520365.661101,10826
1659520365.699674,10871
1659520365.74166,10922
1659520365.783646,10955
1659520365.828363,10988
1659520365.87308,11025
1659520365.917797,11065
1659520365.955687,11103
1659520365.993577,11143
1659520366.031467,11162
1659520366.073965,11061
1659520366.116463,10827
1659520366.155035,10581
1659520366.193608,10426
1659520366.232181,10294
1659520366.270412,10164
1659520366.308643,10112
1659520366.346874,10108
1659520366.388349,10103
1659520366.429822,10095
1659520366.468395,10108
1659520366.506968,10142
1659520366.54554,10191
1659520366.587014,10247
1659520366.628489,10302
1659520366.667744,10357
1659520366.706999,10432
1659520366.746254,10482
1659520366.784827,10548
1659520366.8234,10598
1659520366.861972,10641
1659520366.902934,10702
1659520366.943896,10724
1659520366.983493,10662
1659520367.02309,10415
1659520367.062686,10154
1659520367.104672,9984
1659520367.146658,9859
1659520367.190351,9753
1659520367.234044,9709
1659520367.277737,9735
1659520367.316992,9750
1659520367.356248,9750
1659520367.395503,9763
1659520367.436465,9786
1659520367.477427,9842
1659520367.516682,9893
1659520367.555938,9954
1659520367.595193,10024
1659520367.634107,10088
1659520367.673021,10149
1659520367.711935,10221
1659520367.753921,10268
1659520367.795907,10328
1659520367.83448,10391
1659520367.873052,10446
1659520367.911625,10517
1659520367.954123,10547
1659520367.996621,10458
1659520368.036559,10209
1659520368.076497,10019
1659520368.116435,9906
1659520368.156373,9804
1659520368.196311,9738
1659520368.234884,9731
1659520368.273456,9757
1659520368.312029,9748
1659520368.350943,9749
1659520368.389857,9750
1659520368.428771,9796
1659520368.470757,9830
1659520368.512743,9870
1659520368.553705,9931
1659520368.594667,9988
1659520368.63324,10052
1659520368.671812,10122
1659520368.710385,10202
1659520368.75476,10279
1659520368.799136,10348
1659520368.843511,10407
1659520368.877305,10466
1659520368.911099,10544
1659520368.955816,10603
1659520369.000532,10579
1659520369.045249,10373
1659520369.078531,10187
1659520369.111813,10092
1659520369.155847,10005
1659520369.199881,9924
1659520369.243915,9905
1659520369.282488,9936
1659520369.32106,9945
1659520369.359633,9953
1659520369.401619,9959
1659520369.443605,9994
1659520369.482178,10054
1659520369.520751,10115
1659520369.559323,10184
1659520369.597896,10241
1659520369.636468,10314
1659520369.675041,10380
1659520369.716515,10452
1659520369.757989,10519
1659520369.79622,10576
1659520369.834451,10638
1659520369.872683,10694
1659520369.914669,10751
1659520369.956655,10820
1659520369.996252,10850
1659520370.035848,10738
1659520370.075445,10553
1659520370.116407,10436
1659520370.157369,10378
1659520370.196283,10311
1659520370.235197,10272
1659520370.274111,10296
1659520370.317121,10346
1659520370.360131,10381
1659520370.398704,10412
1659520370.437276,10460
1659520370.475849,10518
1659520370.516811,10573
1659520370.557773,10635
1659520370.597028,10684
1659520370.636284,10736
1659520370.675539,10782
1659520370.719573,10836
1659520370.763607,10882
1659520370.807642,10932
1659520370.849628,10997
1659520370.891614,11058
1659520370.930869,11143
1659520370.970124,11200
1659520371.00938,11199
1659520371.050854,11052
1659520371.092328,10905
1659520371.130559,10861
1659520371.16879,10841
1659520371.207021,10830
1659520371.246959,10849
1659520371.286897,10910
1659520371.326835,10951
1659520371.368309,10995
1659520371.409784,11011
1659520371.448356,11039
1659520371.486929,11085
1659520371.525501,11127
1659520371.566976,11178
1659520371.60845,11233
1659520371.647705,11284
1659520371.68696,11334
1659520371.726216,11380
1659520371.764447,11424
1659520371.802678,11474
1659520371.840909,11511
1659520371.882383,11559
1659520371.923857,11618
1659520371.962089,11639
1659520372.00032,11529
1659520372.038551,11336
1659520372.080537,11200
1659520372.122523,11140
1659520372.161437,11095
1659520372.200351,11070
1659520372.239265,11080
1659520372.281251,11114
1659520372.323237,11121
1659520372.367272,11138
1659520372.411306,11156
1659520372.45534,11200
1659520372.489134,11254
1659520372.522927,11316
1659520372.567644,11370
1659520372.612361,11424
1659520372.657078,11493
1659520372.695309,11523
1659520372.733541,11571
1659520372.771772,11612
1659520372.813246,11659
1659520372.85472,11708
1659520372.893634,11717
1659520372.932548,11600
1659520372.971462,11433
1659520373.009693,11354
1659520373.047924,11314
1659520373.086155,11285
1659520373.128142,11289
1659520373.170128,11311
1659520373.2087,11328
1659520373.247273,11325
1659520373.285846,11342
1659520373.327576,11373
1659520373.369306,11417
1659520373.411036,11452
1659520373.452766,11491
1659520373.494752,11532
1659520373.536738,11577
1659520373.575652,11623
1659520373.614566,11655
1659520373.65348,11697
1659520373.692394,11749
1659520373.731308,11795
1659520373.770222,11785
1659520373.81272,11636
1659520373.855218,11457
1659520373.894473,11336
1659520373.933728,11276
1659520373.972984,11204
1659520374.013434,11171
1659520374.053884,11189
1659520374.092457,11206
1659520374.131029,11211
1659520374.169602,11219
1659520374.208857,11241
1659520374.248112,11283
1659520374.287368,11331
1659520374.328842,11371
1659520374.370316,11425
1659520374.41179,11473
1659520374.453264,11521
1659520374.492519,11569
1659520374.531775,11631
1659520374.57103,11678
1659520374.615064,11728
1659520374.659098,11767
1659520374.703132,11704
1659520374.736414,11512
1659520374.769696,11353
1659520374.814413,11264
1659520374.859129,11202
1659520374.903847,11144
1659520374.936616,11145
1659520374.969386,11154
1659520375.01342,11162
1659520375.057454,11145
1659520375.101488,11148
1659520375.140061,11187
1659520375.178633,11224
1659520375.217206,11287
1659520375.259192,11330
1659520375.301178,11386
1659520375.339068,11449
1659520375.376958,11501
1659520375.414848,11545
1659520375.454445,11600
1659520375.494041,11663
1659520375.533638,11715
1659520375.575112,11782
1659520375.616586,11736
1659520375.654817,11551
1659520375.693048,11395
1659520375.73128,11300
1659520375.773778,11229
1659520375.816276,11160
1659520375.85519,11139
1659520375.894104,11136
1659520375.933018,11138
1659520375.97398,11120
1659520376.014942,11115
1659520376.053856,11129
1659520376.09277,11140
1659520376.131684,11162
1659520376.17367,11177
1659520376.215656,11211
1659520376.253887,11252
1659520376.292119,11300
1659520376.33035,11350
1659520376.375067,11386
1659520376.419784,11436
1659520376.4645,11466
1659520376.49727,11433
1659520376.53004,11254
1659520376.574074,11064
1659520376.618108,10955
1659520376.662142,10873
1659520376.704641,10809
1659520376.747139,10789
1659520376.786394,10817
1659520376.825649,10829
1659520376.864905,10844
1659520376.903477,10838
1659520376.94205,10871
1659520376.980622,10923
1659520377.022609,10965
1659520377.064595,11022
1659520377.104191,11084
1659520377.143788,11141
1659520377.183384,11201
1659520377.223835,11263
1659520377.264285,11306
1659520377.302857,11361
1659520377.34143,11429
1659520377.380002,11481
1659520377.418916,11470
1659520377.45783,11300
1659520377.496744,11131
1659520377.538218,11030
1659520377.579692,10962
1659520377.618265,10909
1659520377.656837,10900
1659520377.69541,10921
1659520377.737396,10918
1659520377.779382,10904
1659520377.817955,10890
1659520377.856528,10910
1659520377.8951,10946
1659520377.937086,10992
1659520377.979072,11041
1659520378.017986,11088
1659520378.0569,11151
1659520378.095814,11203
1659520378.137288,11256
1659520378.178762,11309
1659520378.222796,11357
1659520378.266831,11423
1659520378.310865,11484
1659520378.349779,11523
1659520378.388693,11455
1659520378.427607,11294
1659520378.469081,11144
1659520378.510555,11079
1659520378.547165,11012
1659520378.583775,10959
1659520378.620384,10966
1659520378.656994,10958
1659520378.696591,10948
1659520378.736187,10939
1659520378.775784,10949
1659520378.819818,10970
1659520378.863853,11015
1659520378.907887,11061
1659520378.949361,11096
1659520378.990835,11145
1659520379.029749,11187
1659520379.068663,11237
1659520379.107577,11273
1659520379.149563,11322
1659520379.191549,11376
1659520379.230463,11432
1659520379.269377,11484
1659520379.308291,11530
1659520379.347205,11489
1659520379.386119,11288
1659520379.425033,11071
1659520379.466507,10910
1659520379.507981,10814
1659520379.546212,10713
1659520379.584443,10662
1659520379.622674,10681
1659520379.665173,10689
1659520379.707671,10696
1659520379.746926,10708
1659520379.786181,10751
1659520379.825437,10791
1659520379.863327,10844
1659520379.901217,10902
1659520379.939106,10949
1659520379.981604,10999
1659520380.024102,11058
1659520380.063016,11116
1659520380.10193,11178
1659520380.140844,11255
1659520380.182318,11322
1659520380.223793,11379
1659520380.268509,11458
1659520380.313226,11521
1659520380.357943,11478
1659520380.391737,11308
1659520380.425531,11151
1659520380.469565,11057
1659520380.513599,10999
1659520380.557633,10942
1659520380.591427,10931
1659520380.625221,10965
1659520380.669938,10973
1659520380.714654,10986
1659520380.759371,10997
1659520380.797261,11033
1659520380.835151,11083
1659520380.873041,11140
1659520380.914003,11189
1659520380.954965,11246
1659520380.994562,11308
1659520381.034158,11367
1659520381.073755,11427
1659520381.115229,11477
1659520381.156703,11532
1659520381.195617,11584
1659520381.234531,11642
1659520381.273445,11694
1659520381.312359,11652
1659520381.351273,11489
1659520381.390187,11319
1659520381.431661,11229
1659520381.473135,11140
1659520381.511366,11083
1659520381.549598,11074
1659520381.587829,11086
1659520381.630327,11100
1659520381.672825,11098
1659520381.711056,11118
1659520381.749288,11149
1659520381.787519,11200
1659520381.828481,11258
1659520381.869443,11303
1659520381.908357,11362
1659520381.947271,11423
1659520381.986185,11477
1659520382.028171,11526
1659520382.070157,11581
1659520382.10873,11641
1659520382.147302,11691
1659520382.185875,11746
1659520382.230933,11804
1659520382.275991,11846
1659520382.321049,11758
1659520382.353819,11568
1659520382.386589,11399
1659520382.431306,11288
1659520382.476022,11224
1659520382.52074,11148
1659520382.563238,11125
1659520382.605736,11135
1659520382.644308,11153
1659520382.682881,11156
1659520382.721453,11175
1659520382.759685,11207
1659520382.797916,11249
1659520382.836147,11320
1659520382.877621,11372
1659520382.919095,11437
1659520382.958351,11491
1659520382.997606,11548
1659520383.036861,11593
1659520383.078335,11648
1659520383.119809,11697
1659520383.158382,11743
1659520383.196955,11798
1659520383.235527,11862
1659520383.275124,11890
1659520383.31472,11812
1659520383.354317,11638
1659520383.395791,11505
1659520383.437265,11442
1659520383.476179,11387
1659520383.515093,11342
1659520383.554007,11351
1659520383.595993,11364
1659520383.637979,11380
1659520383.676893,11366
1659520383.715807,11382
1659520383.754721,11414
1659520383.794864,11455
1659520383.835007,11496
1659520383.875149,11537
1659520383.915293,11590
1659520383.955435,11638
1659520383.996397,11678
1659520384.037359,11710
1659520384.077809,11759
1659520384.118259,11807
1659520384.157515,11855
1659520384.19677,11904
1659520384.236025,11915
1659520384.280059,11788
1659520384.324094,11596
1659520384.368128,11478
1659520384.400898,11399
1659520384.433667,11321
1659520384.478043,11286
1659520384.522418,11295
1659520384.566794,11315
1659520384.601099,11321
1659520384.635405,11336
1659520384.676367,11350
1659520384.717329,11396
1659520384.758291,11441
1659520384.799253,11473
1659520384.841752,11518
1659520384.88425,11553
1659520384.923164,11581
1659520384.962078,11625
1659520385.000992,11667
1659520385.038881,11701
1659520385.076771,11751
1659520385.114661,11807
1659520385.156647,11855
1659520385.198633,11884
1659520385.237206,11785
1659520385.275779,11614
1659520385.314351,11491
1659520385.355825,11440
1659520385.397299,11388
1659520385.442016,11343
1659520385.486733,11360
1659520385.53145,11381
1659520385.565244,11403
1659520385.599037,11412
1659520385.643413,11445
1659520385.687788,11482
1659520385.732164,11521
1659520385.765958,11580
1659520385.799752,11627
1659520385.84481,11688
1659520385.889868,11743
1659520385.934926,11797
1659520385.972816,11856
1659520386.010706,11925
1659520386.048596,11969
1659520386.089558,12033
1659520386.13052,12088
1659520386.169775,12134
1659520386.209031,12097
1659520386.248286,11959
1659520386.2872,11833
1659520386.326114,11776
1659520386.365028,11731
1659520386.406502,11700
1659520386.447976,11701
1659520386.48689,11721
1659520386.525804,11731
1659520386.564718,11724
1659520386.60568,11726
1659520386.646642,11754
1659520386.685897,11786
1659520386.725152,11825
1659520386.764408,11870
1659520386.803663,11914
1659520386.842918,11966
1659520386.882174,12008
1659520386.923136,12057
1659520386.964098,12094
1659520387.005572,12147
1659520387.047046,12193
1659520387.086643,12244
1659520387.126239,12243
1659520387.165836,12131
1659520387.206798,11970
1659520387.24776,11867
1659520387.285991,11802
1659520387.324222,11726
1659520387.362454,11694
1659520387.406829,11690
1659520387.451205,11696
1659520387.49558,11687
1659520387.528862,11689
1659520387.562144,11697
1659520387.606178,11741
1659520387.650212,11776
1659520387.694246,11811
1659520387.73316,11863
1659520387.772074,11903
1659520387.810988,11945
1659520387.852462,11983
1659520387.893936,12037
1659520387.932509,12070
1659520387.971081,12133
1659520388.009654,12176
1659520388.05164,12211
1659520388.093626,12204
1659520388.13254,12048
1659520388.171454,11895
1659520388.210368,11810
1659520388.248941,11744
1659520388.287513,11693
1659520388.326086,11677
1659520388.367048,11692
1659520388.40801,11702
1659520388.446924,11703
1659520388.485838,11721
1659520388.524752,11740
1659520388.566738,11782
1659520388.608724,11824
1659520388.646955,11870
1659520388.685186,11923
1659520388.723418,11974
1659520388.765404,12023
1659520388.80739,12075
1659520388.846645,12115
1659520388.8859,12171
1659520388.925156,12224
1659520388.967142,12265
1659520389.009128,12294
1659520389.049476,12204
1659520389.089823,12068
1659520389.130171,11970
1659520389.170518,11933
1659520389.210866,11891
1659520389.254559,11870
1659520389.298252,11880
1659520389.341945,11891
1659520389.380859,11895
1659520389.419773,11890
1659520389.458687,11907
1659520389.500673,11930
1659520389.542659,11971
1659520389.581231,12011
1659520389.619804,12068
1659520389.658376,12095
1659520389.699338,12139
1659520389.740301,12191
1659520389.779215,12233
1659520389.818129,12270
1659520389.857042,12316
1659520389.895274,12365
1659520389.933505,12375
1659520389.971736,12288
1659520390.014234,12135
1659520390.056732,12014
1659520390.095646,11960
1659520390.13456,11900
1659520390.173474,11874
1659520390.211705,11878
1659520390.249937,11887
1659520390.288168,11889
1659520390.330154,11902
1659520390.37214,11914
1659520390.411396,11947
1659520390.450651,11995
1659520390.489906,12027
1659520390.530356,12077
1659520390.570806,12115
1659520390.61484,12153
1659520390.658875,12203
1659520390.702909,12237
1659520390.735678,12281
1659520390.768448,12321
1659520390.812482,12366
1659520390.856516,12403
1659520390.900551,12383
1659520390.933832,12224
1659520390.967114,12072
1659520391.012172,12001
1659520391.05723,11943
1659520391.102289,11902
1659520391.14052,11878
1659520391.178751,11893
1659520391.216982,11912
1659520391.258456,11908
1659520391.299931,11924
1659520391.339869,11959
1659520391.379807,12002
1659520391.419744,12051
1659520391.461219,12106
1659520391.502693,12158
1659520391.541265,12216
1659520391.579838,12269
1659520391.618411,12313
1659520391.657325,12351
1659520391.696239,12398
1659520391.735152,12450
1659520391.776626,12488
1659520391.8181,12512
1659520391.856673,12419
1659520391.895246,12270
1659520391.933818,12170
1659520391.975292,12122
1659520392.016767,12080
1659520392.055681,12055
1659520392.094594,12070
1659520392.133508,12082
1659520392.175494,12078
1659520392.21748,12083
1659520392.256736,12100
1659520392.295991,12133
1659520392.335246,12166
1659520392.37672,12191
1659520392.418195,12238
1659520392.457108,12267
1659520392.496022,12313
1659520392.534936,12352
1659520392.579312,12388
1659520392.623688,12454
1659520392.668063,12510
1659520392.710561,12567
1659520392.753059,12603
1659520392.791291,12559
1659520392.829522,12385
1659520392.867753,12208
1659520392.909227,12092
1659520392.950701,12006
1659520392.989615,11934
1659520393.028529,11894
1659520393.067443,11889
1659520393.105674,11887
1659520393.143905,11877
1659520393.182137,11881
1659520393.224123,11927
1659520393.266109,11961
1659520393.305023,12005
1659520393.343937,12073
1659520393.382851,12121
1659520393.421765,12178
1659520393.460679,12229
1659520393.499593,12273
1659520393.541067,12320
1659520393.582541,12371
1659520393.621455,12417
1659520393.660369,12461
1659520393.699283,12473
1659520393.741269,12347
1659520393.783255,12210
1659520393.821145,12118
1659520393.859035,12051
1659520393.896924,12001
1659520393.9413,11982
1659520393.985676,11982
1659520394.030051,11968
1659520394.062821,11960
1659520394.09559,11957
1659520394.139625,11977
1659520394.183659,11992
1659520394.227693,12022
1659520394.269679,12054
1659520394.311665,12091
1659520394.351603,12120
1659520394.391541,12151
1659520394.431479,12185
1659520394.471417,12220
1659520394.511355,12272
1659520394.550611,12313
1659520394.589866,12325
1659520394.629121,12223
1659520394.668718,12067
1659520394.708314,11947
1659520394.747911,11879
1659520394.789385,11803
1659520394.830859,11747
1659520394.869773,11745
1659520394.908687,11736
1659520394.947601,11724
1659520394.986174,11714
1659520395.024746,11723
1659520395.063319,11755
1659520395.104793,11804
1659520395.146267,11856
1659520395.185522,11904
1659520395.224778,11955
1659520395.264033,12015
1659520395.304995,12068
1659520395.345957,12110
1659520395.384871,12163
1659520395.423785,12214
1659520395.462699,12268
1659520395.505197,12255
1659520395.547695,12123
1659520395.592753,11969
1659520395.637812,11857
1659520395.68287,11794
1659520395.715127,11730
1659520395.747385,11713
1659520395.792102,11741
1659520395.836819,11766
1659520395.881536,11776
1659520395.915842,11796
1659520395.950147,11827
1659520395.99384,11863
1659520396.037533,11914
1659520396.081226,11966
1659520396.119798,12026
1659520396.158371,12076
1659520396.196944,12124
1659520396.238418,12179
1659520396.279892,12228
1659520396.317782,12276
1659520396.355671,12341
1659520396.393561,12391
1659520396.432134,12387
1659520396.470707,12286
1659520396.509279,12129
1659520396.551265,12032
1659520396.593251,11980
1659520396.631824,11912
1659520396.670397,11889
1659520396.708969,11908
1659520396.750443,11902
1659520396.791917,11894
1659520396.831173,11904
1659520396.870428,11904
1659520396.909683,11935
1659520396.951157,11969
1659520396.992631,12010
1659520397.031545,12034
1659520397.070459,12070
1659520397.109373,12109
1659520397.150847,12136
1659520397.192321,12173
1659520397.230894,12211
1659520397.269467,12265
1659520397.308039,12290
1659520397.352415,12220
1659520397.39679,12043
1659520397.441166,11870
1659520397.47496,11765
1659520397.508753,11671
1659520397.552787,11608
1659520397.596822,11600
1659520397.640856,11598
1659520397.674137,11605
1659520397.707419,11594
1659520397.751795,11605
1659520397.79617,11627
1659520397.840546,11662
1659520397.87946,11705
1659520397.918374,11746
1659520397.957288,11790
1659520397.999274,11838
1659520398.04126,11882
1659520398.080515,11920
1659520398.119771,11983
1659520398.159026,12009
1659520398.199988,12067
1659520398.24095,12114
1659520398.279864,12153
1659520398.318778,12099
1659520398.357692,11920
1659520398.396947,11754
1659520398.436202,11647
1659520398.475457,11574
1659520398.516932,11509
1659520398.558406,11500
1659520398.596978,11532
1659520398.635551,11542
1659520398.674124,11544
1659520398.715598,11571
1659520398.757072,11608
1659520398.79701,11652
1659520398.836948,11707
1659520398.876886,11759
1659520398.92092,11825
1659520398.964954,11885
1659520399.008988,11936
1659520399.041758,12002
1659520399.074528,12049
1659520399.119244,12113
1659520399.163961,12164
1659520399.208678,12217
1659520399.24964,12273
1659520399.290602,12248
1659520399.329858,12103
1659520399.369113,11942
1659520399.408368,11863
1659520399.446941,11786
1659520399.485513,11741
1659520399.524086,11724
1659520399.562488,11732
1659520399.60089,11729
1659520399.639292,11725
1659520399.677694,11732
1659520399.716096,11763
1659520399.754498,11805
1659520399.798873,11830
1659520399.843249,11881
1659520399.887624,11922
1659520399.928586,11978
1659520399.969548,12035
1659520400.008121,12086
1659520400.046694,12142
1659520400.085266,12188
1659520400.127764,12229
1659520400.170262,12274
1659520400.208835,12292
1659520400.247407,12172
1659520400.28598,11968
1659520400.324894,11839
1659520400.363808,11747
1659520400.402722,11661
1659520400.444196,11594
1659520400.48567,11603
1659520400.524584,11604
1659520400.563498,11598
1659520400.602412,11604
1659520400.642862,11612
1659520400.683312,11663
1659520400.722567,11710
1659520400.761822,11754
1659520400.801078,11813
1659520400.839309,11857
1659520400.87754,11911
1659520400.915772,11970
1659520400.95827,12023
1659520401.000768,12071
1659520401.040023,12149
1659520401.079278,12205
1659520401.118534,12270
1659520401.160008,12328
1659520401.201482,12308
1659520401.240396,12123
1659520401.27931,11931
1659520401.318224,11797
1659520401.360722,11698
1659520401.40322,11631
1659520401.447937,11619
1659520401.492654,11654
1659520401.537371,11688
1659520401.569628,11706
1659520401.601886,11761
1659520401.646603,11821
1659520401.69132,11902
1659520401.736037,11985
1659520401.774268,12062
1659520401.812499,12121
1659520401.85073,12182
1659520401.892205,12231
1659520401.933679,12274
1659520401.972593,12314
1659520402.011506,12340
1659520402.05042,12380
1659520402.091894,12422
1659520402.133368,12404
1659520402.171941,12242
1659520402.210514,12039
1659520402.249086,11906
1659520402.288,11832
1659520402.326914,11788
1659520402.365828,11753
1659520402.408326,11765
1659520402.450824,11789
1659520402.489397,11788
1659520402.52797,11792
1659520402.566542,11818
1659520402.607504,11860
1659520402.648466,11894
1659520402.687039,11930
1659520402.725611,11957
1659520402.764184,11987
1659520402.80617,12027
1659520402.848156,12061
1659520402.886729,12088
1659520402.925302,12107
1659520402.963874,12135
1659520403.004836,12148
1659520403.045798,12165
1659520403.084712,12040
1659520403.123626,11794
1659520403.16254,11628
1659520403.206574,11524
1659520403.250608,11433
1659520403.294643,11356
1659520403.328436,11342
1659520403.36223,11351
1659520403.406605,11349
1659520403.450981,11358
1659520403.495357,11381
1659520403.533929,11426
1659520403.572502,11474
1659520403.611074,11533
1659520403.65306,11581
1659520403.695047,11617
1659520403.733961,11665
1659520403.772875,11718
1659520403.811789,11764
1659520403.853263,11817
1659520403.894737,11879
1659520403.93365,11936
1659520403.972564,11949
1659520404.011478,11795
1659520404.050392,11645
1659520404.089306,11583
1659520404.12822,11517
1659520404.169182,11460
1659520404.210145,11435
1659520404.249741,11426
1659520404.289338,11404
1659520404.328934,11384
1659520404.37092,11370
1659520404.412907,11369
1659520404.451138,11388
1659520404.489369,11411
1659520404.5276,11426
1659520404.569586,11461
1659520404.611573,11495
1659520404.65151,11536
1659520404.691448,11592
1659520404.731386,11636
1659520404.772861,11688
1659520404.814335,11750
1659520404.855809,11758
1659520404.897283,11625
1659520404.938757,11382
1659520404.980231,11242
1659520405.018804,11137
1659520405.057376,11034
1659520405.095949,10975
1659520405.13418,10960
1659520405.172411,10960
1659520405.210642,10939
1659520405.252116,10934
1659520405.293591,10947
1659520405.332505,10974
1659520405.371418,11023
1659520405.410332,11053
1659520405.451807,11090
1659520405.493281,11116
1659520405.532536,11141
1659520405.571791,11181
1659520405.611047,11223
1659520405.652521,11254
1659520405.693995,11298
1659520405.738029,11349
1659520405.782063,11300
1659520405.826097,11065
1659520405.865353,10851
1659520405.904608,10730
1659520405.943863,10634
1659520405.985849,10561
1659520406.027835,10557
1659520406.065725,10565
1659520406.103615,10558
1659520406.141505,10548
1659520406.182979,10563
1659520406.224453,10595
1659520406.263026,10630
1659520406.301598,10656
1659520406.340171,10678
1659520406.379085,10699
1659520406.417999,10710
1659520406.456913,10730
1659520406.498387,10752
1659520406.539861,10785
1659520406.579116,10830
1659520406.618371,10886
1659520406.657627,10817
1659520406.696199,10564
1659520406.734772,10321
1659520406.773345,10177
1659520406.815843,10075
1659520406.858341,9987
1659520406.897255,9968
1659520406.936169,9972
1659520406.975083,9968
1659520407.017069,9983
1659520407.059055,10012
1659520407.097627,10064
1659520407.1362,10121
1659520407.174773,10173
1659520407.217271,10234
1659520407.259769,10291
1659520407.303803,10342
1659520407.347837,10389
1659520407.391871,10447
1659520407.424641,10489
1659520407.457411,10541
1659520407.502128,10612
1659520407.546845,10683
1659520407.591562,10748
1659520407.625355,10687
1659520407.659149,10410
1659520407.703183,10154
1659520407.747217,10021
1659520407.791252,9910
1659520407.830507,9826
1659520407.869762,9811
1659520407.909017,9864
1659520407.950491,9898
1659520407.991966,9921
1659520408.030879,9953
1659520408.069793,10007
1659520408.108707,10064
1659520408.150693,10115
1659520408.19268,10164
1659520408.231594,10176
1659520408.270508,10211
1659520408.309422,10258
1659520408.347653,10321
1659520408.385884,10399
1659520408.424115,10471
1659520408.465077,10572
1659520408.506039,10653
1659520408.544953,10716
1659520408.583867,10623
1659520408.622781,10411
1659520408.664255,10288
1659520408.705729,10246
1659520408.744302,10205
1659520408.782875,10185
1659520408.821447,10230
1659520408.863945,10253
1659520408.906443,10256
1659520408.945016,10238
1659520408.983588,10205
1659520409.022161,10215
1659520409.066537,10232
1659520409.110912,10272
1659520409.155288,10310
1659520409.189594,10370
1659520409.223899,10423
1659520409.267933,10492
1659520409.311968,10547
1659520409.356002,10588
1659520409.387747,10659
1659520409.419493,10720
1659520409.464551,10761
1659520409.509609,10629
1659520409.554668,10327
1659520409.592899,10112
1659520409.63113,9994
1659520409.669362,9915
1659520409.710835,9870
1659520409.75231,9915
1659520409.791565,9960
1659520409.83082,9997
1659520409.870075,9997
1659520409.908648,10012
1659520409.947221,10055
1659520409.985793,10120
1659520410.026141,10198
1659520410.066489,10286
1659520410.106836,10376
1659520410.147184,10454
1659520410.187531,10544
1659520410.229006,10624
1659520410.270479,10691
1659520410.309393,10755
1659520410.348307,10778
1659520410.387221,10656
1659520410.428695,10334
1659520410.47017,10086
1659520410.509766,9978
1659520410.549363,9922
1659520410.588959,9884
1659520410.632652,9901
1659520410.676345,9933
1659520410.720038,9941
1659520410.75332,9966
1659520410.786601,10015
1659520410.830977,10080
1659520410.875352,10158
1659520410.919728,10214
1659520410.958301,10260
1659520410.996873,10311
1659520411.035446,10373
1659520411.077944,10429
1659520411.120442,10492
1659520411.159356,10546
1659520411.19827,10611
1659520411.237184,10668
1659520411.278146,10535
1659520411.319108,10278
1659520411.358363,10101
1659520411.397619,10022
1659520411.436874,9962
1659520411.475105,9944
1659520411.513336,9960
1659520411.551568,9982
1659520411.593554,9988
1659520411.63554,9990
1659520411.674112,10024
1659520411.712685,10070
1659520411.751258,10148
1659520411.79222,10212
1659520411.833182,10280
1659520411.871413,10338
1659520411.909644,10392
1659520411.947875,10459
1659520411.989861,10507
1659520412.031848,10568
1659520412.070762,10622
1659520412.109676,10630
1659520412.14859,10455
1659520412.190576,10152
1659520412.232562,9945
1659520412.271134,9832
1659520412.309707,9750
1659520412.348279,9719
1659520412.392996,9735
1659520412.437713,9748
1659520412.48243,9736
1659520412.523904,9728
1659520412.565378,9743
1659520412.603951,9788
1659520412.642524,9834
1659520412.681096,9895
1659520412.72257,9945
1659520412.764044,10009
1659520412.802617,10081
1659520412.841189,10151
1659520412.879762,10219
1659520412.917993,10290
1659520412.956225,10365
1659520412.994456,10431
1659520413.036954,10343
1659520413.079452,10071
1659520413.118366,9825
1659520413.15728,9688
1659520413.196194,9609
1659520413.234766,9552
1659520413.273339,9562
1659520413.311912,9595
1659520413.353898,9614
1659520413.395884,9619
1659520413.435481,9651
1659520413.475077,9702
1659520413.514674,9764
1659520413.555636,9817
1659520413.596598,9885
1659520413.635853,9930
1659520413.675108,9986
1659520413.714364,10039
1659520413.755838,10083
1659520413.797312,10155
1659520413.841005,10216
1659520413.884698,10255
1659520413.928391,10132
1659520413.961672,9833
1659520413.994954,9604
1659520414.039671,9495
1659520414.084388,9417
1659520414.129105,9383
1659520414.161362,9400
1659520414.19362,9415
1659520414.237995,9417
1659520414.282371,9436
1659520414.326746,9478
1659520414.366343,9532
1659520414.40594,9599
1659520414.445536,9627
1659520414.486498,9672
1659520414.527461,9754
1659520414.566033,9809
1659520414.604606,9880
1659520414.643178,9941
1659520414.685676,10034
1659520414.728174,10131
1659520414.767088,10179
1659520414.806002,10064
1659520414.844916,9793
1659520414.883489,9602
1659520414.922062,9502
1659520414.960634,9406
1659520415.002108,9343
1659520415.043582,9339
1659520415.081472,9357
1659520415.119362,9355
1659520415.157252,9354
1659520415.195483,9397
1659520415.233715,9467
1659520415.271946,9535
1659520415.313932,9618
1659520415.355918,9675
1659520415.397904,9733
1659520415.43989,9802
1659520415.478463,9860
1659520415.517035,9932
1659520415.555608,9989
1659520415.598106,10050
1659520415.640604,9992
1659520415.679518,9745
1659520415.718432,9518
1659520415.757346,9380
1659520415.798308,9305
1659520415.83927,9262
1659520415.878525,9287
1659520415.917781,9324
1659520415.957036,9340
1659520415.999534,9355
1659520416.042032,9392
1659520416.085725,9436
1659520416.129418,9483
1659520416.173111,9542
1659520416.206393,9579
1659520416.239674,9623
1659520416.284391,9654
1659520416.329108,9697
1659520416.373825,9757
1659520416.407107,9829
1659520416.440388,9852
1659520416.484764,9680
1659520416.529139,9385
1659520416.573515,9169
1659520416.61277,9059
1659520416.652025,8963
1659520416.691281,8935
1659520416.732243,8967
1659520416.773205,8980
1659520416.812119,8979
1659520416.851033,8996
1659520416.889947,9045
1659520416.932445,9115
1659520416.974943,9185
1659520417.013857,9239
1659520417.052771,9286
1659520417.091685,9344
1659520417.130257,9385
1659520417.16883,9439
1659520417.207402,9495
1659520417.248877,9534
1659520417.290351,9425
1659520417.328923,9156
1659520417.367496,8955
1659520417.406069,8866
1659520417.448055,8806
1659520417.490041,8781
1659520417.528613,8811
1659520417.567186,8835
1659520417.605758,8832
1659520417.647233,8847
1659520417.688707,8888
1659520417.727621,8951
1659520417.766535,9017
1659520417.805449,9090
1659520417.847435,9175
1659520417.889421,9247
1659520417.928676,9332
1659520417.967931,9405
1659520418.007187,9491
1659520418.051221,9585
1659520418.095255,9672
1659520418.139289,9719
1659520418.171547,9574
1659520418.203804,9283
1659520418.24818,9114
1659520418.292556,9048
1659520418.336931,9015
1659520418.378917,9038
1659520418.420903,9099
1659520418.459476,9130
1659520418.498049,9134
1659520418.536621,9151
1659520418.575535,9183
1659520418.614449,9238
1659520418.653363,9293
1659520418.694837,9349
1659520418.736311,9410
1659520418.774884,9478
1659520418.813456,9539
1659520418.852029,9604
1659520418.894527,9671
1659520418.937025,9739
1659520418.975939,9820
1659520419.014853,9874
1659520419.053767,9763
1659520419.092681,9471
1659520419.131595,9261
1659520419.170509,9140
1659520419.212495,9063
1659520419.254481,9012
1659520419.293395,9032
1659520419.332309,9061
1659520419.371223,9056
1659520419.411673,9063
1659520419.452123,9082
1659520419.491378,9146
1659520419.530633,9220
1659520419.569889,9307
1659520419.610851,9365
1659520419.651813,9443
1659520419.696188,9537
1659520419.740564,9605
1659520419.78494,9682
1659520419.818733,9761
1659520419.852527,9842
1659520419.897585,9920
1659520419.942643,10010
1659520419.987702,9988
1659520420.025933,9736
1659520420.064164,9457
1659520420.102395,9316
1659520420.144382,9244
1659520420.186368,9172
1659520420.225964,9171
1659520420.265561,9208
1659520420.305157,9227
1659520420.34612,9231
1659520420.387082,9257
1659520420.425996,9305
1659520420.46491,9362
1659520420.503824,9435
1659520420.543557,9497
1659520420.58329,9574
1659520420.623023,9651
1659520420.662756,9740
1659520420.702489,9817
1659520420.741403,9897
1659520420.780317,9989
1659520420.819231,10077
1659520420.857462,10178
1659520420.895694,10242
1659520420.933925,10147
1659520420.974887,9879
1659520421.015849,9695
1659520421.054763,9613
1659520421.093677,9570
1659520421.132591,9557
1659520421.175089,9600
1659520421.217587,9641
1659520421.258549,9652
1659520421.299511,9669
1659520421.338425,9716
1659520421.377339,9773
1659520421.416253,9834
1659520421.460629,9901
1659520421.505004,9963
1659520421.54938,10029
1659520421.583174,10097
1659520421.616967,10162
1659520421.661001,10227
1659520421.705035,10293
1659520421.74907,10355
1659520421.787984,10419
1659520421.826898,10430
1659520421.865812,10215
1659520421.906262,9911
1659520421.946712,9723
1659520421.985626,9612
1659520422.024539,9520
1659520422.063453,9474
1659520422.102709,9500
1659520422.141964,9511
1659520422.181219,9514
1659520422.223206,9522
1659520422.265192,9550
1659520422.304106,9616
1659520422.343019,9677
1659520422.381933,9750
1659520422.423919,9812
1659520422.465906,9874
1659520422.505161,9951
1659520422.544416,10013
1659520422.583672,10083
1659520422.622586,10149
1659520422.6615,10228
1659520422.700413,10295
1659520422.741375,10347
1659520422.782337,10236
1659520422.824323,9937
1659520422.86631,9724
1659520422.904541,9619
1659520422.942772,9538
1659520422.981003,9496
1659520423.025379,9527
1659520423.069754,9570
1659520423.11413,9587
1659520423.148436,9606
1659520423.182741,9645
1659520423.226776,9719
1659520423.27081,9790
1659520423.314844,9871
1659520423.347614,9958
1659520423.380383,10030
1659520423.4251,10109
1659520423.469817,10182
1659520423.514534,10260
1659520423.553789,10329
1659520423.593045,10404
1659520423.6323,10486
1659520423.673774,10547
1659520423.715248,10515
1659520423.754162,10263
1659520423.793076,10029
1659520423.83199,9905
1659520423.870221,9847
1659520423.908453,9814
1659520423.946684,9837
1659520423.988158,9866
1659520424.029632,9863
1659520424.068887,9862
1659520424.108142,9874
1659520424.147398,9918
1659520424.187848,9968
1659520424.228298,10024
1659520424.26687,10084
1659520424.305443,10146
1659520424.344016,10204
1659520424.386514,10258
1659520424.429012,10329
1659520424.467584,10385
1659520424.506157,10456
1659520424.544729,10516
1659520424.585692,10574
1659520424.626654,10512
1659520424.665909,10235
1659520424.705164,9977
1659520424.74442,9828
1659520424.788454,9732
1659520424.832488,9656
1659520424.876522,9660
1659520424.909804,9703
1659520424.943085,9719
1659520424.987803,9731
1659520425.032519,9749
1659520425.077236,9794
1659520425.118198,9864
1659520425.15916,9933
1659520425.19705,9994
1659520425.23494,10071
1659520425.27283,10134
1659520425.312427,10194
1659520425.352023,10265
1659520425.39162,10327
1659520425.433606,10392
1659520425.475592,10469
1659520425.514506,10539
1659520425.55342,10583
1659520425.592334,10484
1659520425.63432,10216
1659520425.676306,10022
1659520425.715561,9927
1659520425.754817,9853
1659520425.794072,9835
1659520425.834215,9848
1659520425.874358,9885
1659520425.9145,9888
1659520425.954643,9907
1659520425.994786,9938
1659520426.03626,9988
1659520426.077734,10063
1659520426.115966,10121
1659520426.154197,10195
1659520426.192428,10266
1659520426.231001,10337
1659520426.269573,10409
1659520426.308146,10466
1659520426.350644,10521
1659520426.393142,10591
1659520426.433592,10650
1659520426.474042,10706
1659520426.512956,10647
1659520426.55187,10405
1659520426.590784,10179
1659520426.635842,10061
1659520426.6809,9972
1659520426.725959,9905
1659520426.75924,9910
1659520426.792522,9934
1659520426.836556,9931
1659520426.88059,9935
1659520426.924625,9955
1659520426.957906,9995
1659520426.991188,10067
1659520427.035222,10118
1659520427.079256,10192
1659520427.123291,10256
1659520427.161863,10316
1659520427.200436,10376
1659520427.239008,10440
1659520427.280994,10504
1659520427.322981,10566
1659520427.361553,10635
1659520427.400126,10705
1659520427.438698,10788
1659520427.47693,10781
1659520427.515161,10601
1659520427.553392,10334
1659520427.594866,10166
1659520427.63634,10051
1659520427.675937,9950
1659520427.715533,9906
1659520427.75513,9916
1659520427.796092,9953
1659520427.837054,9970
1659520427.875968,9997
1659520427.914882,10062
1659520427.953796,10137
1659520427.996294,10211
1659520428.038792,10265
1659520428.077706,10319
1659520428.11662,10367
1659520428.155534,10426
1659520428.196496,10474
1659520428.237458,10543
1659520428.276714,10601
1659520428.315969,10658
1659520428.355224,10737
1659520428.398917,10796
1659520428.44261,10801
1659520428.486303,10628
1659520428.519584,10404
1659520428.552866,10265
1659520428.597924,10187
1659520428.642982,10138
1659520428.688041,10133
1659520428.729003,10151
1659520428.769965,10160
1659520428.808879,10155
1659520428.847793,10160
1659520428.886707,10200
1659520428.926303,10253
1659520428.9659,10305
1659520429.005497,10366
1659520429.046971,10425
1659520429.088445,10488
1659520429.127017,10540
1659520429.16559,10596
1659520429.204163,10656
1659520429.246661,10703
1659520429.289159,10753
1659520429.327732,10823
1659520429.366304,10878
1659520429.404877,10860
1659520429.443449,10650
1659520429.482022,10412
1659520429.520595,10248
1659520429.563093,10142
1659520429.605591,10034
1659520429.644163,9989
1659520429.682736,10008
1659520429.721308,9998
1659520429.761759,9996
1659520429.802209,9999
1659520429.841464,10029
1659520429.880719,10065
1659520429.919975,10137
1659520429.961961,10178
1659520430.003947,10234
1659520430.047981,10308
1659520430.092015,10364
1659520430.136049,10424
1659520430.169331,10484
1659520430.202613,10542
1659520430.247329,10611
1659520430.292046,10679
1659520430.336763,10747
1659520430.374653,10765
1659520430.412543,10620
1659520430.450433,10389
1659520430.492931,10244
1659520430.535429,10145
1659520430.574002,10076
1659520430.612574,10044
1659520430.651147,10080
1659520430.691597,10095
1659520430.732047,10108
1659520430.770961,10131
1659520430.809875,10163
1659520430.848789,10220
1659520430.887703,10264
1659520430.926617,10319
1659520430.965531,10388
1659520431.007005,10437
1659520431.048479,10504
1659520431.090721,10564
1659520431.132963,10619
1659520431.175205,10677
1659520431.217447,10747
1659520431.256361,10809
1659520431.295275,10851
1659520431.334189,10786
1659520431.375663,10576
1659520431.417137,10379
1659520431.456051,10255
1659520431.494965,10187
1659520431.533879,10130
1659520431.572452,10133
1659520431.611024,10158
1659520431.649597,10164
1659520431.691583,10177
1659520431.733569,10208
1659520431.772483,10243
1659520431.811397,10306
1659520431.850311,10359
1659520431.889225,10407
1659520431.928139,10472
1659520431.967053,10527
1659520432.008527,10590
1659520432.050001,10655
1659520432.088915,10712
1659520432.127829,10784
1659520432.166743,10843
1659520432.209241,10911
1659520432.251739,10976
1659520432.293213,10963
1659520432.334687,10785
1659520432.373601,10563
1659520432.412515,10436
1659520432.451429,10339
1659520432.496146,10260
1659520432.540863,10218
1659520432.58558,10245
1659520432.619374,10266
1659520432.653167,10282
1659520432.69686,10296
1659520432.740553,10351
1659520432.784246,10417
1659520432.817528,10476
1659520432.850809,10554
1659520432.894502,10623
1659520432.938195,10686
1659520432.981888,10760
1659520433.02046,10817
1659520433.059033,10873
1659520433.097605,10933
1659520433.13908,10988
1659520433.180554,11051
1659520433.219809,11108
1659520433.259064,11158
1659520433.29832,11120
1659520433.336551,10925
1659520433.374782,10738
1659520433.413013,10640
1659520433.454999,10566
1659520433.496985,10499
1659520433.536241,10490
1659520433.575496,10511
1659520433.614751,10508
1659520433.655713,10510
1659520433.696675,10538
1659520433.735931,10573
1659520433.775186,10633
1659520433.814441,10679
1659520433.855915,10734
1659520433.897389,10799
1659520433.935962,10856
1659520433.974535,10916
1659520434.013107,10972
1659520434.054581,11029
1659520434.096055,11080
1659520434.134628,11148
1659520434.173201,11194
1659520434.211773,11250
1659520434.255807,11307
1659520434.299842,11269
1659520434.343876,11078
1659520434.37767,10872
1659520434.411463,10750
1659520434.456522,10665
1659520434.50158,10592
1659520434.546638,10570
1659520434.5876,10573
1659520434.628562,10599
1659520434.667476,10596
1659520434.70639,10612
1659520434.745304,10657
1659520434.784218,10700
1659520434.823132,10753
1659520434.862046,10815
1659520434.904032,10875
1659520434.946018,10943
1659520434.984932,10997
1659520435.023846,11055
1659520435.06276,11119
1659520435.104234,11166
1659520435.145708,11220
1659520435.183939,11291
1659520435.22217,11349
1659520435.260402,11403
1659520435.299657,11424
1659520435.338912,11340
1659520435.378167,11144
1659520435.420666,11032
1659520435.463164,10959
1659520435.501736,10909
1659520435.540309,10888
1659520435.578882,10905
1659520435.620356,10924
1659520435.66183,10927
1659520435.701085,10939
1659520435.74034,10968
1659520435.779596,11017
1659520435.82107,11059
1659520435.862544,11110
1659520435.906919,11166
1659520435.951295,11220
1659520435.99567,11272
