LocalTimestamp,PG
1659514282.354093,8689
1659514282.395614,8773
1659514282.437136,8898
1659514282.475752,9015
1659514282.514369,9149
1659514282.552986,9271
1659514282.596045,9372
1659514282.639105,9452
1659514282.67738,9502
1659514282.715655,9547
1659514282.753929,9596
1659514282.792546,9597
1659514282.831163,9528
1659514282.86978,9419
1659514282.911814,9374
1659514282.953848,9355
1659514282.991781,9367
1659514283.029714,9369
1659514283.067647,9388
1659514283.109169,9400
1659514283.150691,9398
1659514283.190332,9393
1659514283.229975,9398
1659514283.269616,9416
1659514283.313701,9430
1659514283.357785,9458
1659514283.40187,9488
1659514283.440487,9523
1659514283.479104,9563
1659514283.51772,9607
1659514283.560267,9657
1659514283.602814,9708
1659514283.64143,9756
1659514283.680047,9756
1659514283.718664,9674
1659514283.75916,9581
1659514283.799656,9558
1659514283.838957,9540
1659514283.878257,9536
1659514283.917557,9549
1659514283.95549,9576
1659514283.993423,9593
1659514284.031357,9611
1659514284.073391,9638
1659514284.115425,9661
1659514284.154042,9704
1659514284.192658,9750
1659514284.231275,9784
1659514284.272797,9826
1659514284.314318,9866
1659514284.352935,9913
1659514284.391551,9950
1659514284.430168,9992
1659514284.472715,10028
1659514284.515262,10082
1659514284.553879,10076
1659514284.592495,9985
1659514284.631112,9822
1659514284.672633,9705
1659514284.714155,9654
1659514284.758581,9613
1659514284.803008,9600
1659514284.847434,9599
1659514284.88605,9584
1659514284.924667,9578
1659514284.963284,9591
1659514285.004806,9584
1659514285.046327,9588
1659514285.085627,9615
1659514285.124927,9624
1659514285.164227,9634
1659514285.205236,9658
1659514285.246245,9691
1659514285.286434,9708
1659514285.326623,9755
1659514285.366812,9767
1659514285.407,9779
1659514285.447189,9787
1659514285.486489,9703
1659514285.525789,9564
1659514285.565089,9458
1659514285.606098,9419
1659514285.647107,9396
1659514285.686408,9379
1659514285.725708,9370
1659514285.765008,9336
1659514285.803625,9294
1659514285.842241,9266
1659514285.880858,9260
1659514285.923405,9245
1659514285.965951,9250
1659514286.004226,9247
1659514286.042501,9269
1659514286.080776,9308
1659514286.122298,9347
1659514286.16382,9403
1659514286.202436,9466
1659514286.241053,9532
1659514286.27967,9552
1659514286.321704,9541
1659514286.363738,9431
1659514286.402354,9299
1659514286.440971,9221
1659514286.479588,9174
1659514286.521622,9133
1659514286.563656,9088
1659514286.602273,9080
1659514286.64089,9049
1659514286.679506,9032
1659514286.724274,9024
1659514286.769042,9017
1659514286.813811,9033
1659514286.847643,9060
1659514286.881475,9083
1659514286.92556,9105
1659514286.969644,9131
1659514287.013729,9167
1659514287.054738,9218
1659514287.095747,9283
1659514287.134363,9346
1659514287.17298,9385
1659514287.211597,9321
1659514287.249872,9178
1659514287.288147,9057
1659514287.326422,8986
1659514287.368456,8944
1659514287.41049,8918
1659514287.449449,8927
1659514287.488407,8953
1659514287.527365,8983
1659514287.56564,8998
1659514287.603915,9029
1659514287.64219,9090
1659514287.683712,9135
1659514287.725233,9166
1659514287.764875,9172
1659514287.804517,9174
1659514287.844159,9175
1659514287.885168,9192
1659514287.926177,9193
1659514287.965135,9213
1659514288.004094,9185
1659514288.043052,9069
1659514288.084574,8949
1659514288.126095,8898
1659514288.165054,8861
1659514288.204012,8824
1659514288.242971,8823
1659514288.283467,8799
1659514288.323963,8782
1659514288.369073,8761
1659514288.414183,8754
1659514288.459293,8751
1659514288.497568,8769
1659514288.535843,8790
1659514288.574118,8820
1659514288.615639,8851
1659514288.657161,8888
1659514288.697144,8926
1659514288.737128,8962
1659514288.777112,8997
1659514288.818633,9036
1659514288.860155,9021
1659514288.89843,8910
1659514288.936705,8754
1659514288.97498,8645
1659514289.014621,8587
1659514289.054263,8554
1659514289.093905,8524
1659514289.13594,8521
1659514289.177974,8520
1659514289.21659,8521
1659514289.255207,8528
1659514289.293824,8547
1659514289.334833,8566
1659514289.375842,8596
1659514289.414117,8636
1659514289.452391,8678
1659514289.490666,8733
1659514289.528941,8771
1659514289.567216,8797
1659514289.605491,8842
1659514289.648038,8890
1659514289.690585,8934
1659514289.72886,8935
1659514289.767135,8835
1659514289.80541,8694
1659514289.846931,8617
1659514289.888453,8576
1659514289.933221,8552
1659514289.977989,8564
1659514290.022757,8566
1659514290.056077,8574
1659514290.089396,8573
1659514290.133481,8585
1659514290.177566,8602
1659514290.22165,8646
1659514290.25497,8670
1659514290.28829,8695
1659514290.332716,8734
1659514290.377142,8765
1659514290.421568,8798
1659514290.459843,8825
1659514290.498118,8883
1659514290.536393,8928
1659514290.577915,8977
1659514290.619437,8944
1659514290.660958,8801
1659514290.702479,8679
1659514290.740754,8613
1659514290.779029,8574
1659514290.817304,8535
1659514290.856263,8528
1659514290.895221,8513
1659514290.93418,8502
1659514290.973138,8478
1659514291.012097,8473
1659514291.051055,8497
1659514291.093089,8530
1659514291.135123,8578
1659514291.17374,8622
1659514291.212357,8678
1659514291.250973,8744
1659514291.293008,8787
1659514291.335042,8832
1659514291.374,8868
1659514291.412959,8910
1659514291.451917,8885
1659514291.493439,8762
1659514291.53496,8592
1659514291.573919,8494
1659514291.612877,8465
1659514291.651835,8433
1659514291.693357,8418
1659514291.734879,8433
1659514291.773154,8443
1659514291.811429,8442
1659514291.849703,8464
1659514291.891737,8473
1659514291.933772,8507
1659514291.97854,8549
1659514292.023308,8588
1659514292.068076,8630
1659514292.107034,8671
1659514292.145993,8716
1659514292.184951,8749
1659514292.226473,8800
1659514292.267994,8848
1659514292.307294,8876
1659514292.346595,8826
1659514292.385895,8683
1659514292.427416,8574
1659514292.468938,8522
1659514292.507555,8501
1659514292.546171,8485
1659514292.584788,8495
1659514292.623746,8513
1659514292.662705,8522
1659514292.701663,8548
1659514292.74216,8580
1659514292.782656,8632
1659514292.821614,8679
1659514292.860573,8729
1659514292.899531,8793
1659514292.938831,8841
1659514292.978132,8896
1659514293.017432,8936
1659514293.057928,8989
1659514293.098424,9031
1659514293.137383,9091
1659514293.176341,9094
1659514293.2153,9006
1659514293.257847,8864
1659514293.300393,8780
1659514293.338668,8744
1659514293.376943,8744
1659514293.415218,8749
1659514293.459303,8762
1659514293.503387,8777
1659514293.547472,8772
1659514293.589506,8776
1659514293.63154,8816
1659514293.669815,8862
1659514293.70809,8907
1659514293.746365,8956
1659514293.784982,8986
1659514293.823598,9016
1659514293.862215,9038
1659514293.904762,9039
1659514293.947309,9057
1659514293.985584,9061
1659514294.023859,9032
1659514294.062134,8893
1659514294.10263,8715
1659514294.143126,8590
1659514294.182768,8534
1659514294.22241,8510
1659514294.262052,8523
1659514294.300669,8573
1659514294.339285,8615
1659514294.377902,8647
1659514294.420449,8678
1659514294.462996,8714
1659514294.502296,8764
1659514294.541596,8815
1659514294.580896,8861
1659514294.622418,8905
1659514294.663939,8960
1659514294.702214,9005
1659514294.740489,9050
1659514294.778764,9082
1659514294.821311,9111
1659514294.863858,9154
1659514294.908284,9083
1659514294.95271,8938
1659514294.997136,8816
1659514295.029431,8758
1659514295.061725,8713
1659514295.106152,8697
1659514295.150578,8693
1659514295.195004,8695
1659514295.233963,8697
1659514295.272921,8698
1659514295.31188,8716
1659514295.353401,8742
1659514295.394923,8782
1659514295.434223,8826
1659514295.473523,8890
1659514295.512823,8923
1659514295.554857,8963
1659514295.596892,9016
1659514295.635508,9046
1659514295.674125,9088
1659514295.712742,9133
1659514295.754776,9174
1659514295.79681,9134
1659514295.836589,9041
1659514295.876367,8999
1659514295.916146,9022
1659514295.955925,9065
1659514295.995703,9106
1659514296.03432,9152
1659514296.072937,9165
1659514296.111553,9164
1659514296.150853,9156
1659514296.190154,9168
1659514296.229454,9179
1659514296.270463,9179
1659514296.311472,9187
1659514296.349747,9178
1659514296.388022,9202
1659514296.426297,9207
1659514296.467818,9233
1659514296.50934,9258
1659514296.548982,9309
1659514296.588624,9343
1659514296.628265,9351
1659514296.669274,9247
1659514296.710283,9087
1659514296.749242,9008
1659514296.7882,8955
1659514296.827159,8929
1659514296.871585,8921
1659514296.916011,8923
1659514296.960438,8940
1659514296.993757,8942
1659514297.027077,8950
1659514297.071503,8955
1659514297.11593,9006
1659514297.160356,9042
1659514297.201365,9078
1659514297.242374,9129
1659514297.28099,9180
1659514297.319607,9237
1659514297.358224,9305
1659514297.397182,9376
1659514297.436141,9443
1659514297.475099,9497
1659514297.517646,9493
1659514297.560193,9390
1659514297.598809,9251
1659514297.637426,9169
1659514297.676043,9142
1659514297.717564,9119
1659514297.759086,9118
1659514297.798728,9130
1659514297.83837,9147
1659514297.878012,9151
1659514297.916287,9162
1659514297.954562,9203
1659514297.992836,9234
1659514298.034871,9277
1659514298.076905,9314
1659514298.116205,9343
1659514298.155505,9397
1659514298.194805,9434
1659514298.235814,9468
1659514298.276823,9515
1659514298.31544,9556
1659514298.354057,9558
1659514298.392673,9472
1659514298.43522,9324
1659514298.477767,9241
1659514298.521851,9218
1659514298.565936,9209
1659514298.610021,9212
1659514298.642828,9219
1659514298.675635,9227
1659514298.720745,9218
1659514298.765854,9232
1659514298.810964,9258
1659514298.849581,9293
1659514298.888198,9331
1659514298.926814,9355
1659514298.968336,9396
1659514299.009857,9411
1659514299.049499,9436
1659514299.089141,9469
1659514299.128783,9504
1659514299.169792,9531
1659514299.210801,9549
1659514299.248734,9463
1659514299.286667,9281
1659514299.324601,9156
1659514299.363217,9069
1659514299.401834,9018
1659514299.440451,8970
1659514299.482485,8947
1659514299.524519,8928
1659514299.562794,8899
1659514299.601069,8872
1659514299.639344,8852
1659514299.678302,8867
1659514299.717261,8873
1659514299.756219,8887
1659514299.797741,8923
1659514299.839262,8946
1659514299.878221,8973
1659514299.917179,9006
1659514299.956138,9056
1659514299.998172,9080
1659514300.040206,9129
1659514300.08224,9167
1659514300.124274,9108
1659514300.162891,8942
1659514300.201508,8803
1659514300.240124,8727
1659514300.284551,8688
1659514300.328977,8662
1659514300.373403,8671
1659514300.406723,8678
1659514300.440043,8688
1659514300.484127,8706
1659514300.528212,8720
1659514300.572296,8742
1659514300.611255,8784
1659514300.650213,8804
1659514300.689172,8847
1659514300.730693,8891
1659514300.772215,8937
1659514300.811173,8963
1659514300.850132,9022
1659514300.88909,9057
1659514300.930612,9105
1659514300.972133,9157
1659514301.011092,9177
1659514301.05005,9119
1659514301.089009,8951
1659514301.129197,8795
1659514301.169386,8700
1659514301.209575,8646
1659514301.249763,8600
1659514301.289952,8576
1659514301.331986,8570
1659514301.37402,8532
1659514301.412637,8537
1659514301.451254,8548
1659514301.489871,8589
1659514301.530879,8624
1659514301.571888,8668
1659514301.611188,8705
1659514301.650489,8742
1659514301.689789,8785
1659514301.728747,8821
1659514301.767706,8871
1659514301.806664,8921
1659514301.847161,8988
1659514301.887657,9024
1659514301.926615,8947
1659514301.965574,8768
1659514302.004532,8650
1659514302.047079,8595
1659514302.089626,8556
1659514302.133368,8543
1659514302.177111,8549
1659514302.220854,8542
1659514302.253661,8524
1659514302.286468,8521
1659514302.331236,8542
1659514302.376004,8586
1659514302.420773,8645
1659514302.454605,8688
1659514302.488437,8749
1659514302.532522,8791
1659514302.576606,8857
1659514302.620691,8891
1659514302.659308,8956
1659514302.697924,9012
1659514302.736541,9070
1659514302.777037,9116
1659514302.817534,9088
1659514302.855467,8951
1659514302.8934,8807
1659514302.931333,8751
1659514302.970634,8725
1659514303.009934,8715
1659514303.049234,8728
1659514303.090755,8747
1659514303.132277,8757
1659514303.170894,8761
1659514303.20951,8790
1659514303.248127,8813
1659514303.290674,8872
1659514303.33322,8902
1659514303.371837,8935
1659514303.410454,8978
1659514303.449071,9007
1659514303.488029,9041
1659514303.526988,9086
1659514303.565946,9142
1659514303.608493,9192
1659514303.65104,9240
1659514303.695124,9206
1659514303.739209,9055
1659514303.783293,8935
1659514303.8161,8883
1659514303.848907,8877
1659514303.893334,8869
1659514303.93776,8877
1659514303.982186,8869
1659514304.020803,8870
1659514304.05942,8862
1659514304.098037,8866
1659514304.139558,8892
1659514304.18108,8924
1659514304.220721,8965
1659514304.260363,8991
1659514304.300005,9036
1659514304.341527,9074
1659514304.383048,9110
1659514304.421665,9149
1659514304.460282,9185
1659514304.498899,9236
1659514304.53854,9261
1659514304.578182,9177
1659514304.617824,8990
1659514304.659346,8885
1659514304.700867,8867
1659514304.739142,8866
1659514304.777417,8871
1659514304.815692,8883
1659514304.854651,8908
1659514304.893609,8918
1659514304.932568,8941
1659514304.974602,8948
1659514305.016636,8964
1659514305.057645,8983
1659514305.098654,8994
1659514305.136929,8993
1659514305.175204,9001
1659514305.213479,9018
1659514305.255513,9035
1659514305.297547,9074
1659514305.336505,9105
1659514305.375464,9155
1659514305.414422,9194
1659514305.458848,9077
1659514305.503275,8921
1659514305.547701,8831
1659514305.580508,8810
1659514305.613315,8817
1659514305.657742,8838
1659514305.702168,8850
1659514305.746594,8850
1659514305.785211,8853
1659514305.823828,8858
1659514305.862444,8892
1659514305.904991,8913
1659514305.947538,8961
1659514305.985813,9013
1659514306.024088,9056
1659514306.062363,9108
1659514306.103372,9153
1659514306.144381,9210
1659514306.182997,9252
1659514306.221614,9295
1659514306.260231,9196
1659514306.299189,9006
1659514306.338148,8844
1659514306.377106,8766
1659514306.418884,8726
1659514306.460662,8697
1659514306.502439,8688
1659514306.544217,8674
1659514306.583518,8648
1659514306.622818,8639
1659514306.662118,8658
1659514306.70364,8704
1659514306.745161,8736
1659514306.784119,8788
1659514306.823078,8843
1659514306.862036,8896
1659514306.901336,8927
1659514306.940637,8972
1659514306.979937,9000
1659514307.020433,9030
1659514307.06093,8950
1659514307.099888,8780
1659514307.138846,8652
1659514307.177805,8594
1659514307.220352,8572
1659514307.262898,8578
1659514307.306983,8594
1659514307.351068,8624
1659514307.395152,8643
1659514307.427447,8664
1659514307.459741,8690
1659514307.505193,8737
1659514307.550644,8790
1659514307.596096,8830
1659514307.634712,8885
1659514307.673329,8936
1659514307.711946,8980
1659514307.75398,9024
1659514307.796014,9073
1659514307.835656,9112
1659514307.875298,9078
1659514307.91494,8919
1659514307.955949,8807
1659514307.996958,8769
1659514308.034891,8753
1659514308.072824,8760
1659514308.110757,8777
1659514308.150058,8778
1659514308.189358,8770
1659514308.228658,8765
1659514308.27018,8782
1659514308.311701,8811
1659514308.350318,8851
1659514308.388934,8883
1659514308.427551,8926
1659514308.465826,8959
1659514308.504101,8993
1659514308.542376,9025
1659514308.583385,9070
1659514308.624394,9050
1659514308.663352,8913
1659514308.702311,8745
1659514308.741269,8640
1659514308.783303,8609
1659514308.825337,8576
1659514308.869764,8567
1659514308.91419,8585
1659514308.958616,8582
1659514308.991423,8574
1659514309.02423,8586
1659514309.068999,8614
1659514309.113767,8640
1659514309.158535,8692
1659514309.191854,8720
1659514309.225174,8753
1659514309.268917,8799
1659514309.31266,8836
1659514309.356403,8873
1659514309.395703,8921
1659514309.435003,8973
1659514309.474303,8977
1659514309.515312,8861
1659514309.556321,8702
1659514309.595279,8608
1659514309.634238,8573
1659514309.673196,8537
1659514309.714205,8543
1659514309.755214,8557
1659514309.794514,8574
1659514309.833815,8582
1659514309.873115,8596
1659514309.911731,8627
1659514309.950348,8670
1659514309.988965,8721
1659514310.031512,8772
1659514310.074059,8821
1659514310.113017,8872
1659514310.151975,8916
1659514310.190934,8970
1659514310.232455,9019
1659514310.273977,9072
1659514310.312593,9126
1659514310.35121,9189
1659514310.389827,9237
1659514310.432374,9234
1659514310.474921,9118
1659514310.513537,9007
1659514310.552154,8971
1659514310.59077,8964
1659514310.631779,8967
1659514310.672788,8986
1659514310.711747,9003
1659514310.750705,9009
1659514310.789664,9023
1659514310.83409,9033
1659514310.878516,9070
1659514310.922943,9101
1659514310.964464,9129
1659514311.005986,9167
1659514311.045286,9200
1659514311.084586,9233
1659514311.123886,9258
1659514311.164895,9298
1659514311.205904,9335
1659514311.244863,9366
1659514311.283821,9408
1659514311.322779,9451
1659514311.361054,9441
1659514311.399329,9320
1659514311.437604,9166
1659514311.480151,9089
1659514311.522698,9059
1659514311.562828,9031
1659514311.602958,9026
1659514311.643088,9027
1659514311.683218,9029
1659514311.723348,9029
1659514311.763479,9022
1659514311.803609,9036
1659514311.842226,9069
1659514311.880842,9105
1659514311.919459,9129
1659514311.96098,9157
1659514312.002502,9195
1659514312.041802,9222
1659514312.081102,9275
1659514312.120403,9296
1659514312.159019,9328
1659514312.197636,9379
1659514312.236253,9412
1659514312.277774,9455
1659514312.319296,9483
1659514312.358938,9395
1659514312.39858,9237
1659514312.438221,9129
1659514312.478718,9081
1659514312.519214,9044
1659514312.557147,9035
1659514312.595081,9035
1659514312.633014,9037
1659514312.676073,9031
1659514312.719132,9050
1659514312.757407,9068
1659514312.795682,9098
1659514312.833957,9138
1659514312.874454,9179
1659514312.91495,9219
1659514312.95425,9261
1659514312.99355,9302
1659514313.032851,9345
1659514313.077619,9388
1659514313.122387,9430
1659514313.167155,9482
1659514313.209189,9523
1659514313.251223,9573
1659514313.290523,9618
1659514313.329823,9606
1659514313.369123,9495
1659514313.411158,9363
1659514313.453192,9302
1659514313.491467,9288
1659514313.529742,9273
1659514313.568017,9277
1659514313.607317,9270
1659514313.646617,9252
1659514313.685917,9237
1659514313.727951,9259
1659514313.769985,9259
1659514313.807919,9278
1659514313.845852,9320
1659514313.883785,9342
1659514313.925307,9362
1659514313.966828,9391
1659514314.005445,9416
1659514314.044062,9443
1659514314.082678,9474
1659514314.121637,9508
1659514314.160595,9538
1659514314.199554,9584
1659514314.241075,9541
1659514314.282597,9392
1659514314.321213,9233
1659514314.35983,9153
1659514314.398447,9117
1659514314.439456,9084
1659514314.480465,9072
1659514314.519765,9068
1659514314.559065,9056
1659514314.598365,9040
1659514314.640399,9044
1659514314.682434,9058
1659514314.726176,9077
1659514314.769919,9111
1659514314.813662,9134
1659514314.846469,9161
1659514314.879276,9185
1659514314.923361,9216
1659514314.967445,9248
1659514315.01153,9293
1659514315.050488,9325
1659514315.089447,9374
1659514315.128405,9410
1659514315.169414,9381
1659514315.210423,9230
1659514315.249723,9091
1659514315.289023,9040
1659514315.328324,9011
1659514315.36694,8997
1659514315.405557,9000
1659514315.444174,9011
1659514315.485695,9019
1659514315.527217,9012
1659514315.566517,9034
1659514315.605817,9069
1659514315.645118,9108
1659514315.684418,9148
1659514315.723718,9192
1659514315.763018,9234
1659514315.803514,9277
1659514315.844011,9313
1659514315.882969,9352
1659514315.921927,9408
1659514315.960886,9450
1659514316.003433,9488
1659514316.045979,9472
1659514316.089722,9337
1659514316.133465,9196
1659514316.177208,9140
1659514316.210015,9125
1659514316.242822,9118
1659514316.287248,9127
1659514316.331675,9121
1659514316.376101,9102
1659514316.409933,9091
1659514316.443766,9098
1659514316.488534,9119
1659514316.533302,9152
1659514316.57807,9184
1659514316.617028,9209
1659514316.655987,9254
1659514316.694945,9266
1659514316.735954,9304
1659514316.776963,9334
1659514316.815922,9374
1659514316.85488,9400
1659514316.893838,9427
1659514316.934027,9324
1659514316.974216,9141
1659514317.014405,9027
1659514317.054593,8979
1659514317.094782,8948
1659514317.135791,8926
1659514317.1768,8921
1659514317.215758,8912
1659514317.254717,8894
1659514317.293675,8895
1659514317.33195,8898
1659514317.370225,8928
1659514317.4085,8957
1659514317.450022,8996
1659514317.491543,9019
1659514317.531185,9056
1659514317.570827,9098
1659514317.610469,9127
1659514317.651478,9159
1659514317.692487,9207
1659514317.731103,9263
1659514317.76972,9286
1659514317.808337,9197
1659514317.850884,9022
1659514317.89343,8921
1659514317.932047,8884
1659514317.970664,8859
1659514318.00928,8856
1659514318.049777,8867
1659514318.090273,8873
1659514318.129231,8864
1659514318.16819,8885
1659514318.207149,8907
1659514318.251233,8942
1659514318.295318,8987
1659514318.339402,9021
1659514318.380924,9069
1659514318.422445,9111
1659514318.461404,9144
1659514318.500362,9183
1659514318.53932,9222
1659514318.577937,9273
1659514318.616554,9319
1659514318.655171,9354
1659514318.69618,9297
1659514318.737189,9144
1659514318.777172,9004
1659514318.817156,8949
1659514318.85714,8933
1659514318.898661,8936
1659514318.940182,8931
1659514318.979141,8919
1659514319.0181,8906
1659514319.057058,8895
1659514319.096358,8923
1659514319.135658,8942
1659514319.174958,8980
1659514319.217505,9009
1659514319.260052,9034
1659514319.298327,9066
1659514319.336602,9101
1659514319.374877,9131
1659514319.416398,9165
1659514319.45792,9202
1659514319.496536,9243
1659514319.535153,9299
1659514319.57377,9254
1659514319.616317,9088
1659514319.658864,8902
1659514319.702948,8800
1659514319.747033,8751
1659514319.791117,8706
1659514319.824437,8693
1659514319.857757,8690
1659514319.902183,8687
1659514319.946609,8664
1659514319.991035,8671
1659514320.024868,8690
1659514320.0587,8720
1659514320.103468,8753
1659514320.148236,8791
1659514320.193004,8837
1659514320.231279,8865
1659514320.269554,8918
1659514320.307829,8954
1659514320.348838,8995
1659514320.389847,9054
1659514320.428806,9097
1659514320.467764,9149
1659514320.506722,9190
1659514320.544997,9099
1659514320.583272,8916
1659514320.621547,8796
1659514320.663582,8756
1659514320.705616,8740
1659514320.743891,8725
1659514320.782166,8730
1659514320.820441,8734
1659514320.862475,8723
1659514320.904509,8728
1659514320.943125,8750
1659514320.981742,8792
1659514321.020359,8832
1659514321.059317,8873
1659514321.098276,8916
1659514321.137234,8947
1659514321.179781,8997
1659514321.222328,9021
1659514321.263337,9061
1659514321.304346,9109
1659514321.342621,9133
1659514321.380896,9183
1659514321.419171,9209
1659514321.463597,9103
1659514321.508023,8900
1659514321.552449,8777
1659514321.586282,8706
1659514321.620114,8688
1659514321.664199,8679
1659514321.708283,8679
1659514321.752368,8662
1659514321.785687,8662
1659514321.819007,8659
1659514321.863092,8679
1659514321.907176,8716
1659514321.951261,8752
1659514321.989878,8787
1659514322.028494,8824
1659514322.067111,8865
1659514322.11017,8894
1659514322.15323,8932
1659514322.193008,8969
1659514322.232787,9020
1659514322.272566,9081
1659514322.312344,9146
1659514322.352123,9203
1659514322.391423,9118
1659514322.430723,8922
1659514322.470024,8765
1659514322.508982,8671
1659514322.54794,8623
1659514322.586899,8590
1659514322.627395,8578
1659514322.667892,8560
1659514322.707192,8540
1659514322.746492,8509
1659514322.785792,8494
1659514322.826801,8498
1659514322.86781,8526
1659514322.90711,8571
1659514322.94641,8627
1659514322.98571,8699
1659514323.026719,8762
1659514323.067728,8837
1659514323.106687,8903
1659514323.145645,8984
1659514323.184604,9032
1659514323.225613,9098
1659514323.266621,9157
1659514323.311731,9108
1659514323.356841,8949
1659514323.401951,8806
1659514323.440909,8764
1659514323.479868,8754
1659514323.518826,8775
1659514323.559835,8787
1659514323.600844,8796
1659514323.639802,8813
1659514323.678761,8821
1659514323.717719,8850
1659514323.755994,8894
1659514323.794269,8938
1659514323.832544,8979
1659514323.874066,9031
1659514323.915587,9067
1659514323.954546,9095
1659514323.993504,9141
1659514324.032463,9182
1659514324.070738,9232
1659514324.109013,9270
1659514324.147288,9289
1659514324.188809,9166
1659514324.23033,9000
1659514324.268947,8895
1659514324.307564,8869
1659514324.346181,8866
1659514324.388215,8873
1659514324.430249,8888
1659514324.468866,8876
1659514324.507482,8864
1659514324.546099,8874
1659514324.58762,8911
1659514324.629142,8953
1659514324.667759,8987
1659514324.706376,9043
1659514324.744992,9081
1659514324.789077,9126
1659514324.833161,9166
1659514324.877246,9209
1659514324.919793,9250
1659514324.962339,9292
1659514325.001298,9343
1659514325.040256,9370
1659514325.079215,9266
1659514325.119711,9048
1659514325.160207,8911
1659514325.199507,8831
1659514325.238808,8769
1659514325.278108,8737
1659514325.317066,8716
1659514325.356025,8700
1659514325.394983,8687
1659514325.43753,8680
1659514325.480077,8682
1659514325.518693,8710
1659514325.55731,8736
1659514325.595927,8771
1659514325.637961,8813
1659514325.679995,8855
1659514325.718612,8892
1659514325.757229,8946
1659514325.795845,8990
1659514325.835145,9037
1659514325.874446,9098
1659514325.913746,9142
1659514325.954755,9151
1659514325.995764,9014
1659514326.03438,8825
1659514326.072997,8719
1659514326.111614,8674
1659514326.15211,8649
1659514326.192606,8650
1659514326.237033,8656
1659514326.281459,8651
1659514326.325885,8646
1659514326.359718,8642
1659514326.39355,8671
1659514326.437635,8721
1659514326.481719,8768
1659514326.525804,8814
1659514326.558611,8865
1659514326.591418,8911
1659514326.636528,8946
1659514326.681638,8991
1659514326.726747,9019
1659514326.765706,9057
1659514326.804664,9071
1659514326.843623,9063
1659514326.885144,8929
1659514326.926666,8697
1659514326.965624,8523
1659514327.004583,8434
1659514327.043541,8378
1659514327.081474,8335
1659514327.119408,8336
1659514327.157341,8306
1659514327.198862,8292
1659514327.240384,8298
1659514327.279684,8319
1659514327.318984,8352
1659514327.358284,8380
1659514327.397858,8422
1659514327.437432,8473
1659514327.477005,8546
1659514327.516579,8610
1659514327.556152,8684
1659514327.60092,8772
1659514327.645689,8846
1659514327.690456,8917
1659514327.728731,8974
1659514327.767006,8987
1659514327.805281,8831
1659514327.847316,8628
1659514327.88935,8504
1659514327.928992,8445
1659514327.968633,8409
1659514328.008276,8407
1659514328.048772,8459
1659514328.089268,8493
1659514328.127885,8500
1659514328.166502,8520
1659514328.205118,8551
1659514328.244077,8594
1659514328.283035,8647
1659514328.321994,8695
1659514328.364028,8738
1659514328.406062,8771
1659514328.444679,8796
1659514328.483295,8829
1659514328.521912,8856
1659514328.563946,8888
1659514328.60598,8928
1659514328.644597,8967
1659514328.683214,8900
1659514328.72183,8705
1659514328.761131,8526
1659514328.800431,8442
1659514328.839731,8409
1659514328.881765,8394
1659514328.923799,8403
1659514328.962758,8412
1659514329.001716,8413
1659514329.040674,8409
1659514329.081683,8435
1659514329.122692,8448
1659514329.16746,8459
1659514329.212228,8497
1659514329.256996,8516
1659514329.290316,8556
1659514329.323636,8596
1659514329.36772,8669
1659514329.411805,8743
1659514329.45589,8862
1659514329.488697,8951
1659514329.521504,9047
1659514329.56593,9080
1659514329.610357,9002
1659514329.654783,8891
1659514329.693741,8844
1659514329.7327,8822
1659514329.771658,8766
1659514329.810958,8741
1659514329.850259,8717
1659514329.889559,8678
1659514329.930568,8647
1659514329.971576,8635
1659514330.010193,8652
1659514330.04881,8699
1659514330.087427,8756
1659514330.126043,8824
1659514330.16466,8894
1659514330.203277,8967
1659514330.245311,9039
1659514330.287345,9110
1659514330.325962,9164
1659514330.364578,9227
1659514330.403195,9285
1659514330.444204,9341
1659514330.485213,9379
1659514330.529639,9280
1659514330.574066,9119
1659514330.618492,9032
1659514330.652324,9005
1659514330.686157,8973
1659514330.730241,8982
1659514330.774326,8985
1659514330.81841,8995
1659514330.857369,9014
1659514330.896327,9040
1659514330.935286,9063
1659514330.976807,9105
1659514331.018329,9151
1659514331.057629,9188
1659514331.096929,9240
1659514331.136229,9276
1659514331.178263,9313
1659514331.220298,9354
1659514331.259598,9402
1659514331.298898,9455
1659514331.338198,9521
1659514331.376473,9583
1659514331.414748,9626
1659514331.453023,9545
1659514331.494545,9383
1659514331.536066,9288
1659514331.574683,9246
1659514331.613299,9214
1659514331.651916,9215
1659514331.69395,9240
1659514331.735984,9259
1659514331.774943,9269
1659514331.813901,9284
1659514331.85286,9331
1659514331.894381,9403
1659514331.935903,9462
1659514331.974178,9531
1659514332.012453,9588
1659514332.050728,9630
1659514332.093787,9681
1659514332.136847,9737
1659514332.175805,9785
1659514332.214763,9834
1659514332.253722,9903
1659514332.294731,9955
1659514332.33574,10005
1659514332.374698,9986
1659514332.413656,9832
1659514332.452615,9682
1659514332.497041,9599
1659514332.541468,9545
1659514332.585894,9502
1659514332.624852,9497
1659514332.663811,9508
1659514332.702769,9509
1659514332.741728,9520
1659514332.780686,9523
1659514332.819645,9551
1659514332.857578,9591
1659514332.895511,9657
1659514332.933444,9730
1659514332.973941,9808
1659514333.014437,9874
1659514333.053737,9931
1659514333.093037,9991
1659514333.132338,10054
1659514333.174371,10118
1659514333.216406,10180
1659514333.255023,10220
1659514333.293639,10150
1659514333.332256,9974
1659514333.37429,9823
1659514333.416324,9745
1659514333.46075,9713
1659514333.505177,9685
1659514333.549603,9665
1659514333.587536,9645
1659514333.625469,9621
1659514333.663403,9618
1659514333.70595,9623
1659514333.748496,9637
1659514333.787113,9641
1659514333.82573,9644
1659514333.864346,9648
1659514333.902621,9677
1659514333.940896,9704
1659514333.979171,9736
1659514334.020693,9783
1659514334.062214,9818
1659514334.101173,9865
1659514334.140131,9860
1659514334.17909,9715
1659514334.218048,9501
1659514334.257007,9390
1659514334.295965,9345
1659514334.337999,9316
1659514334.380033,9298
1659514334.418992,9282
1659514334.45795,9280
1659514334.496909,9283
1659514334.53843,9303
1659514334.579952,9346
1659514334.619252,9380
1659514334.658552,9422
1659514334.697852,9482
1659514334.739374,9537
1659514334.780895,9598
1659514334.82498,9652
1659514334.869064,9706
1659514334.913149,9757
1659514334.952107,9809
1659514334.991066,9852
1659514335.030024,9823
1659514335.071546,9666
1659514335.113067,9506
1659514335.152026,9448
1659514335.190984,9445
1659514335.229943,9438
1659514335.268901,9466
1659514335.30786,9518
1659514335.346818,9558
1659514335.388852,9616
1659514335.430886,9683
1659514335.469503,9745
1659514335.50812,9812
1659514335.546736,9879
1659514335.588771,9923
1659514335.630805,9959
1659514335.669763,9992
1659514335.708722,10020
1659514335.74768,10074
1659514335.786297,10121
1659514335.824914,10162
1659514335.86353,10132
1659514335.904027,9990
1659514335.944523,9841
1659514335.98314,9779
1659514336.021756,9721
1659514336.060373,9685
1659514336.102407,9667
1659514336.144441,9632
1659514336.182374,9592
1659514336.220308,9551
1659514336.258241,9544
1659514336.29925,9539
1659514336.340259,9548
1659514336.385027,9552
1659514336.429795,9570
1659514336.474563,9584
1659514336.51318,9600
1659514336.551796,9621
1659514336.590413,9650
1659514336.632447,9667
1659514336.674481,9687
1659514336.713781,9633
1659514336.753082,9435
1659514336.792382,9204
1659514336.833391,9077
1659514336.8744,9003
1659514336.913016,8949
1659514336.951633,8907
1659514336.99025,8895
1659514337.029208,8886
1659514337.068166,8867
1659514337.107125,8868
1659514337.148647,8894
1659514337.190168,8940
1659514337.229126,8977
1659514337.268085,9023
1659514337.307044,9044
1659514337.348565,9072
1659514337.390086,9105
1659514337.428361,9103
1659514337.466636,9102
1659514337.504911,9108
1659514337.544553,9120
1659514337.584195,9086
1659514337.623837,8939
1659514337.665359,8743
1659514337.70688,8630
1659514337.748402,8555
1659514337.789923,8479
1659514337.831786,8454
1659514337.87365,8458
1659514337.915513,8440
1659514337.957376,8437
1659514337.999239,8451
1659514338.041103,8494
1659514338.078011,8525
1659514338.114919,8557
1659514338.151827,8586
1659514338.188735,8624
1659514338.231282,8644
1659514338.273828,8691
1659514338.312445,8722
1659514338.351062,8749
1659514338.389678,8777
1659514338.427953,8769
1659514338.466228,8647
1659514338.504503,8475
1659514338.546537,8369
1659514338.588572,8306
1659514338.631118,8253
1659514338.673665,8236
1659514338.712282,8228
1659514338.750898,8217
1659514338.789515,8211
1659514338.833941,8230
1659514338.878368,8264
1659514338.922794,8332
1659514338.956114,8384
1659514338.989434,8441
1659514339.033176,8517
1659514339.076919,8605
1659514339.120662,8678
1659514339.154494,8747
1659514339.188327,8827
1659514339.232411,8916
1659514339.276496,9022
1659514339.32058,9099
1659514339.358514,9091
1659514339.396447,8958
1659514339.43438,8816
1659514339.472997,8725
1659514339.511614,8644
1659514339.55023,8554
1659514339.591752,8500
1659514339.633273,8454
1659514339.672232,8404
1659514339.71119,8369
1659514339.750149,8352
1659514339.79167,8356
1659514339.833192,8395
1659514339.87215,8423
1659514339.911108,8472
1659514339.950067,8524
1659514339.992101,8574
1659514340.034135,8637
1659514340.073094,8721
1659514340.112052,8803
1659514340.151011,8888
1659514340.193045,8988
1659514340.235079,9066
1659514340.274037,9133
1659514340.312996,9116
1659514340.351954,8992
1659514340.395697,8876
1659514340.43944,8832
1659514340.483183,8807
1659514340.517015,8792
1659514340.550847,8810
1659514340.595274,8780
1659514340.6397,8747
1659514340.684126,8707
1659514340.725135,8685
1659514340.766144,8679
1659514340.805444,8684
1659514340.844744,8680
1659514340.884045,8686
1659514340.923345,8682
1659514340.962645,8689
1659514341.001945,8716
1659514341.043467,8744
1659514341.084988,8770
1659514341.123947,8803
1659514341.162905,8819
1659514341.201864,8730
1659514341.244411,8558
1659514341.286957,8422
1659514341.325232,8355
1659514341.363507,8321
1659514341.401782,8291
1659514341.440399,8296
1659514341.479016,8299
1659514341.517632,8288
1659514341.560692,8280
1659514341.603751,8292
1659514341.641684,8291
1659514341.679617,8298
1659514341.717551,8340
1659514341.758047,8354
1659514341.798543,8389
1659514341.838185,8422
1659514341.877827,8465
1659514341.917469,8509
1659514341.958991,8571
1659514342.000512,8633
1659514342.03947,8720
1659514342.078429,8833
1659514342.117387,8851
1659514342.158909,8760
1659514342.20043,8686
1659514342.244857,8678
1659514342.289283,8681
1659514342.333709,8698
1659514342.371643,8760
1659514342.409576,8819
1659514342.447509,8865
1659514342.490568,8886
1659514342.533628,8919
1659514342.571903,8938
1659514342.610178,8976
1659514342.648453,9022
1659514342.686728,9061
1659514342.725003,9106
1659514342.763278,9134
1659514342.805312,9190
1659514342.847346,9221
1659514342.885621,9249
1659514342.923896,9263
1659514342.962171,9275
1659514343.003692,9265
1659514343.045214,9110
1659514343.084343,8892
1659514343.123472,8766
1659514343.162602,8691
1659514343.201731,8623
1659514343.24086,8597
1659514343.27999,8585
1659514343.322024,8587
1659514343.364058,8610
1659514343.403358,8653
1659514343.442658,8713
1659514343.481958,8764
1659514343.526385,8820
1659514343.570811,8895
1659514343.615237,8962
1659514343.655734,9018
1659514343.69623,9061
1659514343.73553,9096
1659514343.77483,9132
1659514343.814131,9170
1659514343.852747,9192
1659514343.891364,9198
1659514343.929981,9094
1659514343.972015,8871
1659514344.014049,8690
1659514344.053007,8596
1659514344.091966,8536
1659514344.130924,8490
1659514344.172958,8502
1659514344.214993,8492
1659514344.253609,8485
1659514344.292226,8486
1659514344.330843,8493
1659514344.370143,8520
1659514344.409443,8553
1659514344.448743,8587
1659514344.490777,8607
1659514344.532812,8644
1659514344.571428,8678
1659514344.610045,8713
1659514344.648662,8744
1659514344.689671,8774
1659514344.73068,8820
1659514344.769296,8799
1659514344.807913,8661
1659514344.84653,8485
1659514344.888564,8398
1659514344.930598,8374
1659514344.969215,8360
1659514345.007831,8381
1659514345.046448,8408
1659514345.090191,8434
1659514345.133934,8435
1659514345.177676,8454
1659514345.218685,8495
1659514345.259694,8525
1659514345.298653,8552
1659514345.337611,8582
1659514345.37657,8602
1659514345.419116,8616
1659514345.461663,8648
1659514345.50028,8656
1659514345.538897,8678
1659514345.577513,8707
1659514345.616472,8651
1659514345.65543,8501
1659514345.694389,8377
1659514345.734885,8350
1659514345.775381,8348
1659514345.81434,8360
1659514345.853298,8388
1659514345.892256,8402
1659514345.933778,8394
1659514345.9753,8380
1659514346.013916,8380
1659514346.052533,8394
1659514346.09115,8402
1659514346.129766,8414
1659514346.168383,8443
1659514346.207,8471
1659514346.247496,8500
1659514346.287992,8531
1659514346.327634,8560
1659514346.367276,8613
1659514346.406918,8582
1659514346.448952,8443
1659514346.490987,8336
1659514346.535071,8301
1659514346.579156,8319
1659514346.62324,8349
1659514346.657073,8401
1659514346.690905,8432
1659514346.735673,8464
1659514346.780441,8496
1659514346.825209,8550
1659514346.858016,8625
1659514346.890823,8700
1659514346.93525,8752
1659514346.979676,8802
1659514347.024102,8861
1659514347.063402,8898
1659514347.102703,8956
1659514347.142003,8990
1659514347.182499,9034
1659514347.222995,9042
1659514347.262295,8933
1659514347.301596,8811
1659514347.340896,8764
1659514347.38293,8789
1659514347.424964,8824
1659514347.463239,8878
1659514347.501514,8905
1659514347.539789,8900
1659514347.578748,8922
1659514347.617706,8950
1659514347.656664,8985
1659514347.699211,9014
1659514347.741758,9048
1659514347.780033,9063
1659514347.818308,9090
1659514347.856583,9103
1659514347.895541,9114
1659514347.9345,9150
1659514347.973458,9182
1659514348.01498,9194
1659514348.056501,9098
1659514348.098535,8963
1659514348.140569,8914
1659514348.178844,8913
1659514348.217119,8930
1659514348.255394,8925
1659514348.296916,8911
1659514348.338438,8883
1659514348.378216,8858
1659514348.417995,8870
1659514348.457773,8908
1659514348.497552,8966
1659514348.537331,9020
1659514348.576289,9048
1659514348.615247,9066
1659514348.654206,9080
1659514348.695728,9102
1659514348.737249,9134
1659514348.781333,9139
1659514348.825418,9073
1659514348.869503,8933
1659514348.903335,8816
1659514348.937167,8787
1659514348.981936,8809
1659514349.026704,8824
1659514349.071471,8844
1659514349.109746,8839
1659514349.148021,8845
1659514349.186296,8862
1659514349.227305,8913
1659514349.268314,8937
1659514349.306931,8977
1659514349.345548,9016
1659514349.384164,9043
1659514349.425686,9075
1659514349.467207,9113
1659514349.506166,9153
1659514349.545124,9184
1659514349.584083,9185
1659514349.622699,9080
1659514349.661316,8991
1659514349.699933,8957
1659514349.741967,8972
1659514349.784001,9022
1659514349.82296,9058
1659514349.861918,9053
1659514349.900877,9040
1659514349.943423,9051
1659514349.98597,9069
1659514350.024928,9118
1659514350.063887,9151
1659514350.102845,9185
1659514350.144367,9230
1659514350.185888,9267
1659514350.224847,9313
1659514350.263805,9345
1659514350.302764,9389
1659514350.344798,9352
1659514350.386832,9244
1659514350.425107,9166
1659514350.463382,9159
1659514350.501657,9202
1659514350.546083,9235
1659514350.590509,9264
1659514350.634936,9255
1659514350.668256,9224
1659514350.701575,9234
1659514350.74566,9261
1659514350.789744,9297
1659514350.833829,9334
1659514350.867149,9381
1659514350.900468,9420
1659514350.945236,9462
1659514350.990005,9499
1659514351.034773,9536
1659514351.073389,9543
1659514351.112006,9431
1659514351.150623,9305
1659514351.192144,9258
1659514351.233666,9276
1659514351.272624,9318
1659514351.311583,9355
1659514351.350541,9352
1659514351.392063,9336
1659514351.433584,9346
1659514351.471859,9364
1659514351.510134,9411
1659514351.548409,9447
1659514351.587368,9501
1659514351.626326,9536
1659514351.665284,9590
1659514351.705781,9640
1659514351.746277,9684
1659514351.785577,9685
1659514351.824878,9566
1659514351.864178,9441
1659514351.906212,9402
1659514351.948246,9400
1659514351.986521,9428
1659514352.024796,9455
1659514352.063071,9439
1659514352.10408,9402
1659514352.145089,9391
1659514352.185072,9389
1659514352.225056,9415
1659514352.26504,9438
1659514352.306561,9459
1659514352.348083,9490
1659514352.392509,9518
1659514352.436935,9540
1659514352.481362,9523
1659514352.520662,9374
1659514352.559962,9185
1659514352.599262,9092
1659514352.639758,9056
1659514352.680255,9056
1659514352.719213,9068
1659514352.758172,9045
1659514352.79713,9014
1659514352.839164,8979
1659514352.881198,8976
1659514352.919815,8984
1659514352.958432,9016
1659514352.997048,9039
1659514353.036007,9055
1659514353.074965,9087
1659514353.113924,9107
1659514353.156471,9139
1659514353.199017,9138
1659514353.237976,9033
1659514353.276934,8834
1659514353.315893,8702
1659514353.354509,8645
1659514353.393126,8624
1659514353.431743,8610
1659514353.474033,8602
1659514353.516324,8596
1659514353.558614,8557
1659514353.600904,8546
1659514353.640273,8574
1659514353.679641,8631
1659514353.71901,8670
1659514353.758379,8688
1659514353.797747,8719
1659514353.836706,8754
1659514353.875664,8804
1659514353.914623,8872
1659514353.956144,8955
1659514353.997666,9003
1659514354.036282,8915
1659514354.074899,8843
1659514354.113516,8857
1659514354.15555,8908
1659514354.197584,8955
1659514354.236201,9021
1659514354.274817,9030
1659514354.313434,9019
1659514354.355468,9010
1659514354.397502,9004
1659514354.436119,9010
1659514354.474736,9029
1659514354.513352,9054
1659514354.557779,9062
1659514354.602205,9093
1659514354.646631,9123
1659514354.68764,9153
1659514354.728649,9195
1659514354.767608,9236
1659514354.806566,9215
1659514354.845525,9071
1659514354.887046,8919
1659514354.928568,8852
1659514354.966843,8838
1659514355.005118,8836
1659514355.043392,8850
1659514355.082009,8852
1659514355.120626,8843
1659514355.159243,8841
1659514355.200764,8850
1659514355.242286,8882
1659514355.281244,8914
1659514355.320203,8938
1659514355.359161,8972
1659514355.398119,8994
1659514355.437078,9032
1659514355.476036,9049
1659514355.518583,9084
1659514355.56113,9112
1659514355.599747,9111
1659514355.638363,8987
1659514355.67698,8863
1659514355.717989,8812
1659514355.758998,8789
1659514355.798298,8778
1659514355.837598,8781
1659514355.876899,8799
1659514355.91842,8766
1659514355.959941,8752
1659514356.004368,8767
1659514356.048794,8809
1659514356.09322,8880
1659514356.132179,8977
1659514356.171137,9061
1659514356.210096,9110
1659514356.250592,9142
1659514356.291088,9139
1659514356.330047,9173
1659514356.369005,9218
1659514356.407964,9193
1659514356.450511,9042
1659514356.493057,8847
1659514356.532016,8731
1659514356.570974,8660
1659514356.609932,8612
1659514356.648549,8581
1659514356.687166,8533
1659514356.725783,8479
1659514356.768329,8441
1659514356.810876,8437
1659514356.849493,8444
1659514356.888109,8485
1659514356.926726,8538
1659514356.965343,8594
1659514357.00396,8648
1659514357.042576,8695
1659514357.084098,8753
1659514357.125619,8819
1659514357.163553,8909
1659514357.201486,8994
1659514357.239419,8965
1659514357.281453,8842
1659514357.323487,8739
1659514357.362104,8730
1659514357.400721,8746
1659514357.439337,8798
1659514357.480859,8817
1659514357.522381,8814
1659514357.566465,8793
1659514357.61055,8775
1659514357.654634,8775
1659514357.688979,8772
1659514357.723324,8776
1659514357.767751,8792
1659514357.812177,8802
1659514357.856603,8833
1659514357.894878,8867
1659514357.933153,8906
1659514357.971428,8964
1659514358.012949,9026
1659514358.054471,9053
1659514358.093088,8962
1659514358.131704,8761
1659514358.170321,8635
1659514358.208596,8590
1659514358.246871,8573
1659514358.285146,8563
1659514358.327693,8586
1659514358.370239,8588
1659514358.408514,8581
1659514358.44679,8606
1659514358.485065,8622
1659514358.526073,8667
1659514358.567082,8715
1659514358.606382,8771
1659514358.645683,8823
1659514358.684983,8883
1659514358.723941,8925
1659514358.7629,8974
1659514358.801858,9036
1659514358.843892,9080
1659514358.885926,9139
1659514358.928217,9188
1659514358.970507,9180
1659514359.012798,9013
1659514359.055088,8867
1659514359.093705,8814
1659514359.132322,8807
1659514359.170938,8803
1659514359.209213,8809
1659514359.247488,8825
1659514359.285763,8820
1659514359.330531,8803
1659514359.375299,8817
1659514359.420067,8834
1659514359.452362,8872
1659514359.484656,8912
1659514359.528741,8971
1659514359.572825,9020
1659514359.61691,9081
1659514359.650742,9131
1659514359.684575,9177
1659514359.729001,9235
1659514359.773427,9283
1659514359.817854,9330
1659514359.856812,9386
1659514359.895771,9421
1659514359.934729,9341
1659514359.976763,9132
1659514360.018797,8968
1659514360.057756,8905
1659514360.096714,8885
1659514360.135673,8869
1659514360.177707,8855
1659514360.219741,8840
1659514360.258358,8815
1659514360.296974,8819
1659514360.335591,8847
1659514360.374549,8865
1659514360.413508,8877
1659514360.452466,8875
1659514360.492963,8873
1659514360.533459,8881
1659514360.572759,8880
1659514360.612059,8884
1659514360.65136,8904
1659514360.692881,8940
1659514360.734403,9007
1659514360.772678,9085
1659514360.810952,9065
1659514360.849227,8951
1659514360.890236,8900
1659514360.931245,8916
1659514360.970887,8963
1659514361.010529,9020
1659514361.050171,9073
1659514361.09118,9099
1659514361.132189,9101
1659514361.176615,9114
1659514361.221041,9147
1659514361.265468,9191
1659514361.304426,9230
1659514361.343385,9274
1659514361.382343,9318
1659514361.423352,9341
1659514361.464361,9382
1659514361.50332,9416
1659514361.542278,9456
1659514361.581236,9483
1659514361.620537,9511
1659514361.659837,9411
1659514361.699137,9199
1659514361.739633,9080
1659514361.780129,9036
1659514361.819088,9035
1659514361.858047,9038
1659514361.897005,9069
1659514361.940064,9080
1659514361.983124,9095
1659514362.02174,9102
1659514362.060357,9107
1659514362.098974,9112
1659514362.137932,9120
1659514362.176891,9150
1659514362.215849,9157
1659514362.257883,9158
1659514362.299917,9185
1659514362.338192,9192
1659514362.376467,9211
1659514362.414742,9212
1659514362.457289,9080
1659514362.499836,8875
1659514362.538452,8749
1659514362.577069,8708
1659514362.615686,8717
1659514362.656695,8743
1659514362.697704,8781
1659514362.741446,8795
1659514362.785189,8801
1659514362.828932,8800
1659514362.863277,8809
1659514362.897622,8839
1659514362.942048,8865
1659514362.986475,8909
1659514363.030901,8942
1659514363.069518,8963
1659514363.108135,9007
1659514363.146751,9051
1659514363.188785,9088
1659514363.230819,9043
1659514363.269778,8883
1659514363.308736,8738
1659514363.347695,8676
1659514363.389216,8680
1659514363.430738,8707
1659514363.470038,8734
1659514363.509338,8740
1659514363.548638,8745
1659514363.586913,8769
1659514363.625188,8821
1659514363.663463,8887
1659514363.704472,8947
1659514363.745481,8998
1659514363.783756,9034
1659514363.822031,9076
1659514363.860306,9110
1659514363.902853,9129
1659514363.9454,9164
1659514363.983674,9098
1659514364.021949,8885
1659514364.060224,8702
1659514364.101746,8612
1659514364.143267,8581
1659514364.183456,8577
1659514364.223645,8581
1659514364.263834,8567
1659514364.304022,8560
1659514364.344211,8565
1659514364.382828,8593
1659514364.421444,8645
1659514364.460061,8690
1659514364.502095,8742
1659514364.544129,8803
1659514364.583088,8862
1659514364.622046,8928
1659514364.661005,9019
1659514364.702526,9072
1659514364.744048,9079
1659514364.788474,8925
1659514364.8329,8758
1659514364.877327,8678
1659514364.910134,8636
1659514364.942941,8600
1659514364.986684,8594
1659514365.030427,8598
1659514365.074169,8581
1659514365.11347,8570
1659514365.15277,8569
1659514365.19207,8593
1659514365.234104,8641
1659514365.276138,8691
1659514365.315097,8740
1659514365.354055,8793
1659514365.393013,8860
1659514365.434535,8929
1659514365.476057,9006
1659514365.515698,9098
1659514365.555341,9177
1659514365.594982,9168
1659514365.633941,9059
1659514365.672899,9009
1659514365.711858,9019
1659514365.752867,9054
1659514365.793876,9093
1659514365.833176,9146
1659514365.872476,9163
1659514365.911776,9160
1659514365.952272,9147
1659514365.992769,9142
1659514366.031727,9160
1659514366.070686,9199
1659514366.109644,9235
1659514366.148944,9273
1659514366.188245,9337
1659514366.227545,9396
1659514366.268041,9473
1659514366.308537,9555
1659514366.349546,9606
1659514366.390555,9664
1659514366.430539,9687
1659514366.470522,9655
1659514366.510506,9476
1659514366.554591,9295
1659514366.598675,9208
1659514366.64276,9183
1659514366.681035,9169
1659514366.71931,9162
1659514366.757585,9157
1659514366.799619,9118
1659514366.841653,9100
1659514366.879928,9108
1659514366.918203,9139
1659514366.956478,9169
1659514366.997999,9211
1659514367.039521,9233
1659514367.078821,9260
1659514367.118121,9298
1659514367.157422,9343
1659514367.195696,9394
1659514367.233971,9452
1659514367.272246,9492
1659514367.312743,9534
1659514367.353239,9479
1659514367.392539,9319
1659514367.431839,9200
1659514367.47114,9170
1659514367.509756,9138
1659514367.548373,9107
1659514367.58699,9085
1659514367.629024,9032
1659514367.671058,8995
1659514367.713092,8978
1659514367.755126,9027
1659514367.794085,9099
1659514367.833043,9183
1659514367.872002,9240
1659514367.913523,9287
1659514367.955045,9333
1659514367.994003,9371
1659514368.032962,9418
1659514368.07192,9463
1659514368.116346,9500
1659514368.160773,9540
1659514368.205199,9582
1659514368.237493,9555
1659514368.269788,9433
1659514368.314214,9331
1659514368.35864,9304
1659514368.403067,9307
1659514368.442025,9299
1659514368.480984,9318
1659514368.519942,9347
1659514368.561464,9382
1659514368.602985,9420
1659514368.642285,9468
1659514368.681586,9519
1659514368.720886,9565
1659514368.76292,9612
1659514368.804954,9643
1659514368.843571,9668
1659514368.882187,9683
1659514368.920804,9699
1659514368.962838,9729
1659514369.004872,9766
1659514369.043831,9785
1659514369.082789,9751
1659514369.121748,9584
1659514369.160023,9408
1659514369.198298,9345
1659514369.236573,9308
1659514369.277582,9318
1659514369.31859,9343
1659514369.357891,9347
1659514369.397191,9327
1659514369.436491,9312
1659514369.477244,9305
1659514369.517996,9306
1659514369.558749,9352
1659514369.599501,9362
1659514369.63846,9371
1659514369.677418,9379
1659514369.716377,9399
1659514369.756019,9429
1659514369.795661,9483
1659514369.835303,9546
1659514369.876312,9549
1659514369.91732,9439
1659514369.961747,9324
1659514370.006173,9324
1659514370.050599,9361
1659514370.083919,9380
1659514370.117239,9421
1659514370.16064,9461
1659514370.204041,9495
1659514370.247442,9528
1659514370.286742,9568
1659514370.326042,9623
1659514370.365343,9672
1659514370.406352,9729
1659514370.447361,9768
1659514370.485977,9804
1659514370.524594,9822
1659514370.56321,9847
1659514370.604219,9891
1659514370.645228,9922
1659514370.68487,9919
1659514370.724512,9774
1659514370.764154,9599
1659514370.802771,9503
1659514370.841388,9478
1659514370.880004,9456
1659514370.921526,9460
1659514370.963047,9460
1659514371.002689,9443
1659514371.042331,9421
1659514371.081973,9423
1659514371.123495,9429
1659514371.165016,9432
1659514371.203633,9463
1659514371.24225,9472
1659514371.280866,9512
1659514371.322901,9556
1659514371.364935,9601
1659514371.403551,9652
1659514371.442168,9700
1659514371.480785,9612
1659514371.522306,9462
1659514371.563828,9399
1659514371.603128,9400
1659514371.642428,9438
1659514371.681728,9479
1659514371.725813,9528
1659514371.769897,9545
1659514371.813982,9565
1659514371.846789,9586
1659514371.879596,9637
1659514371.924706,9679
1659514371.969816,9722
1659514372.014926,9776
1659514372.057472,9815
1659514372.100019,9856
1659514372.138294,9895
1659514372.176569,9944
1659514372.214844,9978
1659514372.254486,9892
1659514372.294128,9772
1659514372.33377,9722
1659514372.374779,9744
1659514372.415788,9739
1659514372.453721,9753
1659514372.491654,9758
1659514372.529587,9741
1659514372.568546,9728
1659514372.607504,9748
1659514372.646463,9776
1659514372.688497,9830
1659514372.730531,9887
1659514372.768806,9934
1659514372.807081,9979
1659514372.845356,10018
1659514372.886365,10056
1659514372.927374,10090
1659514372.966332,10124
1659514373.005291,10090
1659514373.044249,9914
1659514373.085771,9725
1659514373.127292,9626
1659514373.16625,9598
1659514373.205209,9566
1659514373.244167,9519
1659514373.286201,9467
1659514373.328236,9394
1659514373.366852,9347
1659514373.405469,9334
1659514373.444086,9355
1659514373.488512,9368
1659514373.532938,9392
1659514373.577365,9404
1659514373.619399,9389
1659514373.661433,9406
1659514373.699708,9419
1659514373.737983,9430
1659514373.776258,9339
1659514373.817779,9149
1659514373.859301,9006
1659514373.898259,8945
1659514373.937218,8918
1659514373.976176,8918
1659514374.015135,8930
1659514374.054093,8929
1659514374.093052,8923
1659514374.134573,8926
1659514374.176095,8950
1659514374.215053,9012
1659514374.254012,9066
1659514374.29297,9112
1659514374.334491,9157
1659514374.376013,9193
1659514374.415313,9217
1659514374.454613,9260
1659514374.493914,9277
1659514374.533214,9292
1659514374.572514,9220
1659514374.611814,9002
1659514374.653336,8838
1659514374.694857,8772
1659514374.736379,8730
1659514374.7779,8698
1659514374.819422,8705
1659514374.860943,8687
1659514374.900244,8676
1659514374.939544,8668
1659514374.978844,8669
1659514375.017119,8677
1659514375.055394,8705
1659514375.093669,8723
1659514375.13519,8733
1659514375.176712,8753
1659514375.216696,8775
1659514375.256679,8797
1659514375.296663,8833
1659514375.337672,8876
1659514375.378681,8919
1659514375.416956,8915
1659514375.45523,8783
1659514375.493505,8617
1659514375.536052,8539
1659514375.578599,8508
1659514375.622342,8486
1659514375.666085,8489
1659514375.709827,8493
1659514375.743147,8491
1659514375.776467,8475
1659514375.820552,8484
1659514375.864636,8504
1659514375.908721,8534
1659514375.947337,8566
1659514375.985954,8607
1659514376.024571,8625
1659514376.065067,8665
1659514376.105563,8695
1659514376.145205,8720
1659514376.184847,8755
1659514376.224489,8795
1659514376.262764,8844
1659514376.301039,8885
1659514376.339314,8892
1659514376.380323,8760
1659514376.421332,8591
1659514376.460974,8493
1659514376.500616,8451
1659514376.540258,8428
1659514376.582292,8422
1659514376.624326,8428
1659514376.662601,8418
1659514376.700876,8420
1659514376.739151,8411
1659514376.778451,8451
1659514376.817751,8478
1659514376.857051,8509
1659514376.89806,8557
1659514376.939069,8601
1659514376.977344,8631
1659514377.015619,8677
1659514377.053894,8724
1659514377.095928,8770
1659514377.137962,8814
1659514377.18273,8868
1659514377.227499,8917
1659514377.272267,8980
1659514377.304049,9002
1659514377.33583,8902
1659514377.38094,8731
1659514377.42605,8647
1659514377.47116,8619
1659514377.504992,8624
1659514377.538824,8636
1659514377.582909,8640
1659514377.626994,8638
1659514377.671078,8634
1659514377.710378,8655
1659514377.749679,8668
1659514377.788979,8697
1659514377.831013,8735
1659514377.873047,8742
1659514377.911322,8765
1659514377.949597,8785
1659514377.987872,8815
1659514378.030419,8827
1659514378.072965,8860
1659514378.111924,8872
1659514378.150882,8909
1659514378.189841,8952
1659514378.228116,8928
1659514378.266391,8777
1659514378.304666,8616
1659514378.345162,8552
1659514378.385658,8535
1659514378.424958,8546
1659514378.464259,8553
1659514378.503559,8564
1659514378.54508,8568
1659514378.586602,8567
1659514378.62556,8585
1659514378.664519,8619
1659514378.703477,8655
1659514378.744999,8687
1659514378.78652,8725
1659514378.825479,8755
1659514378.864437,8798
1659514378.903396,8840
1659514378.947138,8875
1659514378.990881,8937
1659514379.034624,8978
1659514379.068456,9024
1659514379.102289,9049
1659514379.146373,8985
1659514379.190458,8837
1659514379.234542,8761
1659514379.273159,8765
1659514379.311776,8778
1659514379.350393,8814
1659514379.391402,8843
1659514379.43241,8872
1659514379.471711,8891
1659514379.511011,8911
1659514379.550311,8940
1659514379.588586,8981
1659514379.626861,9025
1659514379.665136,9049
1659514379.706657,9090
1659514379.748179,9101
1659514379.787479,9127
1659514379.826779,9152
1659514379.86608,9170
1659514379.904355,9205
1659514379.942629,9231
1659514379.980904,9260
1659514380.022938,9188
1659514380.064973,9013
1659514380.109399,8878
1659514380.153825,8839
1659514380.198251,8842
1659514380.231059,8853
1659514380.263866,8880
1659514380.308292,8899
1659514380.352718,8877
1659514380.397145,8888
1659514380.436103,8915
1659514380.475062,8952
1659514380.51402,8991
1659514380.556054,9042
1659514380.598088,9083
1659514380.636705,9137
1659514380.675322,9164
1659514380.713938,9201
1659514380.756485,9251
1659514380.799032,9283
1659514380.837649,9311
1659514380.876265,9258
1659514380.914882,9077
1659514380.95384,8920
1659514380.992799,8859
1659514381.031757,8839
1659514381.074817,8833
1659514381.117876,8862
1659514381.156151,8857
1659514381.194426,8841
1659514381.232701,8832
1659514381.273197,8855
1659514381.313694,8877
1659514381.352994,8923
1659514381.392294,8944
1659514381.431594,8979
1659514381.473116,9011
1659514381.514637,9038
1659514381.553254,9072
1659514381.591871,9110
1659514381.630487,9149
1659514381.671496,9192
1659514381.712505,9224
1659514381.751122,9138
1659514381.789739,8948
1659514381.828355,8816
1659514381.87244,8754
1659514381.916524,8740
1659514381.960609,8723
1659514381.994954,8724
1659514382.029299,8715
1659514382.073725,8693
1659514382.118152,8692
1659514382.162578,8702
1659514382.201195,8739
1659514382.239811,8772
1659514382.278428,8810
1659514382.31995,8833
1659514382.361471,8870
1659514382.400429,8904
1659514382.439388,8945
1659514382.478346,8982
1659514382.518843,9027
1659514382.559339,9079
1659514382.598297,9120
1659514382.637256,9168
1659514382.676214,9120
1659514382.714489,8928
1659514382.752764,8767
1659514382.791039,8707
1659514382.833073,8690
1659514382.875108,8677
1659514382.913724,8680
1659514382.952341,8657
1659514382.990958,8618
1659514383.032992,8602
1659514383.075026,8609
1659514383.113643,8651
1659514383.152259,8710
1659514383.190876,8769
1659514383.233423,8815
1659514383.27597,8859
1659514383.314928,8913
1659514383.353886,8977
1659514383.392845,9032
1659514383.434366,9085
1659514383.475888,9157
1659514383.514505,9211
1659514383.553121,9289
1659514383.591738,9346
1659514383.636506,9356
1659514383.681274,9258
1659514383.726042,9171
1659514383.767564,9166
1659514383.809085,9198
1659514383.848044,9237
1659514383.887002,9250
1659514383.925961,9243
1659514383.964577,9197
1659514384.003194,9189
1659514384.041811,9227
1659514384.083845,9267
1659514384.125879,9329
1659514384.164496,9390
1659514384.203112,9456
1659514384.241729,9522
1659514384.284276,9595
1659514384.326823,9647
1659514384.365781,9722
1659514384.404739,9802
1659514384.443698,9863
1659514384.482656,9941
1659514384.521615,10005
1659514384.560573,10046
1659514384.601582,9966
1659514384.642591,9855
1659514384.68155,9801
1659514384.720508,9809
1659514384.759466,9830
1659514384.800988,9860
1659514384.84251,9882
1659514384.881468,9907
1659514384.920426,9904
1659514384.959385,9945
1659514385.000394,9999
1659514385.041403,10039
1659514385.079678,10080
1659514385.117953,10139
1659514385.156228,10180
1659514385.200654,10223
1659514385.24508,10274
1659514385.289506,10311
1659514385.329148,10366
1659514385.36879,10412
1659514385.408432,10456
1659514385.446707,10487
1659514385.484982,10461
1659514385.523257,10354
1659514385.565291,10276
1659514385.607326,10270
1659514385.645942,10294
1659514385.684559,10336
1659514385.723176,10354
1659514385.764697,10354
1659514385.806219,10365
1659514385.845177,10382
1659514385.884135,10408
1659514385.923094,10444
1659514385.964103,10494
1659514386.005112,10527
1659514386.043045,10561
1659514386.080978,10600
1659514386.118912,10627
1659514386.161971,10653
1659514386.20503,10683
1659514386.243647,10714
1659514386.282264,10705
1659514386.32088,10584
1659514386.365307,10445
1659514386.409733,10386
1659514386.454159,10388
1659514386.487479,10397
1659514386.520799,10424
1659514386.565908,10408
1659514386.611018,10390
1659514386.656128,10385
1659514386.697649,10398
1659514386.739171,10423
1659514386.77813,10451
1659514386.817088,10483
1659514386.856046,10511
1659514386.895005,10543
1659514386.933963,10560
1659514386.972922,10576
1659514387.013931,10625
1659514387.05494,10656
1659514387.093556,10682
1659514387.132173,10602
1659514387.17079,10416
1659514387.213336,10263
1659514387.255883,10211
1659514387.294158,10188
1659514387.332433,10159
1659514387.370708,10156
1659514387.409667,10141
1659514387.448625,10124
1659514387.487583,10103
1659514387.529618,10103
1659514387.571652,10114
1659514387.609927,10137
1659514387.648202,10166
1659514387.686477,10183
1659514387.728511,10226
1659514387.770545,10258
1659514387.809845,10298
1659514387.849145,10316
1659514387.888445,10331
1659514387.928942,10352
1659514387.969438,10323
1659514388.008055,10165
1659514388.046671,9982
1659514388.085288,9897
1659514388.129373,9855
1659514388.173457,9818
1659514388.217542,9808
1659514388.259576,9789
1659514388.30161,9760
1659514388.339885,9739
1659514388.37816,9725
1659514388.416435,9737
1659514388.458469,9760
1659514388.500503,9790
1659514388.53912,9820
1659514388.577737,9856
1659514388.616354,9883
1659514388.655312,9920
1659514388.69427,9955
1659514388.733229,9980
1659514388.775263,10033
1659514388.817297,10013
1659514388.856256,9889
1659514388.895214,9759
1659514388.934172,9718
1659514388.975181,9703
1659514389.01619,9710
1659514389.05549,9714
1659514389.094791,9712
1659514389.134091,9693
1659514389.1751,9693
1659514389.216109,9712
1659514389.257118,9749
1659514389.298126,9779
1659514389.336401,9814
1659514389.374676,9836
1659514389.412951,9869
1659514389.455498,9895
1659514389.498045,9935
1659514389.537003,9969
1659514389.575962,10004
1659514389.61492,10057
1659514389.655929,10101
1659514389.696938,10109
1659514389.736238,9971
1659514389.775538,9800
1659514389.814839,9706
1659514389.854481,9664
1659514389.894122,9624
1659514389.933764,9604
1659514389.974773,9608
1659514390.015782,9602
1659514390.055082,9611
1659514390.094383,9605
1659514390.133683,9627
1659514390.175204,9675
1659514390.216726,9718
1659514390.255342,9744
1659514390.293959,9781
1659514390.332576,9819
1659514390.373585,9848
1659514390.414594,9895
1659514390.454372,9935
1659514390.494151,9981
1659514390.53393,10036
1659514390.573708,10083
1659514390.613487,10127
1659514390.657913,10105
1659514390.702339,9950
1659514390.746766,9814
1659514390.781111,9767
1659514390.815456,9754
1659514390.85954,9727
1659514390.903625,9751
1659514390.947709,9756
1659514390.980516,9749
1659514391.013324,9736
1659514391.058434,9738
1659514391.103543,9774
1659514391.148653,9795
1659514391.187611,9826
1659514391.22657,9857
1659514391.265528,9900
1659514391.306025,9935
1659514391.346521,9964
1659514391.385821,10001
1659514391.425121,10031
1659514391.464422,10068
1659514391.504918,10103
1659514391.545414,10141
1659514391.584031,10168
1659514391.622648,10107
1659514391.661264,9920
1659514391.699881,9755
1659514391.738498,9673
1659514391.777114,9617
1659514391.818636,9579
1659514391.860157,9568
1659514391.898774,9556
1659514391.937391,9556
1659514391.976007,9544
1659514392.018554,9552
1659514392.061101,9586
1659514392.10006,9619
1659514392.139018,9640
1659514392.177976,9659
1659514392.218985,9676
1659514392.259994,9710
1659514392.298953,9744
1659514392.337911,9775
1659514392.376869,9817
1659514392.419416,9869
1659514392.461963,9924
1659514392.500238,9979
1659514392.538513,10032
1659514392.576788,10094
1659514392.621556,10138
1659514392.666324,10157
1659514392.711092,10026
1659514392.752101,9819
1659514392.79311,9670
1659514392.831385,9598
1659514392.86966,9549
1659514392.907935,9520
1659514392.947235,9536
1659514392.986535,9553
1659514393.025835,9571
1659514393.068382,9589
1659514393.110929,9610
1659514393.149546,9656
1659514393.188162,9685
1659514393.226779,9721
1659514393.268301,9745
1659514393.309822,9772
1659514393.34878,9813
1659514393.387739,9864
1659514393.426697,9915
1659514393.464972,9970
1659514393.503247,10050
1659514393.541522,10125
1659514393.583556,10210
1659514393.625591,10273
1659514393.664549,10331
1659514393.703507,10350
1659514393.742466,10220
1659514393.783475,9992
1659514393.824484,9825
1659514393.863101,9753
1659514393.901717,9730
1659514393.940334,9720
1659514393.982368,9740
1659514394.024402,9753
1659514394.063702,9758
1659514394.103003,9794
1659514394.142303,9841
1659514394.183311,9891
1659514394.22432,9916
1659514394.269089,9921
1659514394.313857,9935
1659514394.358625,9942
1659514394.397241,9941
1659514394.435858,9963
1659514394.474475,9997
1659514394.515996,10031
1659514394.557518,10091
1659514394.596134,10138
1659514394.634751,10198
1659514394.673368,10267
1659514394.714377,10266
1659514394.755386,10108
1659514394.794003,9919
1659514394.832619,9822
1659514394.871236,9742
1659514394.910536,9672
1659514394.949836,9629
1659514394.989136,9589
1659514395.030658,9581
1659514395.07218,9573
1659514395.110455,9590
1659514395.148729,9645
1659514395.187004,9708
1659514395.226305,9767
1659514395.265605,9823
1659514395.304905,9856
1659514395.347452,9898
1659514395.389998,9939
1659514395.428273,9970
1659514395.466548,10014
1659514395.504823,10051
1659514395.546858,10091
1659514395.588892,10150
1659514395.630926,10208
1659514395.67296,10266
1659514395.714225,10261
1659514395.75549,10122
1659514395.796756,9929
1659514395.838021,9845
1659514395.876979,9837
1659514395.915938,9812
1659514395.954896,9810
1659514395.997443,9819
1659514396.039989,9803
1659514396.077923,9797
1659514396.115856,9801
1659514396.153789,9824
1659514396.192748,9856
1659514396.231706,9905
1659514396.270664,9933
1659514396.312699,9965
1659514396.354733,10002
1659514396.393349,10033
1659514396.431966,10072
1659514396.470583,10108
1659514396.51313,10154
1659514396.555676,10217
1659514396.594977,10266
1659514396.634277,10337
1659514396.673577,10349
1659514396.714586,10259
1659514396.755595,10155
1659514396.794212,10137
1659514396.832828,10123
1659514396.871445,10120
1659514396.913992,10120
1659514396.956538,10073
1659514396.994813,9988
1659514397.033088,9904
1659514397.071363,9852
1659514397.11579,9828
1659514397.160216,9826
1659514397.204642,9830
1659514397.246164,9836
1659514397.287685,9851
1659514397.32596,9850
1659514397.364235,9858
1659514397.40251,9885
1659514397.441469,9902
1659514397.480427,9924
1659514397.519386,9948
1659514397.560907,9975
1659514397.602429,9969
1659514397.641045,9812
1659514397.679662,9581
1659514397.718279,9433
1659514397.7598,9365
1659514397.801322,9309
1659514397.840964,9288
1659514397.880606,9280
1659514397.920248,9264
1659514397.958864,9240
1659514397.997481,9230
1659514398.036098,9251
1659514398.076594,9272
1659514398.11709,9308
1659514398.156049,9335
1659514398.195007,9375
1659514398.233966,9409
1659514398.276,9444
1659514398.318034,9494
1659514398.356651,9518
1659514398.395267,9558
1659514398.433884,9609
1659514398.475405,9664
1659514398.516927,9685
1659514398.556227,9557
1659514398.595527,9378
1659514398.634828,9259
1659514398.676862,9230
1659514398.718896,9200
1659514398.763322,9182
1659514398.807749,9164
1659514398.852175,9139
1659514398.891133,9132
1659514398.930092,9128
1659514398.96905,9152
1659514399.010059,9160
1659514399.051068,9201
1659514399.089685,9243
1659514399.128301,9295
1659514399.166918,9359
1659514399.208952,9423
1659514399.250986,9482
1659514399.289603,9554
1659514399.32822,9634
1659514399.366837,9713
1659514399.405453,9766
1659514399.44407,9687
1659514399.482687,9466
1659514399.524208,9309
1659514399.56573,9232
1659514399.604688,9205
1659514399.643646,9194
1659514399.682605,9175
1659514399.721222,9144
1659514399.759838,9107
1659514399.798455,9085
1659514399.841515,9110
1659514399.884574,9184
1659514399.923191,9246
1659514399.961807,9303
1659514400.000424,9369
1659514400.041433,9417
1659514400.082442,9487
1659514400.124989,9556
1659514400.167535,9632
1659514400.206152,9707
1659514400.244769,9793
1659514400.283385,9867
1659514400.327128,9834
1659514400.370871,9703
1659514400.414614,9582
1659514400.447421,9549
1659514400.480228,9550
1659514400.524654,9541
1659514400.569081,9567
1659514400.613507,9578
1659514400.651782,9587
1659514400.690057,9605
1659514400.728332,9655
1659514400.770366,9723
1659514400.8124,9795
1659514400.851359,9875
1659514400.890317,9941
1659514400.929276,10011
1659514400.970541,10064
1659514401.011806,10107
1659514401.053071,10158
1659514401.094336,10215
1659514401.128169,10270
1659514401.162001,10318
1659514401.206086,10235
1659514401.25017,10027
1659514401.294255,9880
1659514401.33253,9796
1659514401.370805,9760
1659514401.40908,9749
1659514401.452139,9742
1659514401.495198,9720
1659514401.533473,9703
1659514401.571748,9714
1659514401.610023,9746
1659514401.64864,9800
1659514401.687257,9858
1659514401.725873,9897
1659514401.767908,9943
1659514401.809942,9981
1659514401.848558,10027
1659514401.887175,10063
1659514401.925792,10107
1659514401.968338,10162
1659514402.010885,10207
1659514402.049844,10235
1659514402.088802,10132
1659514402.127761,9888
1659514402.166719,9687
1659514402.205678,9604
1659514402.244636,9525
1659514402.285645,9483
1659514402.326654,9488
1659514402.3692,9471
1659514402.411747,9460
1659514402.450364,9462
1659514402.488981,9485
1659514402.527597,9529
1659514402.571682,9576
1659514402.615767,9614
1659514402.659851,9659
1659514402.692658,9705
1659514402.725465,9750
1659514402.769892,9787
1659514402.814318,9838
1659514402.858744,9892
1659514402.892064,9941
1659514402.925384,10006
1659514402.970152,10047
1659514403.01492,9962
1659514403.059688,9746
1659514403.098646,9570
1659514403.137605,9520
1659514403.176563,9491
1659514403.218085,9470
1659514403.259606,9480
1659514403.298565,9484
1659514403.337523,9481
1659514403.376482,9505
1659514403.418516,9545
1659514403.46055,9609
1659514403.498825,9666
1659514403.5371,9729
1659514403.575375,9770
1659514403.613991,9815
1659514403.652608,9870
1659514403.691225,9911
1659514403.732746,9960
1659514403.774268,10012
1659514403.813226,10064
1659514403.852185,10113
1659514403.891143,10174
1659514403.93164,10125
1659514403.972136,9924
1659514404.011436,9774
1659514404.050736,9765
1659514404.090036,9791
1659514404.132071,9800
1659514404.174105,9811
1659514404.21238,9791
1659514404.250655,9778
1659514404.28893,9762
1659514404.330964,9756
1659514404.372998,9768
1659514404.412298,9769
1659514404.451598,9763
1659514404.490899,9738
1659514404.534641,9720
1659514404.578384,9716
1659514404.622127,9721
1659514404.664674,9745
1659514404.707221,9781
1659514404.746179,9841
1659514404.785137,9911
1659514404.824096,9976
1659514404.862371,9959
1659514404.900646,9754
1659514404.938921,9535
1659514404.97993,9418
1659514405.020939,9362
1659514405.060239,9310
1659514405.099539,9269
1659514405.138839,9280
1659514405.177114,9294
1659514405.215389,9323
1659514405.253664,9334
1659514405.296723,9347
1659514405.339783,9366
1659514405.378741,9369
1659514405.4177,9401
1659514405.456658,9430
1659514405.497667,9481
1659514405.538676,9559
1659514405.577634,9639
1659514405.616593,9717
1659514405.655551,9781
1659514405.698098,9833
1659514405.740645,9855
1659514405.77892,9890
1659514405.817195,9802
1659514405.85547,9598
1659514405.896991,9492
1659514405.938513,9511
1659514405.977471,9505
1659514406.01643,9496
1659514406.055388,9475
1659514406.099131,9412
1659514406.142874,9329
1659514406.186616,9263
1659514406.225917,9247
1659514406.265217,9265
1659514406.304517,9309
1659514406.343476,9360
1659514406.382434,9435
1659514406.421392,9501
1659514406.462401,9579
1659514406.50341,9646
1659514406.542369,9699
1659514406.581327,9765
1659514406.620286,9840
1659514406.66232,9897
1659514406.704354,9876
1659514406.742629,9690
1659514406.780904,9501
1659514406.819179,9440
1659514406.860188,9433
1659514406.901196,9442
1659514406.940155,9437
1659514406.979114,9436
1659514407.018072,9393
1659514407.059593,9385
1659514407.101115,9389
1659514407.139732,9438
1659514407.178348,9508
1659514407.216965,9567
1659514407.261391,9617
1659514407.305818,9654
1659514407.350244,9703
1659514407.383564,9725
1659514407.416883,9785
1659514407.46131,9828
1659514407.505736,9876
1659514407.550162,9891
1659514407.592709,9745
1659514407.635256,9507
1659514407.673872,9367
1659514407.712489,9328
1659514407.751106,9299
1659514407.790065,9289
1659514407.829023,9311
1659514407.867981,9292
1659514407.909503,9304
1659514407.951024,9318
1659514407.989641,9365
1659514408.028258,9407
1659514408.066875,9460
1659514408.105491,9506
1659514408.144108,9563
1659514408.182725,9624
1659514408.225271,9697
1659514408.267818,9790
1659514408.306777,9853
1659514408.345735,9928
1659514408.384694,9970
1659514408.425702,10009
1659514408.466711,9966
1659514408.50567,9772
1659514408.544628,9608
1659514408.583587,9545
1659514408.626646,9533
1659514408.669705,9519
1659514408.708322,9527
1659514408.746939,9523
1659514408.785556,9490
1659514408.827077,9479
1659514408.868598,9493
1659514408.908241,9530
1659514408.947882,9573
1659514408.987524,9617
1659514409.029046,9663
1659514409.070567,9702
1659514409.11431,9744
1659514409.158053,9775
1659514409.201796,9809
1659514409.240412,9818
1659514409.279029,9840
1659514409.317646,9856
1659514409.358655,9758
1659514409.399664,9582
1659514409.438281,9472
1659514409.476897,9452
1659514409.515514,9441
1659514409.557035,9451
1659514409.598557,9441
1659514409.637857,9387
1659514409.677157,9326
1659514409.716458,9268
1659514409.754733,9249
1659514409.793007,9243
1659514409.831282,9257
1659514409.873829,9275
1659514409.916376,9308
1659514409.955334,9339
1659514409.994293,9380
1659514410.033251,9419
1659514410.071868,9470
1659514410.110485,9526
1659514410.149101,9558
1659514410.191136,9467
1659514410.23317,9305
1659514410.271445,9205
1659514410.30972,9183
1659514410.347995,9185
1659514410.389516,9205
1659514410.431038,9214
1659514410.469996,9217
1659514410.508955,9212
1659514410.547913,9220
1659514410.588922,9242
1659514410.629931,9271
1659514410.674015,9320
1659514410.7181,9371
1659514410.762184,9413
1659514410.796017,9460
1659514410.829849,9509
1659514410.874617,9564
1659514410.919385,9614
1659514410.964153,9686
1659514411.002428,9735
1659514411.040703,9703
1659514411.078978,9533
1659514411.121525,9382
1659514411.164072,9331
1659514411.202688,9326
1659514411.241305,9344
1659514411.279922,9364
1659514411.318538,9372
1659514411.357155,9356
1659514411.395772,9368
1659514411.434731,9394
1659514411.473689,9436
1659514411.512647,9484
1659514411.557074,9532
1659514411.6015,9586
1659514411.645926,9633
1659514411.679246,9673
1659514411.712566,9714
1659514411.757675,9753
1659514411.802785,9797
1659514411.847895,9835
1659514411.880702,9803
1659514411.913509,9627
1659514411.957594,9460
1659514412.001678,9409
1659514412.045763,9413
1659514412.085405,9431
1659514412.125047,9472
1659514412.164689,9466
1659514412.20621,9443
1659514412.247732,9444
1659514412.286007,9452
1659514412.324282,9483
1659514412.362557,9528
1659514412.401174,9558
1659514412.43979,9589
1659514412.478407,9632
1659514412.519928,9670
1659514412.56145,9699
1659514412.599725,9754
1659514412.638,9790
1659514412.676275,9837
1659514412.717284,9818
1659514412.758293,9628
1659514412.796909,9404
1659514412.835526,9304
1659514412.874143,9259
1659514412.916177,9231
1659514412.958211,9232
1659514412.997169,9231
1659514413.036128,9220
1659514413.075086,9204
1659514413.116095,9212
1659514413.157104,9241
1659514413.196404,9275
1659514413.235705,9320
1659514413.275005,9369
1659514413.319089,9406
1659514413.363174,9446
1659514413.407259,9497
1659514413.449805,9548
1659514413.492352,9590
1659514413.530627,9643
1659514413.568902,9687
1659514413.607177,9629
1659514413.647673,9428
1659514413.688169,9271
1659514413.727128,9215
1659514413.766086,9216
1659514413.805045,9222
1659514413.844003,9239
1659514413.882962,9248
1659514413.92192,9244
1659514413.963442,9250
1659514414.004963,9266
1659514414.044263,9306
1659514414.083564,9357
1659514414.122864,9404
1659514414.164898,9455
1659514414.206932,9490
1659514414.245549,9519
1659514414.284165,9559
1659514414.322782,9608
1659514414.362082,9650
1659514414.401383,9702
1659514414.440683,9672
1659514414.483229,9497
1659514414.525776,9308
1659514414.563709,9228
1659514414.601643,9208
1659514414.639576,9205
1659514414.681098,9208
1659514414.722619,9210
1659514414.761577,9177
1659514414.800536,9178
1659514414.839494,9184
1659514414.881016,9220
1659514414.922537,9270
1659514414.966622,9298
1659514415.010706,9334
1659514415.054791,9371
1659514415.088623,9417
1659514415.122456,9460
1659514415.166882,9511
1659514415.211308,9549
1659514415.255735,9599
1659514415.294351,9646
1659514415.332968,9585
1659514415.371585,9369
1659514415.414644,9172
1659514415.457704,9086
1659514415.49632,9062
1659514415.534937,9062
1659514415.573554,9069
1659514415.61405,9074
1659514415.654546,9084
1659514415.693846,9090
1659514415.733147,9124
1659514415.772447,9168
1659514415.811064,9217
1659514415.84968,9267
1659514415.888297,9327
1659514415.929306,9365
1659514415.970315,9416
1659514416.008931,9466
1659514416.047548,9513
1659514416.086165,9584
1659514416.12444,9633
1659514416.162715,9701
1659514416.20099,9725
1659514416.243024,9604
1659514416.285058,9408
1659514416.324358,9307
1659514416.363658,9307
1659514416.402959,9316
1659514416.443968,9347
1659514416.484977,9358
1659514416.529061,9351
1659514416.573146,9352
1659514416.61723,9362
1659514416.655163,9403
1659514416.693097,9447
1659514416.73103,9495
1659514416.768963,9540
1659514416.809459,9601
1659514416.849956,9636
1659514416.888914,9674
1659514416.927872,9720
1659514416.966831,9752
1659514417.009378,9798
1659514417.051924,9844
1659514417.090541,9816
1659514417.129158,9618
1659514417.167775,9426
1659514417.208783,9339
1659514417.249792,9308
1659514417.289093,9303
1659514417.328393,9301
1659514417.367693,9306
1659514417.409727,9299
1659514417.451761,9286
1659514417.49072,9296
1659514417.529678,9346
1659514417.568637,9393
1659514417.613746,9428
1659514417.658856,9481
1659514417.703966,9528
1659514417.737286,9579
1659514417.770605,9614
1659514417.814348,9652
1659514417.858091,9702
1659514417.901834,9749
1659514417.944381,9784
1659514417.986927,9815
1659514418.025544,9704
1659514418.064161,9470
1659514418.102777,9328
1659514418.141394,9274
1659514418.180011,9256
1659514418.218628,9258
1659514418.259637,9273
1659514418.300645,9281
1659514418.339946,9280
1659514418.379246,9302
1659514418.418546,9311
1659514418.457163,9375
1659514418.49578,9418
1659514418.534396,9460
1659514418.575918,9516
1659514418.617439,9561
1659514418.656739,9612
1659514418.69604,9658
1659514418.73534,9718
1659514418.776861,9769
1659514418.818383,9837
1659514418.857,9901
1659514418.895616,9933
1659514418.934233,9802
1659514418.975754,9606
1659514419.017276,9514
1659514419.055551,9501
1659514419.093826,9513
1659514419.132101,9523
1659514419.173622,9542
1659514419.215144,9536
1659514419.254444,9518
1659514419.293744,9548
1659514419.333045,9587
1659514419.376787,9640
1659514419.42053,9671
1659514419.464273,9711
1659514419.504769,9753
1659514419.545265,9784
1659514419.584908,9815
1659514419.624549,9851
1659514419.664191,9902
1659514419.706225,9945
1659514419.74826,10010
1659514419.786876,10013
1659514419.825493,9862
1659514419.86411,9632
1659514419.903752,9492
1659514419.943394,9450
1659514419.983036,9425
1659514420.024045,9418
1659514420.065053,9422
1659514420.102987,9406
1659514420.14092,9385
1659514420.178853,9388
1659514420.221912,9419
1659514420.264972,9463
1659514420.303588,9496
1659514420.342205,9538
1659514420.380822,9565
1659514420.419439,9610
1659514420.458055,9641
1659514420.496672,9687
1659514420.538193,9728
1659514420.579715,9777
1659514420.618674,9824
1659514420.657632,9866
1659514420.69659,9830
1659514420.738112,9609
1659514420.779634,9412
1659514420.824743,9317
1659514420.869853,9277
1659514420.914963,9247
1659514420.948282,9255
1659514420.981602,9263
1659514421.025687,9254
1659514421.069771,9261
1659514421.113856,9289
1659514421.152814,9328
1659514421.191773,9389
1659514421.230731,9449
1659514421.273278,9508
1659514421.315825,9564
1659514421.353758,9622
1659514421.391691,9681
1659514421.429625,9739
1659514421.468583,9800
1659514421.507541,9858
1659514421.5465,9921
1659514421.587509,9987
1659514421.628518,9978
1659514421.667476,9779
1659514421.706434,9596
1659514421.745393,9526
1659514421.784352,9517
1659514421.82331,9516
1659514421.862268,9533
1659514421.906695,9532
1659514421.951121,9511
1659514421.995547,9519
1659514422.034164,9532
1659514422.072781,9566
1659514422.111398,9614
1659514422.153432,9656
1659514422.195466,9695
1659514422.233741,9729
1659514422.272016,9765
1659514422.310291,9810
1659514422.348566,9855
1659514422.386841,9898
1659514422.425116,9946
1659514422.46715,10003
1659514422.509184,10003
1659514422.547459,9840
1659514422.585734,9624
1659514422.624009,9518
1659514422.665018,9484
1659514422.706027,9462
1659514422.744643,9426
1659514422.78326,9358
1659514422.821877,9253
1659514422.861519,9126
1659514422.90116,9040
1659514422.940802,8991
1659514422.982324,8974
1659514423.023845,8979
1659514423.064854,8964
1659514423.105863,8966
1659514423.145505,8974
1659514423.185147,9006
1659514423.224789,9025
1659514423.268874,9045
1659514423.312958,9056
1659514423.357043,9080
1659514423.390875,9114
1659514423.424707,9139
1659514423.469134,9062
1659514423.51356,8834
1659514423.557986,8633
1659514423.591306,8549
1659514423.624626,8495
1659514423.668369,8439
1659514423.712111,8428
1659514423.755854,8430
1659514423.795496,8405
1659514423.835138,8392
1659514423.87478,8393
1659514423.915789,8425
1659514423.956798,8457
1659514423.995756,8493
1659514424.034715,8524
1659514424.073673,8561
1659514424.115195,8595
1659514424.156716,8634
1659514424.196017,8678
1659514424.235317,8734
1659514424.274617,8790
1659514424.312892,8847
1659514424.351167,8910
1659514424.389442,8897
1659514424.431988,8721
1659514424.474535,8546
1659514424.51281,8473
1659514424.551085,8453
1659514424.58936,8447
1659514424.630882,8459
1659514424.672403,8461
1659514424.711362,8420
1659514424.75032,8394
1659514424.789279,8376
1659514424.833705,8377
1659514424.878131,8396
1659514424.922558,8404
1659514424.95434,8418
1659514424.986121,8446
1659514425.030889,8475
1659514425.075657,8512
1659514425.120425,8542
1659514425.159384,8584
1659514425.198342,8627
1659514425.237301,8662
1659514425.275576,8631
1659514425.313851,8438
1659514425.352126,8271
1659514425.394672,8191
1659514425.437219,8165
1659514425.476178,8165
1659514425.515136,8199
1659514425.554095,8222
1659514425.594591,8242
1659514425.635087,8254
1659514425.674046,8279
1659514425.713004,8332
1659514425.751962,8388
1659514425.790921,8443
1659514425.82988,8481
1659514425.868838,8533
1659514425.909334,8580
1659514425.949831,8622
1659514425.991352,8667
1659514426.032873,8704
1659514426.071832,8741
1659514426.11079,8771
1659514426.149749,8696
1659514426.193833,8522
1659514426.237918,8429
1659514426.282002,8395
1659514426.316348,8354
1659514426.350693,8346
1659514426.395461,8342
1659514426.440228,8351
1659514426.484997,8331
1659514426.518316,8327
1659514426.551636,8344
1659514426.596062,8378
1659514426.640489,8416
1659514426.684915,8448
1659514426.724557,8490
1659514426.764199,8534
1659514426.803841,8583
1659514426.844337,8620
1659514426.884833,8662
1659514426.92345,8696
1659514426.962067,8731
1659514427.000684,8762
1659514427.039642,8673
1659514427.0786,8487
1659514427.117559,8340
1659514427.158824,8277
1659514427.200089,8243
1659514427.241354,8240
1659514427.28262,8250
1659514427.32192,8242
1659514427.36122,8215
1659514427.40052,8211
1659514427.442042,8235
1659514427.483563,8269
1659514427.522863,8293
1659514427.562164,8334
1659514427.601464,8370
1659514427.642985,8399
1659514427.684507,8438
1659514427.723807,8480
1659514427.763107,8534
1659514427.802408,8583
1659514427.840683,8646
1659514427.878958,8626
1659514427.917233,8478
1659514427.959266,8300
1659514428.001301,8217
1659514428.040259,8182
1659514428.079218,8153
1659514428.118176,8155
1659514428.158672,8161
1659514428.199169,8171
1659514428.242911,8159
1659514428.286654,8169
1659514428.330397,8203
1659514428.364229,8244
1659514428.398062,8269
1659514428.442146,8300
1659514428.486231,8350
1659514428.530315,8396
1659514428.569274,8446
1659514428.608232,8489
1659514428.647191,8545
1659514428.688712,8594
1659514428.730234,8630
1659514428.769534,8618
1659514428.808834,8464
1659514428.848135,8291
1659514428.889656,8211
1659514428.931177,8185
1659514428.970478,8169
1659514429.009778,8184
1659514429.049078,8192
1659514429.087353,8177
1659514429.125628,8176
1659514429.163903,8187
1659514429.204912,8223
1659514429.245921,8270
1659514429.285221,8313
1659514429.324521,8382
1659514429.363821,8447
1659514429.405855,8519
1659514429.44789,8564
1659514429.485823,8614
1659514429.523756,8686
1659514429.561689,8768
1659514429.601331,8839
1659514429.640973,8897
1659514429.680615,8848
1659514429.722136,8650
1659514429.763658,8502
1659514429.80518,8452
1659514429.846701,8430
1659514429.886001,8430
1659514429.925302,8438
1659514429.964602,8433
1659514430.006123,8440
1659514430.047645,8445
1659514430.08592,8463
1659514430.124195,8502
1659514430.16247,8543
1659514430.207238,8582
1659514430.252006,8632
1659514430.296774,8663
1659514430.330606,8705
1659514430.364439,8746
1659514430.408181,8786
1659514430.451924,8839
1659514430.495667,8883
1659514430.534626,8925
1659514430.573584,8896
1659514430.612542,8719
1659514430.654577,8550
1659514430.696611,8501
1659514430.734885,8483
1659514430.77316,8473
1659514430.811435,8506
1659514430.853982,8518
1659514430.896529,8525
1659514430.935488,8542
1659514430.974446,8593
1659514431.013404,8662
1659514431.052021,8772
1659514431.090638,8871
1659514431.129255,8940
1659514431.169751,9011
1659514431.210247,9078
1659514431.249889,9143
1659514431.289531,9218
1659514431.329173,9293
1659514431.369669,9368
1659514431.410166,9427
1659514431.448782,9429
1659514431.487399,9279
1659514431.526016,9094
1659514431.567537,9019
1659514431.609059,9029
1659514431.648017,9067
1659514431.686975,9109
1659514431.725934,9139
1659514431.766943,9156
1659514431.807952,9178
1659514431.847252,9204
1659514431.886552,9265
1659514431.925852,9323
1659514431.970279,9369
1659514432.014705,9428
1659514432.059131,9469
1659514432.100653,9516
1659514432.142174,9560
1659514432.181816,9607
1659514432.221458,9659
1659514432.2611,9718
1659514432.302622,9742
1659514432.344143,9620
1659514432.381307,9431
1659514432.418472,9317
1659514432.455636,9295
1659514432.4928,9295
1659514432.531759,9315
1659514432.570717,9336
1659514432.609676,9309
1659514432.651197,9302
1659514432.692719,9331
1659514432.73424,9381
1659514432.775762,9435
1659514432.814378,9488
1659514432.852995,9541
1659514432.891612,9566
1659514432.93638,9594
1659514432.981148,9622
1659514433.025916,9653
1659514433.059236,9701
1659514433.092556,9756
1659514433.137324,9815
1659514433.182092,9823
1659514433.22686,9657
1659514433.265818,9427
1659514433.304777,9316
1659514433.343735,9247
1659514433.385769,9172
1659514433.427803,9134
1659514433.46642,9089
1659514433.505037,9054
1659514433.543653,8999
1659514433.585175,8999
1659514433.626696,9018
1659514433.664971,9064
1659514433.703246,9106
1659514433.741521,9155
1659514433.780822,9207
1659514433.820122,9240
1659514433.859422,9291
1659514433.900944,9337
1659514433.942465,9388
1659514433.98074,9439
1659514434.019015,9500
1659514434.05729,9481
1659514434.096248,9297
1659514434.135207,9122
1659514434.174165,9051
1659514434.216199,9034
1659514434.258234,9023
1659514434.299242,9043
1659514434.340251,9073
1659514434.37921,9074
1659514434.418168,9082
1659514434.457127,9110
1659514434.498136,9152
1659514434.539145,9198
1659514434.578103,9264
1659514434.617061,9303
1659514434.65602,9347
1659514434.699763,9403
1659514434.743505,9444
1659514434.787248,9494
1659514434.820568,9541
1659514434.853888,9601
1659514434.897972,9649
1659514434.942057,9586
1659514434.986141,9394
1659514435.024758,9247
1659514435.063375,9199
1659514435.101992,9185
1659514435.145051,9196
1659514435.18811,9227
1659514435.226727,9207
1659514435.265344,9191
1659514435.303961,9199
1659514435.344969,9222
1659514435.385978,9252
1659514435.42562,9293
1659514435.465262,9333
1659514435.504904,9372
1659514435.543179,9395
1659514435.581454,9431
1659514435.619729,9480
1659514435.662276,9519
1659514435.704823,9574
1659514435.743439,9610
1659514435.782056,9561
1659514435.820673,9353
1659514435.861681,9186
1659514435.90269,9094
1659514435.940965,9050
1659514435.97924,9024
1659514436.017515,9035
1659514436.060062,9040
1659514436.102609,9020
1659514436.141226,9008
1659514436.179842,9026
1659514436.218459,9055
1659514436.25998,9083
1659514436.301502,9123
1659514436.34627,9157
1659514436.391038,9191
1659514436.435806,9235
1659514436.474765,9276
1659514436.513723,9321
1659514436.552681,9379
1659514436.594203,9384
1659514436.635725,9259
1659514436.675025,9064
1659514436.714325,8963
1659514436.753625,8907
1659514436.795146,8879
1659514436.836668,8894
1659514436.874943,8897
1659514436.913218,8882
1659514436.951493,8889
1659514436.989768,8909
1659514437.028043,8940
1659514437.066318,8985
1659514437.108865,9032
1659514437.151411,9083
1659514437.189686,9123
1659514437.227961,9160
1659514437.266236,9208
1659514437.305195,9261
1659514437.344153,9303
1659514437.383112,9290
1659514437.424121,9124
1659514437.465129,8949
1659514437.50443,8865
1659514437.54373,8839
1659514437.58303,8831
1659514437.627115,8856
1659514437.671199,8875
1659514437.715284,8869
1659514437.754242,8899
1659514437.793201,8921
1659514437.832159,8976
1659514437.873168,9042
1659514437.914177,9101
1659514437.952794,9152
1659514437.99141,9201
1659514438.030027,9263
1659514438.072061,9322
1659514438.114095,9385
1659514438.153054,9446
1659514438.192012,9481
1659514438.230971,9388
1659514438.269246,9193
1659514438.307521,9080
1659514438.345796,9053
1659514438.38783,9065
1659514438.429864,9088
1659514438.468822,9131
1659514438.507781,9129
1659514438.546739,9133
1659514438.588773,9169
1659514438.630807,9218
1659514438.670108,9274
1659514438.709408,9318
1659514438.748708,9364
1659514438.790742,9397
1659514438.832776,9431
1659514438.870709,9474
1659514438.908643,9511
1659514438.946576,9572
1659514438.989635,9620
1659514439.032695,9579
1659514439.071311,9367
1659514439.109928,9183
1659514439.148545,9125
1659514439.192629,9111
1659514439.236714,9114
1659514439.280798,9124
1659514439.313606,9124
1659514439.346413,9095
1659514439.391181,9102
1659514439.435949,9122
1659514439.480717,9153
1659514439.522238,9213
1659514439.56376,9257
1659514439.602718,9295
1659514439.641677,9339
1659514439.680635,9384
1659514439.719935,9427
1659514439.759236,9484
1659514439.798536,9529
1659514439.839545,9572
1659514439.880554,9526
1659514439.919512,9292
1659514439.958471,9068
1659514439.997429,8960
1659514440.039976,8917
1659514440.082522,8894
1659514440.120456,8907
1659514440.158389,8925
1659514440.196322,8925
1659514440.234939,8934
1659514440.273556,8958
1659514440.312172,9000
1659514440.353181,9064
1659514440.39419,9105
1659514440.433149,9159
1659514440.472107,9216
1659514440.511065,9262
1659514440.552074,9314
1659514440.593083,9375
1659514440.632384,9428
1659514440.671684,9490
1659514440.710984,9564
1659514440.751993,9534
1659514440.793002,9340
1659514440.837428,9150
1659514440.881854,9088
1659514440.92628,9082
1659514440.960626,9099
1659514440.994971,9124
1659514441.039397,9118
1659514441.083823,9104
1659514441.128249,9100
1659514441.166866,9127
1659514441.205483,9178
1659514441.2441,9224
1659514441.285621,9275
1659514441.327142,9316
1659514441.366101,9350
1659514441.40506,9383
1659514441.444018,9434
1659514441.482635,9477
1659514441.521251,9531
1659514441.559868,9583
1659514441.60139,9591
1659514441.642911,9421
1659514441.681528,9157
1659514441.720145,9003
1659514441.758761,8956
1659514441.800795,8940
1659514441.842829,8933
1659514441.88213,8944
1659514441.92143,8940
1659514441.96073,8923
1659514442.00003,8952
1659514442.03933,8976
1659514442.078631,9036
1659514442.120152,9088
1659514442.161674,9134
1659514442.20029,9182
1659514442.238907,9232
1659514442.277524,9278
1659514442.320583,9326
1659514442.363642,9379
1659514442.404139,9434
1659514442.444635,9491
1659514442.483252,9534
1659514442.521868,9428
1659514442.560485,9174
1659514442.604912,9001
1659514442.649338,8951
1659514442.693764,8928
1659514442.727597,8923
1659514442.761429,8948
1659514442.805172,8955
1659514442.848915,8964
1659514442.892657,8972
1659514442.930591,9009
1659514442.968524,9064
1659514443.006457,9124
1659514443.04439,9190
1659514443.085399,9241
1659514443.126408,9300
1659514443.165025,9355
1659514443.203641,9417
1659514443.242258,9472
1659514443.284292,9537
1659514443.326326,9591
1659514443.364943,9654
1659514443.40356,9691
1659514443.442177,9555
1659514443.486261,9329
1659514443.530346,9207
1659514443.57443,9203
1659514443.60775,9207
1659514443.64107,9240
1659514443.684813,9241
1659514443.728555,9227
1659514443.772298,9224
1659514443.810915,9238
1659514443.849532,9276
1659514443.888148,9321
1659514443.930695,9374
1659514443.973242,9418
1659514444.011858,9454
1659514444.050475,9499
1659514444.089092,9535
1659514444.130101,9579
1659514444.17111,9620
1659514444.210752,9687
1659514444.250394,9725
1659514444.290035,9701
1659514444.32831,9491
1659514444.366585,9257
1659514444.40486,9161
1659514444.446382,9132
1659514444.487904,9121
1659514444.527204,9129
1659514444.566504,9135
1659514444.605804,9101
1659514444.646813,9095
1659514444.687822,9112
1659514444.726439,9152
1659514444.765055,9193
1659514444.803672,9248
1659514444.846219,9291
1659514444.888766,9329
1659514444.927041,9391
1659514444.965316,9415
1659514445.00359,9471
1659514445.045112,9520
1659514445.086633,9566
1659514445.125934,9620
1659514445.165234,9661
1659514445.204534,9553
1659514445.249302,9275
1659514445.29407,9092
1659514445.338838,9031
1659514445.38036,8998
1659514445.421881,8984
1659514445.461523,9019
1659514445.501165,9060
1659514445.540807,9099
1659514445.581816,9121
1659514445.622825,9105
1659514445.660758,9071
1659514445.698691,9019
1659514445.736624,8972
1659514445.775583,8949
1659514445.814541,8928
1659514445.8535,8930
1659514445.892458,8916
1659514445.931417,8909
1659514445.970375,8925
1659514446.011384,8940
1659514446.052393,8966
1659514446.09101,8987
1659514446.129627,8954
1659514446.168243,8755
1659514446.209765,8606
1659514446.251286,8543
1659514446.290245,8523
1659514446.329203,8519
1659514446.368162,8515
1659514446.409683,8507
1659514446.451205,8477
1659514446.490163,8481
1659514446.529121,8509
1659514446.56808,8565
1659514446.609601,8602
1659514446.651123,8644
1659514446.695208,8693
1659514446.739292,8727
1659514446.783377,8762
1659514446.822677,8795
1659514446.861977,8854
1659514446.901277,8892
1659514446.941774,8938
1659514446.98227,8935
1659514447.020887,8751
1659514447.059503,8572
1659514447.09812,8488
1659514447.136737,8477
1659514447.175354,8469
1659514447.21397,8494
1659514447.256004,8488
1659514447.298038,8472
1659514447.336655,8463
1659514447.375272,8467
1659514447.413888,8496
1659514447.45541,8528
1659514447.496932,8569
1659514447.536232,8604
1659514447.575532,8642
1659514447.614832,8696
1659514447.653449,8739
1659514447.692065,8780
1659514447.730682,8822
1659514447.773229,8878
1659514447.815776,8929
1659514447.854734,8851
1659514447.893693,8627
1659514447.932651,8458
1659514447.97366,8397
1659514448.014669,8360
1659514448.053627,8344
1659514448.092586,8350
1659514448.131544,8359
1659514448.175629,8351
1659514448.219713,8352
1659514448.263798,8378
1659514448.305832,8416
1659514448.347866,8469
1659514448.387167,8518
1659514448.426467,8560
1659514448.465767,8602
1659514448.504725,8634
1659514448.543684,8679
1659514448.582642,8720
1659514448.623651,8772
1659514448.66466,8825
1659514448.70396,8889
1659514448.74326,8887
1659514448.782561,8723
1659514448.824595,8517
1659514448.866629,8405
1659514448.904562,8379
1659514448.942495,8364
1659514448.980428,8370
1659514449.019387,8369
1659514449.058345,8350
1659514449.097304,8329
1659514449.138313,8329
1659514449.179322,8359
1659514449.217938,8396
1659514449.256555,8434
1659514449.295172,8475
1659514449.336693,8509
1659514449.378215,8541
1659514449.416831,8570
1659514449.455448,8600
1659514449.494065,8646
1659514449.535074,8692
1659514449.576083,8736
1659514449.615383,8696
1659514449.654683,8486
1659514449.693983,8305
1659514449.738751,8225
1659514449.78352,8191
1659514449.828288,8174
1659514449.869296,8193
1659514449.910305,8192
1659514449.949264,8179
1659514449.988222,8187
1659514450.027181,8201
1659514450.068702,8237
1659514450.110224,8301
1659514450.14884,8332
1659514450.187457,8373
1659514450.226074,8420
1659514450.264691,8460
1659514450.303307,8499
1659514450.341924,8552
1659514450.383446,8594
1659514450.424967,8650
1659514450.463242,8704
1659514450.501517,8738
1659514450.539792,8640
1659514450.579092,8437
1659514450.618392,8296
1659514450.657692,8210
1659514450.700239,8153
1659514450.742786,8123
1659514450.781403,8141
1659514450.820019,8167
1659514450.858636,8180
1659514450.900158,8189
1659514450.941679,8211
1659514450.980979,8263
1659514451.020279,8354
1659514451.05958,8462
1659514451.101614,8594
1659514451.143648,8737
1659514451.188074,8889
1659514451.232501,9001
1659514451.276927,9115
1659514451.309734,9190
1659514451.342541,9274
1659514451.386967,9374
1659514451.431394,9471
1659514451.47582,9467
1659514451.514095,9342
1659514451.55237,9239
1659514451.590645,9179
1659514451.633192,9155
1659514451.675738,9147
1659514451.714697,9157
1659514451.753655,9161
1659514451.792614,9136
1659514451.834135,9131
1659514451.875657,9153
1659514451.914615,9198
1659514451.953574,9248
1659514451.992532,9300
1659514452.035079,9342
1659514452.077626,9366
1659514452.116242,9395
1659514452.154859,9439
1659514452.193476,9494
1659514452.232092,9551
1659514452.270709,9576
1659514452.309326,9512
