LocalTimestamp,PG
1659433851.827244,8313
1659433851.860562,7822
1659433851.893879,7858
1659433851.937961,8683
1659433851.982043,9067
1659433852.026124,9462
1659433852.064055,9759
1659433852.101986,10105
1659433852.139916,10251
1659433852.177847,10377
1659433852.221929,10568
1659433852.266011,10693
1659433852.310092,10657
1659433852.34341,10602
1659433852.376727,10572
1659433852.421492,10576
1659433852.466257,10581
1659433852.511023,10595
1659433852.543828,10604
1659433852.576632,10599
1659433852.620714,10572
1659433852.664796,10535
1659433852.708878,10498
1659433852.747492,10453
1659433852.786106,10436
1659433852.82472,10398
1659433852.866751,10384
1659433852.908783,10368
1659433852.946713,10346
1659433852.984644,10314
1659433853.022575,10294
1659433853.064606,10268
1659433853.106638,10245
1659433853.145594,10258
1659433853.184549,10276
1659433853.223505,10271
1659433853.261778,10262
1659433853.30005,10331
1659433853.338323,10516
1659433853.380867,10701
1659433853.423411,10850
1659433853.462025,10962
1659433853.500639,11107
1659433853.539253,11220
1659433853.580259,11361
1659433853.621265,11517
1659433853.660221,11661
1659433853.699177,11742
1659433853.738133,11804
1659433853.780164,11866
1659433853.822196,11955
1659433853.860468,12025
1659433853.898741,12103
1659433853.937013,12157
1659433853.981778,12203
1659433854.026543,12238
1659433854.071309,12277
1659433854.104114,12336
1659433854.136919,12396
1659433854.181,12462
1659433854.225082,12516
1659433854.269163,12582
1659433854.311707,12641
1659433854.354251,12721
1659433854.393891,12809
1659433854.43353,12903
1659433854.473169,12978
1659433854.511784,13048
1659433854.550398,13129
1659433854.589012,13175
1659433854.631043,13247
1659433854.673074,13321
1659433854.712714,13380
1659433854.752353,13451
1659433854.791993,13520
1659433854.832486,13583
1659433854.87298,13611
1659433854.911594,13648
1659433854.950208,13660
1659433854.988822,13671
1659433855.027778,13694
1659433855.066734,13713
1659433855.10569,13712
1659433855.147209,13722
1659433855.188728,13719
1659433855.227342,13725
1659433855.265956,13717
1659433855.30457,13711
1659433855.346601,13716
1659433855.388633,13711
1659433855.427589,13711
1659433855.466545,13725
1659433855.505501,13714
1659433855.547532,13709
1659433855.589563,13727
1659433855.634328,13733
1659433855.679093,13734
1659433855.723859,13702
1659433855.757176,13675
1659433855.790493,13625
1659433855.834234,13587
1659433855.877974,13543
1659433855.921713,13512
1659433855.960669,13497
1659433855.999625,13480
1659433856.038581,13460
1659433856.0801,13436
1659433856.121619,13424
1659433856.159891,13414
1659433856.198164,13404
1659433856.236436,13383
1659433856.277442,13375
1659433856.318449,13376
1659433856.357404,13364
1659433856.39636,13360
1659433856.435316,13369
1659433856.474272,13359
1659433856.513228,13357
1659433856.552184,13359
1659433856.594215,13348
1659433856.636246,13292
1659433856.675544,13233
1659433856.714842,13178
1659433856.754139,13121
1659433856.795658,13069
1659433856.837177,13024
1659433856.875791,12993
1659433856.914405,12980
1659433856.953019,12949
1659433856.992317,12931
1659433857.031615,12920
1659433857.070912,12904
1659433857.112431,12897
1659433857.15395,12882
1659433857.194956,12872
1659433857.235962,12885
1659433857.276353,12882
1659433857.316744,12887
1659433857.357136,12886
1659433857.397527,12884
1659433857.437918,12887
1659433857.475848,12894
1659433857.513779,12885
1659433857.55171,12841
1659433857.596475,12777
1659433857.64124,12723
1659433857.686005,12676
1659433857.719323,12640
1659433857.75264,12616
1659433857.797064,12598
1659433857.841487,12586
1659433857.885911,12567
1659433857.927942,12565
1659433857.969973,12562
1659433858.009613,12563
1659433858.049252,12565
1659433858.088891,12577
1659433858.126822,12567
1659433858.164753,12583
1659433858.202683,12591
1659433858.244715,12594
1659433858.286746,12602
1659433858.32536,12622
1659433858.363975,12611
1659433858.402589,12607
1659433858.444108,12612
1659433858.485626,12592
1659433858.524582,12523
1659433858.563538,12455
1659433858.602494,12384
1659433858.64145,12325
1659433858.680406,12281
1659433858.719362,12253
1659433858.760368,12219
1659433858.801374,12206
1659433858.841013,12179
1659433858.880653,12167
1659433858.920292,12163
1659433858.961811,12139
1659433859.00333,12145
1659433859.041944,12144
1659433859.080558,12147
1659433859.119172,12142
1659433859.159666,12154
1659433859.200159,12161
1659433859.239457,12160
1659433859.278754,12177
1659433859.318052,12175
1659433859.361792,12192
1659433859.405532,12204
1659433859.449272,12210
1659433859.490791,12203
1659433859.53231,12167
1659433859.570924,12130
1659433859.609538,12079
1659433859.648152,12066
1659433859.686766,12054
1659433859.72538,12059
1659433859.763994,12057
1659433859.806539,12063
1659433859.849082,12081
1659433859.88838,12082
1659433859.927678,12091
1659433859.966975,12109
1659433860.007982,12129
1659433860.048988,12136
1659433860.088285,12164
1659433860.127583,12192
1659433860.166881,12206
1659433860.205836,12232
1659433860.244792,12253
1659433860.283748,12274
1659433860.326292,12303
1659433860.368836,12336
1659433860.407109,12348
1659433860.445381,12362
1659433860.483653,12349
1659433860.525172,12316
1659433860.566691,12319
1659433860.605647,12311
1659433860.644603,12318
1659433860.683559,12326
1659433860.725077,12318
1659433860.766596,12344
1659433860.81102,12345
1659433860.855443,12346
1659433860.899866,12350
1659433860.933697,12361
1659433860.967527,12380
1659433861.011266,12399
1659433861.055007,12422
1659433861.098747,12442
1659433861.138044,12465
1659433861.177342,12486
1659433861.216639,12505
1659433861.258671,12533
1659433861.300702,12537
1659433861.339658,12514
1659433861.378614,12499
1659433861.41757,12491
1659433861.456184,12485
1659433861.494798,12493
1659433861.533412,12501
1659433861.574931,12508
1659433861.61645,12523
1659433861.654722,12507
1659433861.692995,12523
1659433861.731267,12541
1659433861.773299,12545
1659433861.81533,12554
1659433861.854286,12574
1659433861.893242,12581
1659433861.932198,12585
1659433861.97047,12612
1659433862.008742,12613
1659433862.047015,12618
1659433862.088021,12636
1659433862.129027,12649
1659433862.169008,12655
1659433862.208989,12660
1659433862.248971,12634
1659433862.289977,12592
1659433862.330983,12564
1659433862.375406,12531
1659433862.41983,12511
1659433862.464253,12508
1659433862.497571,12512
1659433862.530888,12508
1659433862.57497,12504
1659433862.619051,12502
1659433862.663133,12502
1659433862.695938,12500
1659433862.728743,12513
1659433862.773508,12515
1659433862.818273,12531
1659433862.863038,12541
1659433862.901311,12567
1659433862.939583,12567
1659433862.977856,12576
1659433863.018862,12597
1659433863.059868,12605
1659433863.099849,12617
1659433863.13983,12626
1659433863.179811,12650
1659433863.22133,12663
1659433863.262849,12672
1659433863.301121,12620
1659433863.339394,12560
1659433863.377666,12517
1659433863.416964,12479
1659433863.456261,12446
1659433863.495559,12412
1659433863.53759,12394
1659433863.579622,12389
1659433863.618236,12376
1659433863.65685,12364
1659433863.695464,12360
1659433863.734078,12374
1659433863.772692,12364
1659433863.811307,12368
1659433863.852825,12388
1659433863.894344,12394
1659433863.935863,12410
1659433863.977382,12425
1659433864.016338,12440
1659433864.055294,12453
1659433864.094249,12478
1659433864.134026,12493
1659433864.173802,12507
1659433864.213578,12537
1659433864.253354,12543
1659433864.29313,12535
1659433864.335161,12520
1659433864.377192,12497
1659433864.41649,12485
1659433864.455788,12473
1659433864.495085,12482
1659433864.536091,12461
1659433864.577098,12470
1659433864.621863,12476
1659433864.666628,12487
1659433864.711393,12497
1659433864.745223,12501
1659433864.779053,12511
1659433864.822793,12514
1659433864.866533,12517
1659433864.910273,12527
1659433864.942565,12544
1659433864.974858,12556
1659433865.019281,12576
1659433865.063704,12609
1659433865.108128,12616
1659433865.146059,12642
1659433865.183989,12653
1659433865.22192,12672
1659433865.263952,12699
1659433865.305983,12716
1659433865.344939,12722
1659433865.383895,12724
1659433865.42285,12729
1659433865.461806,12733
1659433865.500762,12754
1659433865.539718,12746
1659433865.580724,12761
1659433865.621731,12770
1659433865.660686,12778
1659433865.699642,12788
1659433865.738598,12797
1659433865.78063,12802
1659433865.822661,12821
1659433865.861275,12842
1659433865.899889,12853
1659433865.938504,12869
1659433865.97951,12899
1659433866.020516,12911
1659433866.059472,12925
1659433866.098428,12947
1659433866.137383,12966
1659433866.179415,12976
1659433866.221446,12997
1659433866.259719,13008
1659433866.297991,13022
1659433866.336264,13039
1659433866.381029,13044
1659433866.425794,13044
1659433866.470559,13060
1659433866.503876,13051
1659433866.537194,13054
1659433866.581617,13070
1659433866.626041,13081
1659433866.670464,13090
1659433866.704807,13097
1659433866.73915,13112
1659433866.783231,13114
1659433866.827313,13130
1659433866.871395,13136
1659433866.910009,13152
1659433866.948623,13162
1659433866.987237,13170
1659433867.028756,13181
1659433867.070275,13200
1659433867.108889,13204
1659433867.147503,13215
1659433867.186117,13235
1659433867.228148,13253
1659433867.27018,13247
1659433867.309136,13274
1659433867.348092,13284
1659433867.387048,13295
1659433867.42532,13287
1659433867.463593,13295
1659433867.501865,13307
1659433867.542871,13310
1659433867.583877,13311
1659433867.623858,13319
1659433867.663839,13331
1659433867.70382,13337
1659433867.745339,13361
1659433867.786858,13359
1659433867.82812,13369
1659433867.869383,13387
1659433867.910645,13388
1659433867.951908,13393
1659433867.994452,13398
1659433868.036996,13415
1659433868.075268,13412
1659433868.113541,13448
1659433868.151813,13463
1659433868.190427,13463
1659433868.229042,13488
1659433868.267656,13499
1659433868.305928,13484
1659433868.344201,13481
1659433868.382473,13487
1659433868.424505,13491
1659433868.466536,13487
1659433868.504808,13493
1659433868.543081,13500
1659433868.581353,13509
1659433868.623384,13510
1659433868.665416,13516
1659433868.70403,13519
1659433868.742644,13524
1659433868.781258,13527
1659433868.82329,13532
1659433868.865321,13546
1659433868.904619,13544
1659433868.943916,13562
1659433868.983214,13564
1659433869.024733,13579
1659433869.066252,13592
1659433869.109992,13588
1659433869.153731,13607
1659433869.197471,13617
1659433869.236427,13613
1659433869.275383,13602
1659433869.314339,13611
1659433869.35637,13607
1659433869.398402,13617
1659433869.437016,13616
1659433869.47563,13630
1659433869.514244,13636
1659433869.55525,13630
1659433869.596257,13629
1659433869.635554,13637
1659433869.674852,13638
1659433869.714149,13640
1659433869.753105,13644
1659433869.792061,13659
1659433869.831017,13668
1659433869.873049,13671
1659433869.91508,13686
1659433869.954036,13686
1659433869.992992,13705
1659433870.031948,13688
1659433870.073466,13687
1659433870.114985,13690
1659433870.154283,13668
1659433870.19358,13652
1659433870.232878,13645
1659433870.272176,13635
1659433870.311473,13621
1659433870.350771,13623
1659433870.391264,13614
1659433870.431758,13593
1659433870.472764,13586
1659433870.513771,13570
1659433870.55341,13551
1659433870.593049,13529
1659433870.632689,13525
1659433870.67677,13501
1659433870.720852,13496
1659433870.764934,13470
1659433870.797226,13458
1659433870.829518,13446
1659433870.873942,13417
1659433870.918365,13369
1659433870.962788,13295
1659433870.996619,13218
1659433871.030449,13165
1659433871.07453,13106
1659433871.118612,13062
1659433871.162694,13011
1659433871.201308,12981
1659433871.239922,12923
1659433871.278536,12888
1659433871.320568,12850
1659433871.362599,12814
1659433871.400871,12778
1659433871.439144,12742
1659433871.477416,12709
1659433871.516372,12665
1659433871.555328,12661
1659433871.594284,12640
1659433871.636315,12628
1659433871.678347,12574
1659433871.716277,12493
1659433871.754208,12415
1659433871.792139,12342
1659433871.833658,12271
1659433871.875176,12221
1659433871.914816,12174
1659433871.954455,12130
1659433871.994094,12091
1659433872.035613,12061
1659433872.077132,12026
1659433872.11643,12019
1659433872.155727,11989
1659433872.195025,11989
1659433872.237056,11988
1659433872.279088,11977
1659433872.31736,11965
1659433872.355632,11963
1659433872.393905,11952
1659433872.438328,11929
1659433872.482752,11881
1659433872.527175,11787
1659433872.561518,11704
1659433872.59586,11643
1659433872.6396,11585
1659433872.68334,11565
1659433872.72708,11550
1659433872.768086,11537
1659433872.809093,11520
1659433872.84839,11508
1659433872.887688,11492
1659433872.926986,11483
1659433872.9656,11483
1659433873.004214,11489
1659433873.042828,11490
1659433873.084859,11489
1659433873.126891,11499
1659433873.16653,11516
1659433873.206169,11516
1659433873.245809,11523
1659433873.284423,11526
1659433873.323037,11480
1659433873.361651,11407
1659433873.403682,11355
1659433873.445714,11324
1659433873.485353,11296
1659433873.524993,11301
1659433873.564632,11300
1659433873.605126,11296
1659433873.645619,11314
1659433873.683892,11326
1659433873.722164,11335
1659433873.760437,11354
1659433873.801955,11384
1659433873.843474,11404
1659433873.88243,11443
1659433873.921386,11471
1659433873.960342,11497
1659433874.001348,11528
1659433874.042354,11568
1659433874.080968,11589
1659433874.119582,11618
1659433874.158197,11637
1659433874.20262,11613
1659433874.247043,11565
1659433874.291467,11528
1659433874.332473,11518
1659433874.373479,11525
1659433874.413119,11523
1659433874.452758,11542
1659433874.492397,11565
1659433874.531011,11568
1659433874.569626,11582
1659433874.60824,11613
1659433874.647196,11623
1659433874.686152,11652
1659433874.725107,11684
1659433874.766626,11712
1659433874.808145,11742
1659433874.846759,11768
1659433874.885373,11798
1659433874.923988,11831
1659433874.965506,11856
1659433875.007025,11889
1659433875.045298,11903
1659433875.08357,11897
1659433875.121842,11860
1659433875.162849,11833
1659433875.203855,11821
1659433875.242811,11808
1659433875.281767,11832
1659433875.320723,11836
1659433875.365146,11846
1659433875.409569,11868
1659433875.453993,11895
1659433875.488335,11904
1659433875.522678,11934
1659433875.56676,11962
1659433875.610842,11987
1659433875.654923,12028
1659433875.688241,12062
1659433875.721558,12098
1659433875.765981,12131
1659433875.810405,12173
1659433875.854828,12224
1659433875.893784,12268
1659433875.93274,12294
1659433875.971696,12304
1659433876.013727,12330
1659433876.055759,12357
1659433876.095056,12388
1659433876.134354,12424
1659433876.173651,12465
1659433876.214145,12516
1659433876.254639,12544
1659433876.293595,12568
1659433876.332551,12592
1659433876.371506,12624
1659433876.411488,12638
1659433876.451468,12657
1659433876.49145,12671
1659433876.532456,12697
1659433876.573462,12703
1659433876.611734,12718
1659433876.650007,12739
1659433876.688279,12743
1659433876.730823,12749
1659433876.773367,12720
1659433876.811981,12663
1659433876.850596,12604
1659433876.88921,12560
1659433876.929703,12539
1659433876.970197,12516
1659433877.009153,12489
1659433877.048109,12496
1659433877.087065,12480
1659433877.131146,12490
1659433877.175228,12477
1659433877.21931,12471
1659433877.259803,12476
1659433877.300297,12480
1659433877.339936,12492
1659433877.379575,12497
1659433877.419215,12515
1659433877.460221,12517
1659433877.501227,12529
1659433877.5395,12536
1659433877.577772,12516
1659433877.616045,12460
1659433877.655342,12387
1659433877.69464,12348
1659433877.733938,12321
1659433877.775969,12300
1659433877.818,12279
1659433877.856273,12276
1659433877.894545,12276
1659433877.932818,12268
1659433877.974849,12259
1659433878.01688,12263
1659433878.055495,12272
1659433878.094109,12268
1659433878.132723,12283
1659433878.170995,12297
1659433878.209268,12306
1659433878.24754,12324
1659433878.291964,12334
1659433878.336387,12319
1659433878.38081,12268
1659433878.414128,12200
1659433878.447445,12152
1659433878.491185,12120
1659433878.534925,12095
1659433878.578665,12084
1659433878.612495,12085
1659433878.646326,12088
1659433878.691091,12094
1659433878.735856,12092
1659433878.780621,12085
1659433878.819577,12100
1659433878.858533,12113
1659433878.897489,12129
1659433878.940032,12137
1659433878.982576,12164
1659433879.021874,12180
1659433879.061172,12205
1659433879.100469,12232
1659433879.140963,12252
1659433879.181457,12239
1659433879.220412,12170
1659433879.259368,12110
1659433879.298324,12071
1659433879.337622,12020
1659433879.376919,11984
1659433879.416217,11971
1659433879.457223,11966
1659433879.49823,11963
1659433879.536502,11962
1659433879.574774,11955
1659433879.613047,11961
1659433879.655078,11991
1659433879.697109,11997
1659433879.736065,12015
1659433879.775021,12046
1659433879.813977,12068
1659433879.858401,12099
1659433879.902824,12114
1659433879.947247,12152
1659433879.980565,12158
1659433880.013882,12193
1659433880.058306,12221
1659433880.102729,12206
1659433880.147152,12143
1659433880.188159,12076
1659433880.229165,12035
1659433880.268804,12010
1659433880.308444,11991
1659433880.348083,11977
1659433880.386355,11985
1659433880.424628,11982
1659433880.4629,11990
1659433880.503906,11988
1659433880.544913,11982
1659433880.583185,12006
1659433880.621458,12027
1659433880.65973,12047
1659433880.698686,12072
1659433880.737642,12102
1659433880.776598,12127
1659433880.818116,12155
1659433880.859635,12190
1659433880.898249,12213
1659433880.936864,12238
1659433880.975478,12242
1659433881.017509,12210
1659433881.059541,12155
1659433881.097813,12103
1659433881.136086,12071
1659433881.174358,12054
1659433881.216389,12054
1659433881.258421,12050
1659433881.29806,12065
1659433881.337699,12051
1659433881.377339,12064
1659433881.417832,12084
1659433881.458326,12087
1659433881.497282,12111
1659433881.536238,12130
1659433881.575194,12168
1659433881.619617,12191
1659433881.66404,12216
1659433881.708464,12239
1659433881.750495,12271
1659433881.792526,12295
1659433881.831141,12313
1659433881.869755,12341
1659433881.908369,12355
1659433881.950913,12346
1659433881.993457,12290
1659433882.032071,12248
1659433882.070685,12215
1659433882.109299,12195
1659433882.148255,12185
1659433882.187211,12188
1659433882.226167,12189
1659433882.269223,12201
1659433882.31228,12202
1659433882.350553,12216
1659433882.388825,12223
1659433882.427097,12241
1659433882.467591,12270
1659433882.508085,12288
1659433882.54704,12315
1659433882.585996,12336
1659433882.624952,12369
1659433882.663908,12392
1659433882.702864,12415
1659433882.74182,12449
1659433882.783339,12477
1659433882.824857,12522
1659433882.863472,12516
1659433882.902086,12476
1659433882.9407,12425
1659433882.982219,12392
1659433883.023738,12366
1659433883.062694,12350
1659433883.10165,12357
1659433883.140605,12360
1659433883.182637,12364
1659433883.224668,12368
1659433883.269091,12376
1659433883.313515,12390
1659433883.357938,12398
1659433883.390743,12420
1659433883.423548,12437
1659433883.468313,12460
1659433883.513078,12479
1659433883.557843,12512
1659433883.596799,12531
1659433883.635755,12555
1659433883.674711,12592
1659433883.712984,12602
1659433883.751256,12595
1659433883.789528,12557
1659433883.831047,12509
1659433883.872566,12474
1659433883.910838,12448
1659433883.949111,12442
1659433883.987383,12426
1659433884.029415,12424
1659433884.071446,12428
1659433884.11006,12431
1659433884.148674,12428
1659433884.187289,12432
1659433884.225903,12454
1659433884.264517,12464
1659433884.303131,12474
1659433884.34465,12492
1659433884.386169,12519
1659433884.425466,12532
1659433884.464764,12556
1659433884.504061,12585
1659433884.546093,12598
1659433884.588124,12629
1659433884.632889,12613
1659433884.677655,12554
1659433884.72242,12489
1659433884.755224,12439
1659433884.788029,12417
1659433884.832795,12377
1659433884.87756,12371
1659433884.922325,12377
1659433884.956155,12377
1659433884.989985,12385
1659433885.034067,12386
1659433885.078148,12401
1659433885.12223,12407
1659433885.160844,12415
1659433885.199458,12436
1659433885.238073,12459
1659433885.280104,12474
1659433885.322135,12487
1659433885.360749,12510
1659433885.399364,12527
1659433885.437978,12554
1659433885.480522,12566
1659433885.523066,12578
1659433885.562021,12567
1659433885.600977,12496
1659433885.639933,12428
1659433885.678889,12378
1659433885.717845,12348
1659433885.756801,12327
1659433885.797807,12339
1659433885.838813,12334
1659433885.877769,12329
1659433885.916725,12341
1659433885.955681,12333
1659433885.9972,12336
1659433886.038719,12345
1659433886.077675,12372
1659433886.11663,12378
1659433886.155586,12406
1659433886.196593,12429
1659433886.237599,12443
1659433886.275871,12459
1659433886.314144,12474
1659433886.352416,12499
1659433886.394448,12528
1659433886.436479,12526
1659433886.475776,12493
1659433886.515074,12424
1659433886.554372,12371
1659433886.598453,12330
1659433886.642535,12305
1659433886.686617,12298
1659433886.719934,12288
1659433886.753252,12304
1659433886.797675,12295
1659433886.842098,12304
1659433886.886522,12301
1659433886.925136,12308
1659433886.96375,12316
1659433887.002364,12325
1659433887.04337,12346
1659433887.084377,12367
1659433887.123674,12388
1659433887.162972,12421
1659433887.20227,12431
1659433887.2402,12463
1659433887.278131,12487
1659433887.316062,12496
1659433887.358606,12478
1659433887.40115,12413
1659433887.439764,12349
1659433887.478378,12314
1659433887.516992,12284
1659433887.558511,12265
1659433887.60003,12256
1659433887.638986,12260
1659433887.677942,12259
1659433887.716897,12258
1659433887.759441,12270
1659433887.801985,12268
1659433887.8406,12288
1659433887.879214,12307
1659433887.917828,12314
1659433887.959859,12341
1659433888.001891,12357
1659433888.040846,12377
1659433888.079802,12407
1659433888.118758,12434
1659433888.16284,12440
1659433888.206922,12462
1659433888.251003,12425
1659433888.284321,12372
1659433888.317638,12300
1659433888.362062,12257
1659433888.406485,12239
1659433888.450908,12216
1659433888.491915,12218
1659433888.532921,12225
1659433888.571877,12230
1659433888.610833,12225
1659433888.649789,12240
1659433888.688745,12242
1659433888.7277,12257
1659433888.766656,12272
1659433888.808688,12292
1659433888.850719,12320
1659433888.889333,12341
1659433888.927947,12370
1659433888.966562,12384
1659433889.008593,12412
1659433889.050624,12432
1659433889.088897,12411
1659433889.127169,12362
1659433889.165442,12290
1659433889.204056,12257
1659433889.24267,12236
1659433889.281284,12212
1659433889.323315,12207
1659433889.365347,12209
1659433889.403961,12219
1659433889.442575,12214
1659433889.481189,12222
1659433889.521683,12234
1659433889.562176,12258
1659433889.601132,12269
1659433889.640088,12291
1659433889.679044,12318
1659433889.721076,12339
1659433889.763107,12364
1659433889.802063,12390
1659433889.841019,12425
1659433889.879975,12448
1659433889.924056,12468
1659433889.968138,12447
1659433890.01222,12388
1659433890.053738,12335
1659433890.095257,12299
1659433890.13353,12268
1659433890.171802,12244
1659433890.210075,12245
1659433890.249372,12247
1659433890.28867,12238
1659433890.327967,12248
1659433890.368973,12255
1659433890.40998,12262
1659433890.448936,12271
1659433890.487892,12286
1659433890.526847,12320
1659433890.56512,12323
1659433890.603392,12344
1659433890.641665,12376
1659433890.684721,12390
1659433890.727778,12410
1659433890.76605,12427
1659433890.804323,12463
1659433890.842595,12479
1659433890.884114,12448
1659433890.925633,12376
1659433890.965272,12319
1659433891.004911,12289
1659433891.044551,12257
1659433891.086582,12230
1659433891.128613,12225
1659433891.166886,12219
1659433891.205158,12221
1659433891.243431,12230
1659433891.285975,12217
1659433891.328519,12227
1659433891.3726,12244
1659433891.416682,12258
1659433891.460764,12274
1659433891.494081,12294
1659433891.527399,12308
1659433891.571822,12326
1659433891.616246,12350
1659433891.660669,12379
1659433891.699625,12389
1659433891.738581,12412
1659433891.777537,12391
1659433891.81803,12338
1659433891.858524,12264
1659433891.897821,12215
1659433891.937119,12183
1659433891.976417,12163
1659433892.015031,12149
1659433892.053645,12139
1659433892.092259,12149
1659433892.133778,12144
1659433892.175297,12143
1659433892.214594,12144
1659433892.253892,12152
1659433892.29319,12166
1659433892.335221,12188
1659433892.377252,12202
1659433892.415183,12220
1659433892.453114,12243
1659433892.491045,12263
1659433892.53,12271
1659433892.568956,12302
1659433892.607912,12325
1659433892.649944,12345
1659433892.691975,12296
1659433892.730247,12231
1659433892.76852,12186
1659433892.806792,12133
1659433892.847286,12100
1659433892.887779,12077
1659433892.932886,12069
1659433892.977993,12062
1659433893.0231,12055
1659433893.055905,12051
1659433893.08871,12047
1659433893.133475,12064
1659433893.17824,12063
1659433893.223005,12077
1659433893.256323,12099
1659433893.28964,12117
1659433893.334064,12131
1659433893.378487,12145
1659433893.42291,12167
1659433893.461525,12177
1659433893.500139,12210
1659433893.538753,12225
1659433893.581297,12224
1659433893.623841,12197
1659433893.662113,12121
1659433893.700386,12071
1659433893.738658,12027
1659433893.780177,11996
1659433893.821696,11961
1659433893.860652,11954
1659433893.899608,11955
1659433893.938564,11944
1659433893.977861,11941
1659433894.017159,11942
1659433894.056456,11954
1659433894.09695,11962
1659433894.137444,11981
1659433894.176399,11998
1659433894.215355,12022
1659433894.254311,12046
1659433894.29583,12064
1659433894.337349,12088
1659433894.376647,12105
1659433894.415944,12139
1659433894.455242,12162
1659433894.49676,12153
1659433894.538279,12118
1659433894.577919,12060
1659433894.617558,12017
1659433894.657197,11979
1659433894.697691,11964
1659433894.738184,11958
1659433894.777482,11959
1659433894.81678,11968
1659433894.856077,11973
1659433894.900501,11975
1659433894.944924,11982
1659433894.989347,11998
1659433895.022152,12019
1659433895.054957,12031
1659433895.099039,12050
1659433895.143121,12082
1659433895.187202,12108
1659433895.2265,12133
1659433895.265798,12154
1659433895.305095,12168
1659433895.346614,12188
1659433895.388133,12202
1659433895.427089,12186
1659433895.466044,12125
1659433895.505,12078
1659433895.546519,12044
1659433895.588038,12026
1659433895.626994,12014
1659433895.66595,12015
1659433895.704906,12023
1659433895.742836,12025
1659433895.780767,11984
1659433895.818698,11967
1659433895.861754,11973
1659433895.904811,11973
1659433895.942742,11999
1659433895.980672,12020
1659433896.018603,12057
1659433896.059097,12093
1659433896.09959,12139
1659433896.138888,12184
1659433896.178185,12230
1659433896.217483,12273
1659433896.259515,12316
1659433896.301546,12361
1659433896.339818,12375
1659433896.378091,12366
1659433896.416363,12367
1659433896.461812,12391
1659433896.50726,12429
1659433896.552709,12456
1659433896.585514,12518
1659433896.618319,12565
1659433896.662742,12615
1659433896.707165,12659
1659433896.751589,12687
1659433896.794133,12738
1659433896.836677,12768
1659433896.875633,12790
1659433896.914589,12815
1659433896.953545,12843
1659433896.991475,12860
1659433897.029406,12883
1659433897.067337,12925
1659433897.109368,12962
1659433897.151399,13006
1659433897.190014,13027
1659433897.228628,13024
1659433897.267242,13005
1659433897.30654,12990
1659433897.345837,12986
1659433897.385135,13003
1659433897.426141,13019
1659433897.467147,13043
1659433897.506103,13055
1659433897.545059,13064
1659433897.584015,13070
1659433897.625021,13089
1659433897.666027,13084
1659433897.705667,13096
1659433897.745306,13110
1659433897.784945,13130
1659433897.826977,13142
1659433897.869008,13157
1659433897.907622,13190
1659433897.946236,13207
1659433897.98485,13237
1659433898.025857,13250
1659433898.066863,13251
1659433898.111628,13212
1659433898.156393,13179
1659433898.201158,13153
1659433898.239772,13124
1659433898.278387,13102
1659433898.317001,13087
1659433898.35852,13085
1659433898.400038,13093
1659433898.438653,13079
1659433898.477267,13093
1659433898.515881,13102
1659433898.556887,13119
1659433898.597893,13138
1659433898.636849,13139
1659433898.675805,13165
1659433898.714761,13179
1659433898.754059,13196
1659433898.793356,13200
1659433898.832654,13228
1659433898.87366,13247
1659433898.914666,13251
1659433898.953622,13199
1659433898.992578,13144
1659433899.031534,13105
1659433899.074078,13062
1659433899.116622,13040
1659433899.155236,13023
1659433899.19385,13007
1659433899.232464,12996
1659433899.270737,12984
1659433899.309009,12970
1659433899.347281,12962
1659433899.392047,12954
1659433899.436812,12960
1659433899.481577,12967
1659433899.519849,12973
1659433899.558122,12979
1659433899.596394,12971
1659433899.63535,12980
1659433899.674306,12991
1659433899.713262,12997
1659433899.755293,12983
1659433899.797325,12932
1659433899.839356,12875
1659433899.881387,12839
1659433899.920002,12796
1659433899.958616,12776
1659433899.99723,12776
1659433900.038749,12758
1659433900.080267,12751
1659433900.119223,12740
1659433900.158179,12742
1659433900.197135,12730
1659433900.236091,12751
1659433900.275047,12757
1659433900.314003,12761
1659433900.355009,12780
1659433900.396015,12802
1659433900.435313,12816
1659433900.47461,12833
1659433900.513908,12853
1659433900.554402,12855
1659433900.594895,12830
1659433900.634535,12774
1659433900.674174,12716
1659433900.713813,12682
1659433900.755332,12658
1659433900.796851,12642
1659433900.835123,12641
1659433900.873396,12629
1659433900.911668,12622
1659433900.956433,12630
1659433901.001198,12630
1659433901.045964,12625
1659433901.080306,12642
1659433901.114649,12649
1659433901.158731,12656
1659433901.202812,12673
1659433901.246894,12685
1659433901.288413,12714
1659433901.329931,12727
1659433901.368887,12741
1659433901.407843,12721
1659433901.446799,12657
1659433901.48473,12585
1659433901.52266,12550
1659433901.560591,12501
1659433901.60211,12471
1659433901.643629,12458
1659433901.682585,12446
1659433901.721541,12437
1659433901.760497,12436
1659433901.798427,12428
1659433901.836358,12427
1659433901.874289,12439
1659433901.91632,12444
1659433901.958352,12456
1659433901.997307,12463
1659433902.036263,12488
1659433902.075219,12509
1659433902.11725,12529
1659433902.159282,12521
1659433902.197896,12480
1659433902.23651,12428
1659433902.275124,12364
1659433902.317156,12320
1659433902.359187,12305
1659433902.39746,12273
1659433902.435732,12275
1659433902.474005,12280
1659433902.516036,12269
1659433902.558067,12277
1659433902.602832,12275
1659433902.647597,12281
1659433902.692363,12290
1659433902.730635,12313
1659433902.768908,12339
1659433902.80718,12350
1659433902.845794,12383
1659433902.884408,12414
1659433902.923023,12438
1659433902.965054,12427
1659433903.007085,12365
1659433903.045699,12304
1659433903.084313,12257
1659433903.122928,12216
1659433903.165472,12207
1659433903.208015,12203
1659433903.246971,12210
1659433903.285927,12217
1659433903.324883,12225
1659433903.363497,12233
1659433903.402112,12238
1659433903.440726,12240
1659433903.481732,12265
1659433903.522738,12292
1659433903.562377,12308
1659433903.602017,12336
1659433903.641656,12357
1659433903.682662,12387
1659433903.723669,12420
1659433903.762283,12448
1659433903.800897,12454
1659433903.839511,12412
1659433903.880517,12353
1659433903.921523,12304
1659433903.961163,12262
1659433904.000802,12250
1659433904.040442,12248
1659433904.080935,12250
1659433904.121429,12258
1659433904.166194,12254
1659433904.210959,12265
1659433904.255724,12274
1659433904.294338,12279
1659433904.332952,12303
1659433904.371567,12326
1659433904.413085,12343
1659433904.454604,12381
1659433904.49356,12404
1659433904.532516,12423
1659433904.571472,12454
1659433904.613503,12488
1659433904.655535,12526
1659433904.693807,12539
1659433904.732079,12514
1659433904.770352,12458
1659433904.808966,12418
1659433904.84758,12382
1659433904.886194,12367
1659433904.927713,12355
1659433904.969232,12372
1659433905.008188,12373
1659433905.047144,12394
1659433905.0861,12393
1659433905.12403,12400
1659433905.161961,12430
1659433905.199892,12445
1659433905.242436,12466
1659433905.28498,12494
1659433905.323594,12524
1659433905.362208,12550
1659433905.400822,12584
1659433905.442341,12617
1659433905.48386,12639
1659433905.523499,12663
1659433905.563138,12691
1659433905.602778,12721
1659433905.644296,12715
1659433905.685815,12681
1659433905.729555,12629
1659433905.773295,12605
1659433905.817035,12571
1659433905.851378,12552
1659433905.88572,12563
1659433905.929802,12564
1659433905.973884,12575
1659433906.017966,12588
1659433906.056238,12574
1659433906.09451,12589
1659433906.132783,12611
1659433906.173789,12633
1659433906.214795,12644
1659433906.254435,12667
1659433906.294074,12699
1659433906.333713,12732
1659433906.375232,12745
1659433906.416751,12780
1659433906.456048,12810
1659433906.495346,12830
1659433906.534644,12858
1659433906.5736,12869
1659433906.612556,12841
1659433906.651511,12809
1659433906.692518,12782
1659433906.733524,12776
1659433906.77248,12762
1659433906.811435,12762
1659433906.850391,12782
1659433906.892935,12783
1659433906.935479,12802
1659433906.973752,12802
1659433907.012024,12804
1659433907.050297,12827
1659433907.09472,12843
1659433907.139143,12871
1659433907.183567,12883
1659433907.216884,12910
1659433907.250202,12926
1659433907.293942,12963
1659433907.337682,12980
1659433907.381422,13000
1659433907.420719,13028
1659433907.460017,13056
1659433907.499315,13066
1659433907.540833,13064
1659433907.582352,13042
1659433907.620625,12994
1659433907.658897,12985
1659433907.69717,12959
1659433907.739201,12947
1659433907.781232,12946
1659433907.820188,12950
1659433907.859144,12955
1659433907.8981,12960
1659433907.936714,12961
1659433907.975328,12968
1659433908.013942,12985
1659433908.054949,12993
1659433908.095955,13024
1659433908.134911,13039
1659433908.173867,13051
1659433908.212822,13087
1659433908.251095,13100
1659433908.289367,13123
1659433908.32764,13141
1659433908.369671,13164
1659433908.411703,13192
1659433908.450317,13207
1659433908.488931,13207
1659433908.527545,13175
1659433908.569577,13146
1659433908.611608,13096
1659433908.653126,13075
1659433908.694645,13066
1659433908.733943,13058
1659433908.773241,13043
1659433908.812538,13042
1659433908.856961,13040
1659433908.901385,13042
1659433908.945808,13044
1659433908.979126,13044
1659433909.012444,13048
1659433909.056867,13073
1659433909.10129,13078
1659433909.145714,13082
1659433909.183986,13094
1659433909.222259,13113
1659433909.260531,13128
1659433909.302562,13143
1659433909.344594,13160
1659433909.383549,13168
1659433909.422505,13193
1659433909.461461,13176
1659433909.502468,13137
1659433909.543474,13084
1659433909.582771,13034
1659433909.622069,12997
1659433909.661367,12970
1659433909.700322,12948
1659433909.739278,12924
1659433909.778234,12920
1659433909.821291,12906
1659433909.864347,12901
1659433909.904123,12879
1659433909.943899,12873
1659433909.983675,12884
1659433910.023451,12886
1659433910.063227,12881
1659433910.105771,12880
1659433910.148315,12894
1659433910.186929,12900
1659433910.225543,12915
1659433910.264158,12923
1659433910.302088,12932
1659433910.340019,12953
1659433910.37795,12969
1659433910.419981,12966
1659433910.462013,12917
1659433910.500285,12836
1659433910.538558,12773
1659433910.57683,12702
1659433910.618349,12665
1659433910.659868,12624
1659433910.698823,12601
1659433910.737779,12580
1659433910.776735,12561
1659433910.818254,12560
1659433910.859773,12525
1659433910.903855,12512
1659433910.947936,12520
1659433910.992018,12523
1659433911.025848,12529
1659433911.059678,12545
1659433911.104443,12577
1659433911.149208,12591
1659433911.193973,12611
1659433911.232246,12617
1659433911.270518,12629
1659433911.308791,12645
1659433911.35031,12667
1659433911.391828,12665
1659433911.430784,12624
1659433911.46974,12550
1659433911.508696,12472
1659433911.550215,12411
1659433911.591733,12360
1659433911.630689,12319
1659433911.669645,12303
1659433911.708601,12269
1659433911.746874,12256
1659433911.785146,12232
1659433911.823419,12205
1659433911.864425,12191
1659433911.905431,12185
1659433911.944729,12184
1659433911.984026,12174
1659433912.023324,12180
1659433912.065355,12176
1659433912.107387,12180
1659433912.146001,12177
1659433912.184615,12177
1659433912.223229,12188
1659433912.26526,12199
1659433912.307292,12207
1659433912.346931,12163
1659433912.38657,12090
1659433912.42621,11957
1659433912.467216,11819
1659433912.508222,11721
1659433912.546836,11617
1659433912.58545,11530
1659433912.624065,11477
1659433912.66883,11414
1659433912.713595,11389
1659433912.75836,11334
1659433912.791677,11294
1659433912.824995,11270
1659433912.869418,11265
1659433912.913842,11260
1659433912.958265,11265
1659433912.991583,11293
1659433913.0249,11338
1659433913.069324,11354
1659433913.113747,11386
1659433913.15817,11427
1659433913.196785,11475
1659433913.235399,11514
1659433913.274013,11524
1659433913.316557,11479
1659433913.359101,11419
1659433913.397373,11385
1659433913.435646,11377
1659433913.473918,11344
1659433913.514925,11343
1659433913.555931,11371
1659433913.594545,11383
1659433913.633159,11399
1659433913.671773,11414
1659433913.710387,11443
1659433913.749002,11465
1659433913.787616,11490
1659433913.829134,11513
1659433913.870653,11542
1659433913.909267,11575
1659433913.947882,11616
1659433913.986496,11631
1659433914.027502,11660
1659433914.068508,11683
1659433914.107464,11709
1659433914.14642,11733
1659433914.185376,11730
1659433914.227407,11681
1659433914.269439,11648
1659433914.308736,11622
1659433914.348034,11598
1659433914.387331,11608
1659433914.431413,11613
1659433914.475495,11622
1659433914.519576,11624
1659433914.561095,11621
1659433914.602614,11627
1659433914.641228,11620
1659433914.679842,11651
1659433914.718457,11666
1659433914.760488,11668
1659433914.802519,11674
1659433914.840792,11666
1659433914.879064,11693
1659433914.917336,11697
1659433914.956634,11725
1659433914.995932,11723
1659433915.035229,11732
1659433915.075723,11734
1659433915.116217,11714
1659433915.154831,11658
1659433915.193445,11614
1659433915.232059,11597
1659433915.27204,11576
1659433915.312021,11580
1659433915.352002,11562
1659433915.393521,11546
1659433915.43504,11554
1659433915.473654,11531
1659433915.512268,11530
1659433915.550882,11518
1659433915.593426,11536
1659433915.63597,11541
1659433915.675268,11589
1659433915.714566,11615
1659433915.753863,11631
1659433915.794357,11662
1659433915.83485,11700
1659433915.874148,11720
1659433915.913445,11747
1659433915.952743,11755
1659433915.994262,11761
1659433916.035781,11735
1659433916.079521,11721
1659433916.123261,11714
1659433916.167001,11715
1659433916.20664,11732
1659433916.246279,11759
1659433916.285918,11780
1659433916.327437,11790
1659433916.368956,11801
1659433916.407228,11825
1659433916.445501,11843
1659433916.483773,11841
1659433916.523071,11834
1659433916.562369,11844
1659433916.601666,11855
1659433916.643698,11897
1659433916.685729,11909
1659433916.724001,11930
1659433916.762274,11953
1659433916.800546,11974
1659433916.842065,11987
1659433916.883584,11982
1659433916.922198,11972
1659433916.960812,11971
1659433916.999426,11978
1659433917.037699,11984
1659433917.075971,11989
1659433917.114244,12002
1659433917.156275,12009
1659433917.198307,12010
1659433917.236921,12024
1659433917.275535,12031
1659433917.314149,12031
1659433917.354643,12036
1659433917.395136,12041
1659433917.434092,12035
1659433917.473048,12053
1659433917.512004,12061
1659433917.554035,12079
1659433917.596067,12083
1659433917.640148,12078
1659433917.68423,12052
1659433917.728312,12010
1659433917.767268,11986
1659433917.806223,11955
1659433917.845179,11940
1659433917.887211,11935
1659433917.929242,11940
1659433917.967515,11941
1659433918.005787,11943
1659433918.04406,11943
1659433918.083015,11960
1659433918.121971,11961
1659433918.160927,11977
1659433918.203471,11982
1659433918.246015,11973
1659433918.284629,11993
1659433918.323243,12004
1659433918.361858,12022
1659433918.402864,12027
1659433918.44387,12038
1659433918.483168,12024
1659433918.522465,11984
1659433918.561763,11953
1659433918.60106,11938
1659433918.640358,11922
1659433918.679656,11915
1659433918.721174,11901
1659433918.762693,11898
1659433918.801991,11897
1659433918.841288,11896
1659433918.880586,11892
1659433918.922617,11892
1659433918.964649,11891
1659433919.003605,11890
1659433919.042561,11911
1659433919.081517,11911
1659433919.122523,11928
1659433919.163529,11952
1659433919.20761,11960
1659433919.251692,11984
1659433919.295774,11984
1659433919.328579,11975
1659433919.361384,11927
1659433919.405465,11896
1659433919.449547,11873
1659433919.493629,11873
1659433919.533268,11837
1659433919.572907,11831
1659433919.612547,11832
1659433919.653553,11826
1659433919.694559,11814
1659433919.733515,11802
1659433919.772471,11801
1659433919.811427,11800
1659433919.852946,11804
1659433919.894464,11807
1659433919.933762,11815
1659433919.97306,11819
1659433920.012357,11834
1659433920.050971,11842
1659433920.089586,11857
1659433920.1282,11847
1659433920.170744,11819
1659433920.213288,11775
1659433920.25156,11738
1659433920.289833,11719
1659433920.328105,11686
1659433920.366719,11676
1659433920.405333,11668
1659433920.443948,11675
1659433920.488371,11658
1659433920.532794,11648
1659433920.577218,11648
1659433920.615148,11646
1659433920.653079,11644
1659433920.69101,11650
1659433920.733041,11666
1659433920.775073,11666
1659433920.81437,11674
1659433920.853668,11677
1659433920.892965,11672
1659433920.931238,11646
1659433920.96951,11594
1659433921.007783,11566
1659433921.050327,11534
1659433921.092871,11498
1659433921.132168,11489
1659433921.171466,11501
1659433921.210763,11487
1659433921.249719,11478
1659433921.288675,11469
1659433921.327631,11482
1659433921.36915,11479
1659433921.410669,11493
1659433921.452188,11511
1659433921.493706,11523
1659433921.532662,11533
1659433921.571618,11555
1659433921.610574,11572
1659433921.654997,11582
1659433921.699421,11592
1659433921.743844,11568
1659433921.777162,11528
1659433921.810479,11484
1659433921.854903,11450
1659433921.899326,11434
1659433921.943749,11420
1659433921.977067,11417
1659433922.010384,11422
1659433922.055491,11415
1659433922.100598,11421
1659433922.145705,11423
1659433922.184319,11427
1659433922.222933,11438
1659433922.261547,11454
1659433922.303579,11465
1659433922.34561,11497
1659433922.384224,11494
1659433922.422838,11507
1659433922.461453,11530
1659433922.503484,11553
1659433922.545515,11576
1659433922.583788,11572
1659433922.62206,11561
1659433922.660333,11522
1659433922.699289,11496
1659433922.738245,11464
1659433922.7772,11453
1659433922.817694,11459
1659433922.858188,11456
1659433922.897144,11464
1659433922.936099,11480
1659433922.975055,11486
1659433923.017087,11497
1659433923.059118,11502
1659433923.098074,11521
1659433923.13703,11538
1659433923.175986,11557
1659433923.216992,11579
1659433923.257998,11591
1659433923.296612,11625
1659433923.335227,11639
1659433923.373841,11662
1659433923.418264,11678
1659433923.462687,11704
1659433923.507111,11710
1659433923.540941,11679
1659433923.574771,11660
1659433923.618853,11635
1659433923.662934,11635
1659433923.707016,11616
1659433923.748535,11629
1659433923.790054,11641
1659433923.828326,11651
1659433923.866598,11645
1659433923.904871,11658
1659433923.943827,11670
1659433923.982783,11680
1659433924.021739,11702
1659433924.06377,11722
1659433924.105801,11735
1659433924.145099,11760
1659433924.184397,11777
1659433924.223694,11809
1659433924.2647,11814
1659433924.305707,11835
1659433924.345346,11860
1659433924.384985,11877
1659433924.424624,11853
1659433924.46358,11823
1659433924.502536,11824
1659433924.541492,11806
1659433924.583011,11798
1659433924.62453,11804
1659433924.663827,11807
1659433924.703125,11817
1659433924.742423,11829
1659433924.783941,11834
1659433924.82546,11847
1659433924.864074,11861
1659433924.902689,11881
1659433924.941303,11902
1659433924.983334,11913
1659433925.025365,11925
1659433925.063638,11945
1659433925.10191,11967
1659433925.140183,11976
1659433925.181189,12004
1659433925.222195,12016
1659433925.26696,12037
1659433925.311725,12046
1659433925.35649,12036
1659433925.39613,12004
1659433925.435769,11978
1659433925.475409,11955
1659433925.516415,11943
1659433925.557421,11935
1659433925.595352,11926
1659433925.633282,11923
1659433925.671213,11934
1659433925.709144,11921
1659433925.747075,11923
1659433925.785005,11927
1659433925.822936,11928
1659433925.863942,11932
1659433925.904948,11954
1659433925.949713,11970
1659433925.994479,11978
1659433926.039244,11990
1659433926.072561,12002
1659433926.105879,12023
1659433926.149619,12028
1659433926.193359,12044
1659433926.237099,12057
1659433926.276738,12063
1659433926.316377,12039
1659433926.356017,11991
1659433926.397023,11969
1659433926.438029,11935
1659433926.476301,11921
1659433926.514574,11907
1659433926.552846,11895
1659433926.59539,11897
1659433926.637934,11893
1659433926.676548,11895
1659433926.715163,11888
1659433926.753777,11899
1659433926.792049,11910
1659433926.830322,11930
1659433926.868594,11933
1659433926.910113,11939
1659433926.951632,11962
1659433926.990929,11963
1659433927.030227,11973
1659433927.069525,11989
1659433927.107797,11998
1659433927.14607,12012
1659433927.184342,12014
1659433927.225861,11986
1659433927.26738,11941
1659433927.305994,11904
1659433927.344608,11882
1659433927.383222,11850
1659433927.425253,11839
1659433927.467285,11832
1659433927.512392,11827
1659433927.557498,11826
1659433927.602605,11813
1659433927.63541,11816
1659433927.668215,11820
1659433927.712639,11820
1659433927.757062,11824
1659433927.801485,11851
1659433927.835315,11854
1659433927.869146,11861
1659433927.914252,11882
1659433927.959359,11896
1659433928.004466,11898
1659433928.042738,11909
1659433928.081011,11931
1659433928.119283,11939
1659433928.16029,11918
1659433928.201296,11858
1659433928.240252,11813
1659433928.279207,11789
1659433928.318163,11769
1659433928.359682,11747
1659433928.401201,11743
1659433928.439815,11739
1659433928.478429,11742
1659433928.517044,11739
1659433928.556,11741
1659433928.594955,11731
1659433928.633911,11748
1659433928.67543,11755
1659433928.716949,11763
1659433928.755905,11768
1659433928.794861,11782
1659433928.833817,11798
1659433928.875848,11804
1659433928.917879,11804
1659433928.957177,11816
1659433928.996474,11826
1659433929.035772,11796
1659433929.076266,11737
1659433929.116759,11687
1659433929.155373,11647
1659433929.193988,11613
1659433929.232602,11595
1659433929.275146,11583
1659433929.31769,11590
1659433929.355962,11576
1659433929.394234,11561
1659433929.432507,11549
1659433929.476589,11551
1659433929.52067,11555
1659433929.564752,11562
1659433929.598582,11577
1659433929.632412,11585
1659433929.676494,11601
1659433929.720576,11605
1659433929.764657,11618
1659433929.806689,11637
1659433929.84872,11635
1659433929.888018,11598
1659433929.927315,11536
1659433929.966613,11491
1659433930.005227,11447
1659433930.043841,11445
1659433930.082455,11425
1659433930.123461,11421
1659433930.164468,11426
1659433930.203765,11412
1659433930.243063,11410
1659433930.282361,11407
1659433930.320975,11412
1659433930.359589,11414
1659433930.398203,11440
1659433930.439722,11452
1659433930.481241,11474
1659433930.520196,11488
1659433930.559152,11496
1659433930.598108,11527
1659433930.639114,11553
1659433930.680121,11550
1659433930.719418,11494
1659433930.758716,11452
1659433930.798013,11408
1659433930.83779,11379
1659433930.877566,11380
1659433930.917341,11381
1659433930.957118,11406
1659433930.996894,11406
1659433931.041317,11413
1659433931.08574,11427
1659433931.130164,11436
1659433931.172708,11458
1659433931.215252,11484
1659433931.254208,11516
1659433931.293163,11540
1659433931.332119,11565
1659433931.370733,11592
1659433931.409348,11605
1659433931.447962,11634
1659433931.48948,11655
1659433931.530999,11658
1659433931.569272,11627
1659433931.607544,11564
1659433931.645817,11513
1659433931.684431,11471
1659433931.723045,11465
1659433931.761659,11452
1659433931.804203,11461
1659433931.846747,11472
1659433931.885361,11468
1659433931.923975,11483
1659433931.96259,11488
1659433932.004108,11482
1659433932.045627,11507
1659433932.084925,11515
1659433932.124223,11529
1659433932.16352,11545
1659433932.205039,11569
1659433932.246558,11594
1659433932.285172,11619
1659433932.323786,11622
1659433932.3624,11654
1659433932.403406,11685
1659433932.444412,11692
1659433932.482685,11650
1659433932.520957,11581
1659433932.55923,11542
1659433932.603312,11504
1659433932.647393,11484
1659433932.691475,11460
1659433932.734019,11454
1659433932.776563,11465
1659433932.815177,11469
1659433932.853791,11463
1659433932.892405,11460
1659433932.93102,11467
1659433932.969634,11482
1659433933.008248,11494
1659433933.050279,11513
1659433933.09231,11528
1659433933.131266,11550
1659433933.170222,11564
1659433933.209178,11583
1659433933.251209,11597
1659433933.293241,11598
1659433933.332539,11630
1659433933.371836,11639
1659433933.411134,11612
1659433933.452652,11555
1659433933.494171,11494
1659433933.532785,11456
1659433933.5714,11420
1659433933.610014,11402
1659433933.649312,11387
1659433933.688609,11392
1659433933.727907,11399
1659433933.769425,11399
1659433933.810944,11410
1659433933.849558,11409
1659433933.888173,11410
1659433933.926787,11429
1659433933.967793,11452
1659433934.008799,11468
1659433934.048439,11485
1659433934.088078,11509
1659433934.127717,11533
1659433934.169236,11555
1659433934.210755,11572
1659433934.254836,11589
1659433934.298918,11612
1659433934.343,11599
1659433934.382297,11551
1659433934.421595,11502
1659433934.460892,11457
1659433934.502411,11438
1659433934.54393,11438
1659433934.583228,11418
1659433934.622525,11421
1659433934.661823,11427
1659433934.702829,11429
1659433934.743835,11431
1659433934.782791,11437
1659433934.821747,11451
1659433934.860703,11463
1659433934.898634,11488
1659433934.936564,11510
1659433934.974495,11534
1659433935.017039,11560
1659433935.059583,11582
1659433935.098197,11591
1659433935.136811,11620
1659433935.175426,11640
1659433935.216432,11651
1659433935.257438,11641
1659433935.296394,11589
1659433935.33535,11537
1659433935.374306,11519
1659433935.413262,11491
1659433935.452218,11491
1659433935.491173,11497
1659433935.535255,11494
1659433935.579337,11515
1659433935.623418,11515
1659433935.665962,11513
1659433935.708506,11524
1659433935.747462,11549
1659433935.786418,11568
1659433935.825374,11588
1659433935.863305,11599
1659433935.901235,11616
1659433935.939166,11648
1659433935.981198,11672
1659433936.023229,11678
1659433936.062014,11699
1659433936.100799,11723
1659433936.139584,11732
1659433936.178369,11703
1659433936.217154,11659
1659433936.255939,11621
1659433936.295237,11590
1659433936.334534,11575
1659433936.373832,11557
1659433936.415351,11557
1659433936.456869,11551
1659433936.500951,11556
1659433936.545033,11565
1659433936.589114,11560
1659433936.623457,11563
1659433936.6578,11571
1659433936.702223,11586
1659433936.746647,11601
1659433936.79107,11624
1659433936.829684,11640
1659433936.868298,11650
1659433936.906913,11667
1659433936.947919,11692
1659433936.988925,11701
1659433937.027881,11718
1659433937.066837,11757
1659433937.105793,11767
1659433937.144065,11751
1659433937.182338,11706
1659433937.22061,11657
1659433937.263154,11646
1659433937.305698,11624
1659433937.344312,11614
1659433937.382926,11622
1659433937.42154,11620
1659433937.463059,11630
1659433937.504578,11633
1659433937.543534,11639
1659433937.58249,11643
1659433937.621446,11665
1659433937.660743,11673
1659433937.700041,11691
1659433937.739338,11701
1659433937.780857,11709
1659433937.822376,11736
1659433937.863895,11760
1659433937.905414,11787
1659433937.944028,11802
1659433937.982642,11852
1659433938.021256,11919
1659433938.065679,11973
1659433938.110103,11981
1659433938.154526,11956
1659433938.187844,11932
1659433938.221161,11936
1659433938.265243,11925
1659433938.309325,11937
1659433938.353406,11953
1659433938.386211,11970
1659433938.419016,11985
1659433938.463098,11994
1659433938.507179,12010
1659433938.551261,12023
1659433938.590217,12052
1659433938.629173,12071
1659433938.668129,12104
1659433938.710673,12132
1659433938.753217,12178
1659433938.791831,12222
1659433938.830445,12259
1659433938.869059,12291
1659433938.910578,12324
1659433938.952097,12369
1659433938.991053,12394
1659433939.030009,12425
1659433939.068964,12414
1659433939.107579,12356
1659433939.146193,12310
1659433939.184807,12272
1659433939.226326,12238
1659433939.267845,12218
1659433939.3068,12202
1659433939.345756,12199
1659433939.384712,12184
1659433939.425206,12172
1659433939.465699,12167
1659433939.505339,12156
1659433939.544978,12159
1659433939.584618,12168
1659433939.626649,12184
1659433939.66868,12183
1659433939.707294,12201
1659433939.745908,12224
1659433939.784523,12232
1659433939.829288,12231
1659433939.874053,12243
1659433939.918818,12264
1659433939.958116,12258
1659433939.997413,12234
1659433940.036711,12150
1659433940.074642,12084
1659433940.112572,12042
1659433940.150503,12006
1659433940.189801,11992
1659433940.229098,11976
1659433940.268396,11974
1659433940.310427,11965
1659433940.352459,11967
1659433940.390731,11958
1659433940.429003,11965
1659433940.467276,11977
1659433940.508795,11974
1659433940.550313,11999
1659433940.588928,11996
1659433940.627542,12014
1659433940.666156,12027
1659433940.710238,12043
1659433940.754319,12063
1659433940.798401,12068
1659433940.832744,12098
1659433940.867086,12096
1659433940.911852,12059
1659433940.956617,11990
1659433941.001382,11906
1659433941.042388,11863
1659433941.083394,11820
1659433941.12235,11794
1659433941.161306,11780
1659433941.200262,11772
1659433941.239559,11765
1659433941.278857,11755
1659433941.318155,11753
1659433941.359161,11743
1659433941.400167,11748
1659433941.441173,11755
1659433941.482179,11769
1659433941.520452,11791
1659433941.558724,11799
1659433941.596997,11817
1659433941.639028,11831
1659433941.68106,11846
1659433941.719332,11866
1659433941.757605,11882
1659433941.795877,11903
1659433941.835175,11869
1659433941.874472,11811
1659433941.91377,11714
1659433941.954776,11651
1659433941.995782,11624
1659433942.03508,11582
1659433942.074377,11572
1659433942.113675,11554
1659433942.155706,11540
1659433942.197738,11528
1659433942.239257,11521
1659433942.280775,11520
1659433942.322294,11516
1659433942.363813,11532
1659433942.402769,11538
1659433942.441725,11558
1659433942.48068,11577
1659433942.521687,11602
1659433942.562693,11627
1659433942.600965,11646
1659433942.639238,11660
1659433942.67751,11679
1659433942.716125,11711
1659433942.754739,11694
1659433942.793353,11631
1659433942.835897,11568
1659433942.878441,11495
1659433942.917397,11455
1659433942.956352,11421
1659433942.995308,11413
1659433943.036827,11401
1659433943.078346,11407
1659433943.117644,11407
1659433943.156941,11398
1659433943.196239,11401
1659433943.23827,11403
1659433943.280302,11422
1659433943.319257,11443
1659433943.358213,11463
1659433943.397169,11493
1659433943.438175,11518
1659433943.479182,11540
1659433943.518479,11562
1659433943.557777,11603
1659433943.597075,11628
1659433943.640814,11654
1659433943.684554,11664
1659433943.728294,11616
1659433943.762124,11568
1659433943.795954,11526
1659433943.840378,11494
1659433943.884801,11482
1659433943.929225,11473
1659433943.969718,11481
1659433944.010212,11491
1659433944.049168,11502
1659433944.088124,11501
1659433944.127079,11518
1659433944.166377,11529
1659433944.205675,11548
1659433944.244972,11584
1659433944.285979,11612
1659433944.326985,11643
1659433944.365599,11677
1659433944.404213,11709
1659433944.442827,11731
1659433944.484859,11760
1659433944.52689,11798
1659433944.565846,11815
1659433944.604802,11803
1659433944.643758,11756
1659433944.682372,11715
1659433944.720986,11679
1659433944.7596,11653
1659433944.801119,11645
1659433944.842638,11635
1659433944.880569,11641
1659433944.918499,11643
1659433944.95643,11656
1659433944.998461,11650
1659433945.040493,11655
1659433945.079449,11687
1659433945.118404,11707
1659433945.15736,11724
1659433945.201784,11751
1659433945.246207,11782
1659433945.290631,11807
1659433945.323948,11831
1659433945.357266,11867
1659433945.402372,11884
1659433945.447479,11925
1659433945.492586,11951
1659433945.534617,11957
1659433945.576649,11921
1659433945.615263,11871
1659433945.653877,11846
1659433945.692491,11835
1659433945.734523,11800
1659433945.776554,11798
1659433945.814826,11805
1659433945.853099,11807
1659433945.891371,11808
1659433945.929986,11821
1659433945.9686,11838
1659433946.007214,11863
1659433946.04617,11879
1659433946.085126,11906
1659433946.124082,11933
1659433946.166113,11945
1659433946.208144,11973
1659433946.2471,11996
1659433946.286056,12036
1659433946.325012,12045
1659433946.367043,12071
1659433946.409075,12093
1659433946.448031,12074
1659433946.486986,12035
1659433946.525942,11973
1659433946.570708,11929
1659433946.615473,11914
1659433946.660238,11890
1659433946.694068,11877
1659433946.727898,11870
1659433946.772321,11873
1659433946.816745,11870
1659433946.861168,11858
1659433946.899441,11869
1659433946.937713,11872
1659433946.975986,11899
1659433947.017504,11906
1659433947.059023,11921
1659433947.097979,11935
1659433947.136935,11957
1659433947.175891,11976
1659433947.216897,11993
1659433947.257903,12025
1659433947.296517,12036
1659433947.335131,12014
1659433947.373746,11950
1659433947.412702,11884
1659433947.451657,11849
1659433947.490613,11812
1659433947.532132,11791
1659433947.573651,11786
1659433947.612607,11791
1659433947.651563,11789
1659433947.690519,11786
1659433947.732037,11790
1659433947.773556,11800
1659433947.812512,11816
1659433947.851468,11831
1659433947.890424,11847
1659433947.932455,11876
1659433947.974487,11891
1659433948.013442,11902
1659433948.052398,11926
1659433948.091354,11940
1659433948.13236,11960
1659433948.173367,11981
1659433948.211639,11994
1659433948.249912,11948
1659433948.288184,11893
1659433948.332266,11827
1659433948.376347,11784
1659433948.420429,11756
1659433948.46246,11725
1659433948.504492,11719
1659433948.543106,11715
1659433948.58172,11716
1659433948.620334,11706
1659433948.662365,11700
1659433948.704397,11694
1659433948.743695,11696
1659433948.782992,11724
1659433948.82229,11745
1659433948.860904,11768
1659433948.899518,11785
1659433948.938132,11806
1659433948.980676,11818
1659433949.02322,11840
1659433949.062176,11861
1659433949.101132,11879
1659433949.140088,11873
1659433949.17836,11817
1659433949.216633,11756
1659433949.254905,11715
1659433949.296937,11685
1659433949.338968,11661
1659433949.377582,11643
1659433949.416196,11637
1659433949.45481,11623
1659433949.496329,11624
1659433949.537848,11611
1659433949.577487,11616
1659433949.617127,11629
1659433949.656766,11641
1659433949.698797,11664
1659433949.740829,11688
1659433949.779101,11709
1659433949.817374,11730
1659433949.855646,11746
1659433949.89819,11757
1659433949.940734,11794
1659433949.985157,11800
1659433950.029581,11809
1659433950.074004,11783
1659433950.105784,11722
1659433950.137564,11658
1659433950.181645,11611
1659433950.225727,11571
1659433950.269809,11534
1659433950.308764,11528
1659433950.34772,11528
1659433950.386676,11528
1659433950.425291,11531
1659433950.463905,11538
1659433950.502519,11543
1659433950.544038,11560
1659433950.585557,11576
1659433950.624171,11593
1659433950.662785,11630
1659433950.701399,11647
1659433950.740013,11686
1659433950.778627,11694
1659433950.817241,11719
1659433950.859273,11752
1659433950.901304,11786
1659433950.94026,11810
1659433950.979216,11806
1659433951.018172,11761
1659433951.059178,11703
1659433951.100184,11670
1659433951.13914,11647
1659433951.178096,11618
1659433951.217052,11602
1659433951.259596,11612
1659433951.30214,11614
1659433951.342463,11625
1659433951.382785,11615
1659433951.423108,11637
1659433951.463431,11647
1659433951.503754,11672
1659433951.544076,11688
1659433951.584399,11716
1659433951.624722,11746
1659433951.665045,11781
1659433951.705611,11808
1659433951.746178,11842
1659433951.786745,11870
1659433951.827312,11894
1659433951.867879,11920
1659433951.908446,11925
1659433951.949013,11873
1659433951.987968,11828
1659433952.026924,11778
1659433952.06588,11760
1659433952.104836,11727
1659433952.143792,11711
1659433952.182748,11719
1659433952.227855,11725
1659433952.272962,11738
1659433952.318069,11742
1659433952.356341,11759
1659433952.394613,11772
1659433952.432886,11800
1659433952.471842,11818
1659433952.510798,11846
1659433952.549753,11870
1659433952.588368,11899
1659433952.626982,11920
1659433952.665596,11944
1659433952.707115,11975
1659433952.748634,11995
1659433952.787248,12022
1659433952.825862,12025
1659433952.864476,11984
1659433952.905995,11947
1659433952.947514,11922
1659433952.98647,11901
1659433953.025425,11904
1659433953.064381,11908
1659433953.106413,11919
1659433953.148444,11932
1659433953.1874,11939
1659433953.226356,11951
1659433953.265312,11950
1659433953.30683,11967
1659433953.348349,11994
1659433953.38628,12023
1659433953.424211,12035
1659433953.462142,12065
1659433953.506565,12103
1659433953.550988,12120
1659433953.595412,12150
1659433953.634026,12168
1659433953.67264,12205
1659433953.711254,12222
1659433953.753285,12220
1659433953.795317,12181
1659433953.833931,12129
1659433953.872545,12099
1659433953.91116,12076
1659433953.949432,12043
1659433953.987704,12049
1659433954.025977,12033
1659433954.066983,12044
1659433954.107989,12045
1659433954.147629,12034
1659433954.187268,12042
1659433954.226907,12056
1659433954.267913,12060
1659433954.30892,12081
1659433954.347192,12105
1659433954.385464,12129
1659433954.423737,12138
1659433954.466281,12164
1659433954.508825,12184
1659433954.548122,12201
1659433954.58742,12216
1659433954.626718,12236
1659433954.667211,12247
1659433954.707705,12210
1659433954.747003,12150
1659433954.7863,12105
1659433954.825598,12079
1659433954.870021,12053
1659433954.914444,12042
1659433954.958868,12026
1659433954.992185,12020
1659433955.025503,12021
1659433955.070268,12024
1659433955.115033,12028
1659433955.159798,12018
1659433955.193116,12041
1659433955.226433,12058
1659433955.270515,12067
1659433955.314597,12089
1659433955.358678,12106
1659433955.398318,12137
1659433955.437957,12149
1659433955.477596,12168
1659433955.519628,12192
1659433955.561659,12218
1659433955.599931,12221
1659433955.638204,12193
1659433955.676476,12142
1659433955.717995,12086
1659433955.759514,12040
1659433955.798128,12006
1659433955.836742,11976
1659433955.875356,11974
1659433955.913629,11965
1659433955.951901,11956
1659433955.990174,11965
1659433956.032205,11964
1659433956.074237,11965
1659433956.113193,11977
1659433956.152148,11996
1659433956.191104,12010
1659433956.232111,12036
1659433956.273117,12053
1659433956.312073,12060
1659433956.351028,12090
1659433956.389984,12107
1659433956.432528,12126
1659433956.475072,12152
1659433956.513686,12170
1659433956.5523,12168
1659433956.590915,12113
1659433956.632433,12064
1659433956.673952,12023
1659433956.712566,11985
1659433956.751181,11968
1659433956.789795,11951
1659433956.833876,11955
1659433956.877958,11952
1659433956.92204,11942
1659433956.964071,11948
1659433957.006103,11938
1659433957.045058,11947
1659433957.084014,11967
1659433957.12297,11973
1659433957.161243,11981
1659433957.199515,12007
1659433957.237787,12025
1659433957.278281,12040
1659433957.318775,12055
1659433957.358073,12068
1659433957.39737,12096
1659433957.436668,12115
1659433957.478186,12099
1659433957.519705,12044
1659433957.558661,11986
1659433957.597617,11940
1659433957.636573,11899
1659433957.67587,11871
1659433957.715168,11866
1659433957.754466,11849
1659433957.796497,11851
1659433957.838528,11843
1659433957.877826,11847
1659433957.917124,11843
1659433957.956421,11861
1659433957.997427,11870
1659433958.038434,11889
1659433958.077731,11915
1659433958.117029,11925
1659433958.156327,11945
1659433958.19682,11962
1659433958.237314,11990
1659433958.281737,12007
1659433958.32616,12035
1659433958.370584,12043
1659433958.410223,12047
1659433958.449862,12003
1659433958.489502,11937
1659433958.528116,11886
1659433958.56673,11846
1659433958.605344,11823
1659433958.646863,11808
1659433958.688382,11805
1659433958.728021,11817
1659433958.767661,11812
1659433958.8073,11799
1659433958.848819,11807
1659433958.890337,11815
1659433958.928952,11828
1659433958.967566,11842
1659433959.00618,11871
1659433959.045478,11889
1659433959.084775,11922
1659433959.124073,11935
1659433959.164567,11954
1659433959.20506,11977
1659433959.243674,12002
1659433959.282289,12025
1659433959.320903,12033
1659433959.363446,11999
1659433959.405991,11940
1659433959.443921,11897
1659433959.481852,11857
1659433959.519783,11831
1659433959.561301,11811
1659433959.60282,11807
1659433959.641776,11808
1659433959.680732,11807
1659433959.719688,11812
1659433959.761719,11814
1659433959.803751,11836
1659433959.847832,11846
1659433959.891914,11860
1659433959.935996,11892
1659433959.975293,11919
1659433960.014591,11929
1659433960.053889,11959
1659433960.094382,11974
1659433960.134876,12006
1659433960.172807,12029
1659433960.210737,12052
1659433960.248668,12051
1659433960.287966,12017
1659433960.327263,11968
1659433960.366561,11926
1659433960.408592,11881
1659433960.450624,11847
1659433960.489238,11833
1659433960.527852,11834
1659433960.566466,11833
1659433960.607985,11825
1659433960.649503,11827
1659433960.688459,11834
1659433960.727415,11834
1659433960.766371,11852
1659433960.805327,11868
1659433960.844283,11889
1659433960.883239,11910
1659433960.92527,11941
1659433960.967302,11973
1659433961.006258,11994
1659433961.045213,12017
1659433961.084169,12041
1659433961.125688,12047
1659433961.167207,12012
1659433961.206846,11956
1659433961.246485,11898
1659433961.286125,11863
1659433961.327131,11842
1659433961.368137,11819
1659433961.412219,11815
1659433961.4563,11822
1659433961.500382,11816
1659433961.533187,11817
1659433961.565992,11818
1659433961.610416,11828
1659433961.654839,11837
1659433961.699262,11867
1659433961.738218,11883
1659433961.777174,11897
1659433961.81613,11918
1659433961.857649,11937
1659433961.899168,11967
1659433961.938465,11980
1659433961.977763,12000
1659433962.017061,12021
1659433962.055675,11995
1659433962.094289,11933
1659433962.132903,11875
1659433962.174934,11835
1659433962.216966,11790
1659433962.255922,11751
1659433962.294878,11736
1659433962.333833,11728
1659433962.372447,11721
1659433962.411062,11724
1659433962.449676,11718
1659433962.490682,11714
1659433962.531688,11738
1659433962.570302,11744
1659433962.608917,11774
1659433962.647531,11786
1659433962.689562,11802
1659433962.731594,11829
1659433962.775333,11848
1659433962.819073,11871
1659433962.862813,11896
1659433962.896131,11938
1659433962.929448,11938
1659433962.974214,11911
1659433963.018979,11855
1659433963.063744,11813
1659433963.097061,11786
1659433963.130379,11756
1659433963.174802,11756
1659433963.219226,11753
1659433963.263649,11759
1659433963.302605,11760
1659433963.341561,11764
1659433963.380517,11781
1659433963.42101,11779
1659433963.461504,11795
1659433963.500118,11822
1659433963.538732,11837
1659433963.577346,11872
1659433963.616302,11878
1659433963.655258,11905
1659433963.694214,11931
1659433963.735733,11952
1659433963.777252,11976
1659433963.816208,11997
1659433963.855163,12004
1659433963.894119,11979
1659433963.935638,11947
1659433963.977157,11902
1659433964.015429,11882
1659433964.053702,11867
1659433964.091974,11861
1659433964.131955,11864
1659433964.171936,11871
1659433964.211917,11871
1659433964.253436,11872
1659433964.294955,11886
1659433964.336474,11893
1659433964.377993,11919
1659433964.416948,11934
1659433964.455904,11954
1659433964.49486,11978
1659433964.537404,11997
1659433964.579948,12019
1659433964.621211,12041
1659433964.662473,12066
1659433964.703736,12086
1659433964.744998,12111
1659433964.786004,12131
1659433964.82701,12103
1659433964.866308,12061
1659433964.905606,12044
1659433964.944903,12013
1659433964.982834,12005
1659433965.020765,12002
1659433965.058696,12008
1659433965.101239,12009
1659433965.143783,12014
1659433965.182739,12014
1659433965.221695,12019
1659433965.260651,12022
1659433965.301657,12041
1659433965.342664,12056
1659433965.381619,12078
1659433965.420575,12089
1659433965.459531,12113
1659433965.498829,12132
1659433965.538126,12142
1659433965.577424,12161
1659433965.618943,12185
1659433965.660461,12199
1659433965.699076,12220
1659433965.73769,12228
1659433965.776304,12185
1659433965.817823,12159
1659433965.859342,12114
1659433965.903081,12085
1659433965.946821,12074
1659433965.990561,12056
1659433966.023879,12061
1659433966.057197,12051
1659433966.10162,12056
1659433966.146043,12043
1659433966.190467,12053
1659433966.229081,12059
1659433966.267695,12064
1659433966.306309,12080
1659433966.347828,12093
1659433966.389347,12106
1659433966.428644,12116
1659433966.467942,12131
1659433966.50724,12145
1659433966.549271,12163
1659433966.591302,12178
1659433966.629916,12194
1659433966.668531,12219
1659433966.707145,12219
1659433966.746101,12193
1659433966.785057,12147
1659433966.824013,12092
1659433966.865019,12056
1659433966.906025,12029
1659433966.944639,11999
1659433966.983253,11992
1659433967.021868,11972
1659433967.064411,11966
1659433967.106955,11947
1659433967.145911,11950
1659433967.184867,11935
1659433967.223823,11930
1659433967.264317,11946
1659433967.30481,11940
1659433967.343766,11955
1659433967.382722,11963
1659433967.421678,11978
1659433967.463709,11987
1659433967.505741,11993
1659433967.545722,12003
1659433967.585703,12015
1659433967.625684,12043
1659433967.665665,12048
1659433967.705646,12032
1659433967.747677,11965
1659433967.789709,11894
1659433967.829006,11843
1659433967.868304,11801
1659433967.907601,11765
1659433967.948095,11720
1659433967.988589,11715
1659433968.027544,11691
1659433968.0665,11681
1659433968.105456,11652
1659433968.148,11635
1659433968.190544,11648
1659433968.228475,11643
1659433968.266406,11641
1659433968.304336,11649
1659433968.345343,11662
1659433968.386349,11670
1659433968.425988,11688
1659433968.465627,11693
1659433968.505267,11713
1659433968.549348,11719
1659433968.59343,11736
1659433968.637512,11750
1659433968.671342,11714
1659433968.705172,11644
1659433968.749937,11575
1659433968.794702,11523
1659433968.839467,11480
1659433968.880474,11445
1659433968.92148,11440
1659433968.95941,11435
1659433968.997341,11416
1659433969.035272,11412
1659433969.074228,11389
1659433969.113184,11393
1659433969.15214,11397
1659433969.193658,11407
1659433969.235177,11419
1659433969.273791,11430
1659433969.312406,11452
1659433969.35102,11462
1659433969.389634,11495
1659433969.428248,11499
1659433969.466862,11521
1659433969.508381,11545
1659433969.5499,11568
1659433969.589197,11568
1659433969.628495,11522
1659433969.667793,11443
1659433969.709824,11371
1659433969.751855,11330
1659433969.790469,11288
1659433969.829084,11260
1659433969.867698,11259
1659433969.909729,11259
1659433969.951761,11263
1659433969.9914,11250
1659433970.031039,11247
1659433970.070678,11255
1659433970.112197,11275
1659433970.153716,11294
1659433970.191988,11309
1659433970.230261,11342
1659433970.268533,11362
1659433970.313298,11390
1659433970.358064,11403
1659433970.402829,11422
1659433970.443835,11458
1659433970.484841,11481
1659433970.524481,11492
1659433970.56412,11483
1659433970.603759,11425
1659433970.644765,11354
1659433970.685771,11312
1659433970.724727,11275
1659433970.763683,11245
1659433970.802639,11244
1659433970.841254,11242
1659433970.879868,11245
1659433970.918482,11256
1659433970.961026,11254
1659433971.00357,11264
1659433971.042526,11279
1659433971.081481,11300
1659433971.120437,11317
1659433971.161956,11345
1659433971.203475,11380
1659433971.242089,11412
1659433971.280703,11446
1659433971.319317,11461
1659433971.358273,11492
1659433971.397229,11523
1659433971.436185,11542
1659433971.477704,11570
1659433971.519223,11558
1659433971.557837,11503
1659433971.596451,11452
1659433971.635065,11433
1659433971.676071,11412
1659433971.717077,11403
1659433971.761843,11407
1659433971.806608,11416
1659433971.851373,11428
1659433971.884691,11427
1659433971.918008,11454
1659433971.962773,11456
1659433972.007538,11487
1659433972.052303,11505
1659433972.090917,11519
1659433972.129532,11553
1659433972.168146,11577
1659433972.207102,11609
1659433972.246058,11633
1659433972.285013,11651
1659433972.32602,11687
1659433972.367026,11716
1659433972.405982,11736
1659433972.444938,11742
1659433972.483894,11717
1659433972.525412,11664
1659433972.566931,11642
1659433972.606229,11627
1659433972.645526,11610
1659433972.684824,11618
1659433972.723096,11625
1659433972.761369,11638
1659433972.799641,11641
1659433972.840647,11645
1659433972.881654,11658
1659433972.921635,11678
1659433972.961616,11702
1659433973.001597,11719
1659433973.043116,11749
1659433973.084634,11772
1659433973.126153,11782
1659433973.167672,11810
1659433973.209191,11831
1659433973.25071,11856
1659433973.292228,11883
1659433973.333747,11905
1659433973.372703,11910
1659433973.411659,11882
1659433973.450615,11835
1659433973.492646,11792
1659433973.534678,11773
1659433973.573633,11748
1659433973.612589,11745
1659433973.651545,11742
1659433973.690159,11742
1659433973.728774,11750
1659433973.767388,11751
1659433973.807881,11752
1659433973.848375,11763
1659433973.887672,11781
1659433973.92697,11803
1659433973.966268,11821
1659433974.008299,11843
1659433974.05033,11865
1659433974.088945,11887
1659433974.127559,11916
1659433974.166173,11926
1659433974.21128,11943
1659433974.256387,11972
1659433974.301493,11988
1659433974.334298,11981
1659433974.367103,11945
1659433974.411185,11888
1659433974.455267,11854
1659433974.499348,11816
1659433974.533691,11798
1659433974.568034,11787
1659433974.612115,11788
1659433974.656197,11778
1659433974.700279,11772
1659433974.738209,11777
1659433974.77614,11774
1659433974.814071,11788
1659433974.85559,11797
1659433974.897109,11801
1659433974.935381,11820
1659433974.973654,11836
1659433975.011926,11855
1659433975.050882,11877
1659433975.089838,11892
1659433975.128793,11903
1659433975.170825,11938
1659433975.212856,11952
1659433975.251812,11968
1659433975.290768,11968
1659433975.329724,11916
1659433975.37073,11860
1659433975.411736,11810
1659433975.451034,11785
1659433975.490332,11748
1659433975.529629,11735
1659433975.571661,11738
1659433975.613692,11735
1659433975.651964,11736
1659433975.690237,11734
1659433975.728509,11731
1659433975.769516,11745
1659433975.810522,11752
1659433975.849819,11764
1659433975.889117,11785
1659433975.928415,11801
1659433975.972496,11810
1659433976.016578,11835
1659433976.06066,11850
1659433976.093465,11874
1659433976.126269,11882
1659433976.171376,11912
1659433976.216483,11931
1659433976.26159,11925
1659433976.303109,11882
1659433976.344627,11822
1659433976.383925,11789
1659433976.423223,11748
1659433976.46252,11726
1659433976.501818,11713
1659433976.541116,11707
1659433976.580413,11705
1659433976.619027,11697
1659433976.657641,11695
1659433976.696256,11684
1659433976.735212,11690
1659433976.774168,11702
1659433976.813123,11723
1659433976.854642,11734
1659433976.896161,11751
1659433976.934775,11773
1659433976.973389,11782
1659433977.012003,11815
1659433977.054035,11831
1659433977.096066,11849
1659433977.14049,11874
1659433977.184913,11874
1659433977.229336,11829
1659433977.267609,11770
1659433977.305881,11714
1659433977.344154,11678
1659433977.385672,11640
1659433977.427191,11634
1659433977.466147,11616
1659433977.505103,11610
1659433977.544059,11602
1659433977.583357,11598
1659433977.622654,11595
1659433977.661952,11601
1659433977.702958,11606
1659433977.743964,11625
1659433977.783262,11642
1659433977.822559,11659
1659433977.861857,11673
1659433977.900129,11698
1659433977.938402,11729
1659433977.976674,11730
1659433978.018193,11750
1659433978.059712,11770
1659433978.098668,11783
1659433978.137624,11749
1659433978.176579,11688
1659433978.217586,11622
1659433978.258592,11583
1659433978.296523,11545
1659433978.334453,11536
1659433978.372384,11517
1659433978.414928,11516
1659433978.457472,11527
1659433978.502237,11523
1659433978.547002,11534
1659433978.591767,11537
1659433978.62406,11547
1659433978.656352,11565
1659433978.701117,11603
1659433978.745882,11616
1659433978.790648,11630
1659433978.829945,11656
1659433978.869243,11681
1659433978.90854,11695
1659433978.945702,11714
1659433978.982864,11750
1659433979.020026,11759
1659433979.057188,11749
1659433979.098194,11681
1659433979.1392,11618
1659433979.181231,11591
1659433979.223263,11543
1659433979.262219,11516
1659433979.301175,11509
1659433979.340131,11513
1659433979.384554,11521
1659433979.428977,11520
1659433979.473401,11524
1659433979.506718,11527
1659433979.540036,11555
1659433979.584117,11566
1659433979.628199,11591
1659433979.672281,11608
1659433979.712262,11629
1659433979.752243,11660
1659433979.792224,11682
1659433979.833743,11703
1659433979.875262,11723
1659433979.913876,11757
1659433979.95249,11737
1659433979.991104,11692
1659433980.03006,11630
1659433980.069016,11596
1659433980.107972,11571
1659433980.146586,11554
1659433980.1852,11556
1659433980.223814,11565
1659433980.265846,11566
1659433980.307877,11576
1659433980.346833,11594
1659433980.385789,11603
1659433980.424745,11624
1659433980.465751,11647
1659433980.506757,11676
1659433980.545029,11697
1659433980.583302,11730
1659433980.621574,11755
1659433980.663606,11781
1659433980.705637,11800
1659433980.750061,11824
1659433980.794484,11849
1659433980.838907,11847
1659433980.871712,11785
1659433980.904517,11723
1659433980.948941,11686
1659433980.993364,11644
1659433981.037787,11622
1659433981.076743,11621
1659433981.115699,11632
1659433981.154655,11629
1659433981.196174,11633
1659433981.237693,11645
1659433981.276307,11647
1659433981.314921,11669
1659433981.353535,11681
1659433981.395054,11712
1659433981.436573,11737
1659433981.474845,11759
1659433981.513118,11781
1659433981.55139,11796
1659433981.590004,11824
1659433981.628618,11843
1659433981.667233,11875
1659433981.709264,11881
1659433981.751295,11834
1659433981.790593,11785
1659433981.82989,11741
1659433981.869188,11723
1659433981.907802,11679
1659433981.946416,11662
1659433981.985031,11671
1659433982.027062,11682
1659433982.069093,11685
1659433982.108391,11686
1659433982.147689,11698
1659433982.186986,11706
1659433982.228505,11735
1659433982.270024,11751
1659433982.31103,11770
1659433982.352036,11799
1659433982.390992,11824
1659433982.429948,11852
1659433982.468904,11869
1659433982.512644,11898
1659433982.556384,11914
1659433982.600124,11937
1659433982.634466,11904
1659433982.668809,11854
1659433982.713233,11808
1659433982.757656,11786
1659433982.802079,11767
1659433982.834884,11755
1659433982.867689,11765
1659433982.912454,11780
1659433982.957219,11783
1659433983.001984,11788
1659433983.041965,11796
1659433983.081947,11820
1659433983.121927,11828
1659433983.162934,11850
1659433983.20394,11873
1659433983.242896,11906
1659433983.281852,11937
1659433983.320808,11966
1659433983.360105,11990
1659433983.399403,12018
1659433983.4387,12045
1659433983.479707,12064
1659433983.520713,12053
1659433983.561719,12017
1659433983.602725,11963
1659433983.644757,11946
1659433983.686788,11935
1659433983.72506,11937
1659433983.763333,11950
1659433983.801605,11970
1659433983.843124,11980
1659433983.884643,11984
1659433983.923599,11996
1659433983.962555,12010
1659433984.001511,12033
1659433984.040125,12044
1659433984.078739,12069
1659433984.117353,12106
1659433984.158359,12133
1659433984.199366,12154
1659433984.239005,12180
1659433984.278644,12208
1659433984.318284,12227
1659433984.359802,12242
1659433984.401321,12214
1659433984.439935,12166
1659433984.478549,12130
1659433984.517164,12106
1659433984.558682,12089
1659433984.600201,12098
1659433984.63984,12109
1659433984.67948,12111
1659433984.719119,12113
1659433984.759613,12109
1659433984.800106,12109
1659433984.839062,12140
1659433984.878018,12146
1659433984.916974,12158
1659433984.961056,12188
1659433985.005137,12211
1659433985.049219,12233
1659433985.082537,12237
1659433985.115854,12254
1659433985.160278,12263
1659433985.204701,12262
1659433985.249124,12209
1659433985.291156,12174
1659433985.333187,12162
1659433985.371801,12136
1659433985.410415,12128
1659433985.449029,12139
1659433985.488327,12144
1659433985.527625,12138
1659433985.566922,12151
1659433985.609466,12150
1659433985.65201,12159
1659433985.690624,12169
1659433985.729239,12179
1659433985.767853,12204
1659433985.806467,12213
1659433985.845081,12235
1659433985.883695,12264
1659433985.92846,12268
1659433985.973226,12285
1659433986.017991,12273
1659433986.050283,12230
1659433986.082575,12184
1659433986.127341,12158
1659433986.172106,12136
1659433986.216871,12129
1659433986.250701,12126
1659433986.284531,12121
1659433986.328954,12117
1659433986.373378,12129
1659433986.417801,12123
1659433986.456415,12126
1659433986.495029,12155
1659433986.533643,12163
1659433986.575162,12175
1659433986.616681,12203
1659433986.655295,12222
1659433986.693909,12236
1659433986.732524,12244
1659433986.774555,12257
1659433986.816586,12241
1659433986.854859,12197
1659433986.893131,12153
1659433986.931404,12116
1659433986.97036,12098
1659433987.009315,12084
1659433987.048271,12091
1659433987.088765,12093
1659433987.129259,12095
1659433987.168898,12090
1659433987.208537,12101
1659433987.248177,12115
1659433987.286449,12110
1659433987.324722,12138
1659433987.362994,12152
1659433987.404,12184
1659433987.445006,12184
1659433987.486525,12216
1659433987.528044,12246
1659433987.567683,12243
1659433987.607323,12198
1659433987.646962,12136
1659433987.691044,12094
1659433987.735125,12055
1659433987.779207,12043
1659433987.812525,12024
1659433987.845842,12038
1659433987.890265,12042
1659433987.934689,12053
1659433987.979112,12049
1659433988.018453,12044
1659433988.057793,12063
1659433988.097133,12074
1659433988.136473,12075
1659433988.175814,12100
1659433988.215154,12110
1659433988.254494,12142
1659433988.293835,12148
1659433988.333611,12120
1659433988.373387,12074
1659433988.413163,12023
1659433988.452939,11992
1659433988.492715,11976
1659433988.531671,11969
1659433988.570627,11968
1659433988.609583,11985
1659433988.649974,11975
1659433988.690365,11970
1659433988.730756,11985
1659433988.771147,11984
1659433988.811538,12008
1659433988.856645,12030
1659433988.901752,12047
1659433988.946859,12062
1659433988.984789,12077
1659433989.02272,12100
1659433989.060651,12113
1659433989.10217,12105
1659433989.143688,12060
1659433989.182986,12011
1659433989.222284,11982
1659433989.261581,11941
1659433989.3031,11927
1659433989.344619,11913
1659433989.383233,11916
1659433989.421847,11905
1659433989.460461,11918
1659433989.499417,11926
1659433989.538373,11923
1659433989.577329,11930
1659433989.618335,11937
1659433989.659341,11971
1659433989.698639,11964
1659433989.737936,11972
1659433989.777234,11991
1659433989.819266,12011
1659433989.861297,12025
1659433989.899911,12025
1659433989.938525,11991
1659433989.977139,11938
1659433990.015754,11920
1659433990.054368,11885
1659433990.092982,11861
1659433990.135526,11862
1659433990.17807,11857
1659433990.216342,11864
1659433990.254615,11867
1659433990.292887,11862
1659433990.333893,11860
1659433990.3749,11876
1659433990.418981,11898
1659433990.463063,11917
1659433990.507145,11946
1659433990.540975,11955
1659433990.574805,11991
1659433990.618545,12007
1659433990.662285,12022
1659433990.706025,12045
1659433990.73883,12036
1659433990.771635,12000
1659433990.816058,11948
1659433990.860481,11918
1659433990.904905,11887
1659433990.943519,11869
1659433990.982133,11860
1659433991.020747,11857
1659433991.063291,11863
1659433991.105835,11857
1659433991.144791,11859
1659433991.183747,11871
1659433991.222703,11882
1659433991.261317,11903
1659433991.299931,11909
1659433991.338545,11923
1659433991.380064,11937
1659433991.421583,11956
1659433991.460539,11974
1659433991.499495,11989
1659433991.53845,12002
1659433991.580482,12000
1659433991.622513,11969
1659433991.661128,11915
1659433991.699742,11872
1659433991.738356,11847
1659433991.777995,11835
1659433991.817634,11816
1659433991.857274,11816
1659433991.89828,11821
1659433991.939286,11809
1659433991.981318,11796
1659433992.023349,11796
1659433992.062988,11796
1659433992.102628,11791
1659433992.142267,11799
1659433992.183273,11802
1659433992.224279,11813
1659433992.26221,11842
1659433992.300141,11842
1659433992.338072,11860
1659433992.382495,11872
1659433992.426918,11877
1659433992.471342,11872
1659433992.505172,11842
1659433992.539002,11804
1659433992.583084,11776
1659433992.627165,11763
1659433992.671247,11752
1659433992.710203,11742
1659433992.749159,11744
1659433992.788115,11738
1659433992.829633,11743
1659433992.871152,11741
1659433992.909425,11742
1659433992.947697,11748
1659433992.98597,11770
1659433993.029026,11772
1659433993.072083,11775
1659433993.110697,11802
1659433993.149311,11817
1659433993.187925,11842
1659433993.226539,11850
1659433993.265153,11863
1659433993.303768,11879
1659433993.345286,11855
1659433993.386805,11824
1659433993.425761,11802
1659433993.464717,11783
1659433993.503673,11760
1659433993.544166,11770
1659433993.58466,11773
1659433993.623616,11764
1659433993.662572,11779
1659433993.701528,11769
1659433993.742534,11781
1659433993.78354,11781
1659433993.822496,11801
1659433993.861452,11819
1659433993.900408,11846
1659433993.944831,11840
1659433993.989254,11854
1659433994.033678,11880
1659433994.072292,11892
1659433994.110906,11904
1659433994.14952,11904
1659433994.190527,11874
1659433994.231533,11838
1659433994.271172,11823
1659433994.310812,11803
1659433994.350451,11786
1659433994.389407,11800
1659433994.428363,11790
1659433994.467319,11808
1659433994.50935,11798
1659433994.551381,11796
1659433994.590337,11797
1659433994.629293,11812
1659433994.668249,11823
1659433994.709768,11832
1659433994.751287,11853
1659433994.789559,11864
1659433994.827832,11881
1659433994.866104,11885
1659433994.908648,11896
1659433994.951192,11915
1659433994.990148,11888
1659433995.029104,11852
1659433995.068059,11808
1659433995.110091,11778
1659433995.152122,11747
1659433995.190736,11739
1659433995.229351,11730
1659433995.267965,11718
1659433995.313071,11725
1659433995.358178,11710
1659433995.403285,11707
1659433995.436603,11709
1659433995.46992,11716
1659433995.514344,11724
1659433995.558767,11729
1659433995.60319,11738
1659433995.644709,11741
1659433995.686228,11767
1659433995.7245,11776
1659433995.762773,11775
1659433995.801045,11780
1659433995.839659,11760
1659433995.878274,11717
1659433995.916888,11665
1659433995.959432,11628
1659433996.001976,11611
1659433996.040248,11591
1659433996.078521,11579
1659433996.116793,11581
1659433996.158312,11582
1659433996.199831,11573
1659433996.238445,11568
1659433996.277059,11570
1659433996.315673,11576
1659433996.355312,11581
1659433996.394952,11598
1659433996.434591,11609
1659433996.475597,11613
1659433996.516603,11634
1659433996.555218,11645
1659433996.593832,11660
1659433996.632446,11666
1659433996.673965,11641
1659433996.715484,11602
1659433996.75444,11549
1659433996.793395,11525
1659433996.832351,11493
1659433996.873358,11482
1659433996.914364,11487
1659433996.953661,11480
1659433996.992959,11484
1659433997.032257,11490
1659433997.075996,11496
1659433997.119736,11485
1659433997.163476,11493
1659433997.204483,11510
1659433997.245489,11525
1659433997.285128,11534
1659433997.324767,11536
1659433997.364407,11562
1659433997.405926,11576
1659433997.447444,11598
1659433997.486058,11555
1659433997.524673,11500
1659433997.563287,11477
1659433997.605831,11446
1659433997.648375,11436
1659433997.68733,11438
1659433997.726286,11433
1659433997.765242,11434
1659433997.804198,11442
1659433997.843154,11454
1659433997.88211,11451
1659433997.924141,11464
1659433997.966173,11482
1659433998.004787,11498
1659433998.043401,11513
1659433998.082015,11534
1659433998.12063,11549
1659433998.159244,11576
1659433998.197858,11594
1659433998.239889,11609
1659433998.28192,11609
1659433998.320193,11558
1659433998.358465,11521
1659433998.396738,11486
1659433998.438769,11455
1659433998.480801,11452
1659433998.525566,11447
1659433998.570331,11451
1659433998.615096,11451
1659433998.648413,11453
1659433998.681731,11465
1659433998.725813,11476
1659433998.769894,11489
1659433998.813976,11502
1659433998.847806,11521
1659433998.881636,11538
1659433998.925718,11555
1659433998.9698,11584
1659433999.013881,11585
1659433999.052154,11609
1659433999.090426,11634
1659433999.128699,11615
1659433999.171242,11569
1659433999.213786,11534
1659433999.252059,11512
1659433999.290331,11493
1659433999.328604,11489
1659433999.366876,11488
1659433999.405149,11494
1659433999.443421,11508
1659433999.485453,11505
1659433999.527484,11519
1659433999.56644,11521
1659433999.605396,11536
1659433999.644351,11554
1659433999.686383,11586
1659433999.728414,11600
1659433999.767029,11622
1659433999.805643,11645
1659433999.844257,11669
1659433999.882871,11678
1659433999.921485,11695
1659433999.960099,11694
1659434000.001618,11663
1659434000.043137,11625
1659434000.085168,11593
1659434000.1272,11577
1659434000.165814,11571
1659434000.204428,11562
1659434000.243042,11560
1659434000.287124,11562
1659434000.331205,11569
1659434000.375287,11563
1659434000.408092,11585
1659434000.440897,11596
1659434000.485662,11611
1659434000.530427,11638
1659434000.575192,11652
1659434000.609022,11671
1659434000.642853,11698
1659434000.687276,11715
1659434000.731699,11740
1659434000.776123,11756
1659434000.81542,11763
1659434000.854718,11739
1659434000.894016,11704
1659434000.936047,11680
1659434000.978078,11656
1659434001.017034,11638
1659434001.05599,11638
1659434001.094946,11654
1659434001.136977,11659
1659434001.179009,11661
1659434001.217623,11673
1659434001.256237,11678
1659434001.294851,11697
1659434001.333465,11697
1659434001.37208,11717
1659434001.410694,11741
1659434001.452725,11747
1659434001.494756,11769
1659434001.533712,11783
1659434001.572668,11811
1659434001.611624,11825
1659434001.652118,11829
1659434001.692611,11834
1659434001.731909,11795
1659434001.771207,11759
1659434001.810504,11738
1659434001.852535,11715
1659434001.894567,11701
1659434001.932839,11717
1659434001.971112,11718
1659434002.009384,11720
1659434002.050903,11723
1659434002.092422,11717
1659434002.132061,11723
1659434002.1717,11742
1659434002.21134,11752
1659434002.25508,11753
1659434002.29882,11780
1659434002.34256,11798
1659434002.384591,11810
1659434002.426622,11818
1659434002.465578,11833
1659434002.504534,11861
1659434002.54349,11857
1659434002.581763,11836
1659434002.620035,11787
1659434002.658308,11756
1659434002.698801,11736
1659434002.739295,11719
1659434002.778934,11715
1659434002.818573,11711
1659434002.858213,11720
1659434002.899731,11702
1659434002.94125,11705
1659434002.980206,11710
1659434003.019162,11714
1659434003.058118,11725
1659434003.097074,11733
1659434003.13603,11763
1659434003.174986,11767
1659434003.216504,11791
1659434003.258023,11796
1659434003.296637,11813
1659434003.335252,11827
1659434003.373866,11817
1659434003.41641,11784
1659434003.458954,11741
1659434003.497226,11703
1659434003.535498,11679
1659434003.573771,11675
1659434003.61529,11668
1659434003.656808,11663
1659434003.701574,11671
1659434003.746339,11655
1659434003.791104,11658
1659434003.824421,11658
1659434003.857739,11670
1659434003.901479,11669
1659434003.945219,11693
1659434003.988959,11705
1659434004.028256,11717
1659434004.067554,11746
1659434004.106852,11750
1659434004.14837,11765
1659434004.189889,11777
1659434004.228845,11753
1659434004.267801,11714
1659434004.306757,11664
1659434004.348788,11632
1659434004.39082,11615
1659434004.430117,11603
1659434004.469415,11597
1659434004.508712,11602
1659434004.546985,11603
1659434004.585257,11589
1659434004.62353,11599
1659434004.665048,11605
1659434004.706567,11613
1659434004.745865,11617
1659434004.785162,11634
1659434004.82446,11650
1659434004.865466,11654
1659434004.906472,11675
1659434004.945087,11684
1659434004.983701,11676
1659434005.022315,11643
1659434005.061613,11591
1659434005.10091,11561
1659434005.140208,11526
1659434005.181727,11504
1659434005.223245,11500
1659434005.264764,11498
1659434005.306283,11506
1659434005.345239,11508
1659434005.384195,11508
1659434005.423151,11516
1659434005.467916,11532
1659434005.512681,11538
1659434005.557446,11555
1659434005.590764,11576
1659434005.624081,11594
1659434005.668163,11605
1659434005.712244,11619
1659434005.756326,11646
1659434005.789131,11656
1659434005.821936,11658
1659434005.865676,11607
1659434005.909416,11553
1659434005.953156,11517
1659434005.99177,11482
1659434006.030384,11455
1659434006.068998,11448
1659434006.111542,11450
1659434006.154086,11451
1659434006.1927,11460
1659434006.231314,11457
1659434006.269929,11456
1659434006.31196,11456
1659434006.353992,11482
1659434006.393289,11503
1659434006.432587,11520
1659434006.471884,11535
1659434006.510499,11555
1659434006.549113,11575
1659434006.587727,11589
1659434006.630271,11607
1659434006.672815,11611
1659434006.711771,11568
1659434006.750726,11499
1659434006.789682,11463
1659434006.830176,11423
1659434006.87067,11411
1659434006.909626,11392
1659434006.948581,11392
1659434006.987537,11396
1659434007.030081,11395
1659434007.072625,11404
1659434007.110898,11403
1659434007.14917,11417
1659434007.187443,11429
1659434007.228449,11454
1659434007.269455,11476
1659434007.309094,11490
1659434007.348734,11513
1659434007.388373,11528
1659434007.432455,11544
1659434007.476536,11572
1659434007.520618,11583
1659434007.562649,11578
1659434007.604681,11528
1659434007.64432,11484
1659434007.683959,11437
1659434007.723598,11416
1659434007.764605,11384
1659434007.805611,11373
1659434007.843884,11382
1659434007.882156,11394
1659434007.920428,11396
1659434007.959726,11404
1659434007.999024,11418
1659434008.038321,11429
1659434008.07984,11460
1659434008.121359,11476
1659434008.159973,11497
1659434008.198587,11527
1659434008.237201,11543
1659434008.275815,11571
1659434008.31443,11590
1659434008.353044,11616
1659434008.39405,11636
1659434008.435056,11658
1659434008.474012,11654
1659434008.512968,11625
1659434008.551924,11582
1659434008.593955,11542
1659434008.635987,11523
1659434008.674601,11511
1659434008.713215,11510
1659434008.751829,11515
1659434008.793348,11525
1659434008.834867,11539
1659434008.874506,11538
1659434008.914145,11555
1659434008.953785,11567
1659434008.997866,11588
1659434009.041948,11613
1659434009.08603,11635
1659434009.126523,11659
1659434009.167017,11691
1659434009.205973,11708
1659434009.244929,11736
1659434009.283885,11759
1659434009.322157,11778
1659434009.36043,11798
1659434009.398702,11785
1659434009.440733,11750
1659434009.482765,11721
1659434009.522062,11710
1659434009.56136,11702
1659434009.600657,11705
1659434009.639613,11701
1659434009.678569,11715
1659434009.717525,11717
1659434009.757301,11724
1659434009.797077,11726
1659434009.836853,11716
1659434009.876629,11748
1659434009.916405,11762
1659434009.958436,11777
1659434010.000468,11787
1659434010.039424,11803
1659434010.07838,11826
1659434010.117336,11846
1659434010.158342,11867
1659434010.199348,11890
1659434010.238646,11910
1659434010.277943,11894
1659434010.317241,11884
1659434010.35876,11831
1659434010.400278,11801
1659434010.444702,11783
1659434010.489125,11770
1659434010.533549,11767
1659434010.572163,11769
1659434010.610777,11767
1659434010.649391,11759
1659434010.688347,11767
1659434010.727303,11773
1659434010.766259,11774
1659434010.807778,11793
1659434010.849296,11801
1659434010.888594,11824
1659434010.927891,11830
1659434010.967189,11844
1659434011.008708,11869
1659434011.050227,11884
1659434011.089183,11908
1659434011.128139,11920
1659434011.167094,11903
1659434011.20605,11866
1659434011.245006,11829
1659434011.283962,11788
1659434011.324968,11767
1659434011.365974,11760
1659434011.404589,11747
1659434011.443203,11753
1659434011.481817,11742
1659434011.523848,11748
1659434011.56588,11743
1659434011.603811,11749
1659434011.641741,11768
1659434011.679672,11771
1659434011.720678,11788
1659434011.761684,11803
1659434011.801324,11810
1659434011.840963,11823
1659434011.880602,11827
1659434011.922121,11847
1659434011.96364,11859
1659434012.007722,11869
1659434012.051803,11835
1659434012.095885,11787
1659434012.135183,11746
1659434012.17448,11707
1659434012.213778,11695
1659434012.254784,11665
1659434012.29579,11660
1659434012.334404,11670
1659434012.373019,11655
1659434012.411633,11650
1659434012.453151,11657
1659434012.49467,11672
1659434012.533968,11675
1659434012.573265,11699
1659434012.612563,11699
1659434012.650494,11716
1659434012.688425,11735
1659434012.726355,11748
1659434012.769412,11757
1659434012.812468,11763
1659434012.851424,11777
1659434012.89038,11761
1659434012.929336,11717
1659434012.970855,11674
1659434013.012373,11643
1659434013.051671,11624
1659434013.090969,11605
1659434013.130266,11612
1659434013.169222,11614
1659434013.208178,11618
1659434013.247134,11622
1659434013.288653,11629
1659434013.330172,11643
1659434013.369128,11647
1659434013.408083,11675
1659434013.447039,11692
1659434013.488558,11729
1659434013.530077,11739
1659434013.573817,11754
1659434013.617557,11777
1659434013.661297,11793
1659434013.695127,11816
1659434013.728957,11802
1659434013.773722,11777
1659434013.818487,11746
1659434013.863252,11737
1659434013.901183,11716
1659434013.939114,11716
1659434013.977044,11738
1659434014.019076,11759
1659434014.061107,11766
1659434014.100405,11776
1659434014.139702,11794
1659434014.179,11808
1659434014.221031,11827
1659434014.263063,11852
1659434014.301677,11862
1659434014.340291,11886
1659434014.378905,11890
1659434014.420937,11897
1659434014.462968,11917
1659434014.50124,11922
1659434014.539513,11918
1659434014.577785,11898
1659434014.6164,11868
1659434014.655014,11848
1659434014.693628,11847
1659434014.735659,11850
1659434014.77769,11861
1659434014.816305,11859
1659434014.854919,11862
1659434014.893533,11871
1659434014.934027,11871
1659434014.97452,11880
1659434015.016552,11886
1659434015.058583,11893
1659434015.100614,11908
1659434015.142646,11935
1659434015.183652,11948
1659434015.224658,11959
1659434015.263956,11974
1659434015.303253,11965
1659434015.342551,11946
1659434015.384582,11911
1659434015.426614,11904
1659434015.465569,11900
1659434015.504525,11908
1659434015.543481,11899
1659434015.581754,11905
1659434015.620026,11905
1659434015.658299,11898
1659434015.70033,11890
1659434015.742361,11891
1659434015.781317,11899
1659434015.820273,11913
1659434015.859229,11920
1659434015.897843,11932
1659434015.936457,11944
1659434015.975072,11950
1659434016.016078,11931
1659434016.057084,11888
1659434016.096723,11851
1659434016.136363,11826
1659434016.176002,11810
1659434016.217521,11798
1659434016.25904,11772
1659434016.298337,11764
1659434016.337635,11769
1659434016.376932,11760
1659434016.418964,11772
1659434016.460995,11783
1659434016.505419,11795
1659434016.549842,11818
1659434016.594265,11817
1659434016.627583,11831
1659434016.6609,11830
1659434016.706007,11835
1659434016.751114,11813
1659434016.796221,11775
1659434016.828513,11761
1659434016.860806,11747
1659434016.904887,11747
1659434016.948969,11750
1659434016.993051,11760
1659434017.032348,11755
1659434017.071646,11753
1659434017.110943,11762
1659434017.152462,11770
1659434017.193981,11779
1659434017.231912,11780
1659434017.269842,11795
1659434017.307773,11817
1659434017.347071,11821
1659434017.386369,11827
1659434017.425666,11798
1659434017.466672,11784
1659434017.507679,11768
1659434017.546634,11747
1659434017.58559,11744
1659434017.624546,11756
1659434017.666578,11760
1659434017.708609,11758
1659434017.747223,11765
1659434017.785837,11774
1659434017.824451,11778
1659434017.864945,11784
1659434017.905439,11794
1659434017.944395,11808
1659434017.98335,11816
1659434018.022306,11831
1659434018.064338,11847
1659434018.106369,11855
1659434018.144641,11832
1659434018.182914,11809
1659434018.221186,11802
1659434018.265951,11784
1659434018.310717,11779
1659434018.355482,11774
1659434018.388287,11780
1659434018.421092,11788
1659434018.465173,11786
1659434018.509255,11791
1659434018.553337,11801
1659434018.587679,11805
1659434018.622022,11821
1659434018.666787,11831
1659434018.711552,11835
1659434018.756317,11850
1659434018.795273,11866
1659434018.834229,11877
1659434018.873185,11871
1659434018.914191,11842
1659434018.955197,11823
1659434018.994495,11807
1659434019.033792,11805
1659434019.07309,11799
1659434019.113584,11802
1659434019.154078,11809
1659434019.193033,11803
1659434019.231989,11802
1659434019.270945,11815
1659434019.309559,11811
1659434019.348173,11813
1659434019.386788,11820
1659434019.429332,11831
1659434019.471875,11834
1659434019.510831,11853
1659434019.549787,11862
1659434019.588743,11862
1659434019.630774,11860
1659434019.672806,11833
1659434019.711762,11795
1659434019.750718,11758
1659434019.789674,11733
1659434019.831705,11699
1659434019.873736,11694
1659434019.913034,11691
1659434019.952332,11692
1659434019.991629,11675
1659434020.033148,11668
1659434020.074667,11666
1659434020.118407,11667
1659434020.162147,11676
1659434020.205887,11678
1659434020.244843,11689
1659434020.283798,11696
1659434020.322754,11710
1659434020.361027,11725
1659434020.399299,11730
1659434020.437572,11721
1659434020.479603,11696
1659434020.521634,11658
1659434020.559907,11613
1659434020.598179,11578
1659434020.636452,11559
1659434020.675749,11549
1659434020.715047,11549
1659434020.754344,11536
1659434020.795351,11536
1659434020.836357,11530
1659434020.875654,11530
1659434020.914952,11531
1659434020.95425,11541
1659434020.996281,11552
1659434021.038312,11558
1659434021.076585,11566
1659434021.114857,11581
1659434021.15313,11587
1659434021.194136,11613
1659434021.235142,11615
1659434021.27444,11612
1659434021.313737,11579
1659434021.353035,11526
1659434021.396775,11482
1659434021.440515,11461
1659434021.484255,11447
1659434021.518085,11457
1659434021.551915,11457
1659434021.595997,11447
1659434021.640079,11450
1659434021.68416,11448
1659434021.722433,11458
1659434021.760705,11469
1659434021.798977,11479
1659434021.840496,11499
1659434021.882015,11510
1659434021.921996,11520
1659434021.961977,11533
1659434022.001958,11559
1659434022.042964,11576
1659434022.083971,11595
1659434022.123268,11605
1659434022.162566,11582
1659434022.201864,11546
1659434022.240478,11497
1659434022.279092,11475
1659434022.317706,11465
1659434022.359737,11466
1659434022.401769,11473
1659434022.440725,11472
1659434022.479681,11480
1659434022.518636,11485
1659434022.560155,11489
1659434022.601674,11489
1659434022.639946,11501
1659434022.678219,11517
1659434022.716491,11527
1659434022.759035,11545
1659434022.801579,11557
1659434022.840877,11572
1659434022.880174,11580
1659434022.919472,11607
1659434022.960991,11610
1659434023.00251,11604
1659434023.046591,11580
1659434023.090673,11532
1659434023.134754,11505
1659434023.174052,11483
1659434023.21335,11486
1659434023.252647,11494
1659434023.294166,11531
1659434023.335685,11548
1659434023.374299,11546
1659434023.412913,11556
1659434023.451527,11561
1659434023.492534,11571
1659434023.53354,11576
1659434023.571812,11581
1659434023.610085,11598
1659434023.648357,11602
1659434023.68663,11616
1659434023.724902,11625
1659434023.763175,11642
1659434023.805718,11651
1659434023.848263,11660
1659434023.886535,11666
1659434023.924807,11635
1659434023.96308,11601
1659434024.002036,11566
1659434024.040992,11537
1659434024.079947,11528
1659434024.121466,11528
1659434024.162985,11534
1659434024.201941,11543
1659434024.240897,11540
1659434024.279853,11534
1659434024.321372,11546
1659434024.36289,11551
1659434024.401846,11570
1659434024.440802,11590
1659434024.479758,11593
1659434024.520764,11617
1659434024.56177,11635
1659434024.605852,11649
1659434024.649934,11662
1659434024.694015,11676
1659434024.727333,11706
1659434024.76065,11702
1659434024.805074,11677
1659434024.849497,11626
1659434024.893921,11586
1659434024.932193,11579
1659434024.970465,11560
1659434025.008738,11557
1659434025.050769,11560
1659434025.092801,11571
1659434025.131757,11570
1659434025.170712,11577
1659434025.209668,11570
1659434025.252212,11581
1659434025.294756,11595
1659434025.333712,11609
1659434025.372668,11618
1659434025.411624,11629
1659434025.451263,11643
1659434025.490903,11653
1659434025.530542,11661
1659434025.571036,11677
1659434025.611529,11680
1659434025.650827,11654
1659434025.690124,11601
1659434025.729422,11575
1659434025.770941,11533
1659434025.812459,11522
1659434025.851074,11515
1659434025.889688,11533
1659434025.928302,11529
1659434025.966233,11536
1659434026.004164,11543
1659434026.042094,11542
1659434026.085151,11567
1659434026.128207,11563
1659434026.170239,11575
1659434026.21227,11592
1659434026.250542,11600
1659434026.288815,11610
1659434026.327087,11631
1659434026.371852,11638
1659434026.416618,11652
1659434026.461383,11680
1659434026.495725,11639
1659434026.530068,11593
1659434026.57415,11542
1659434026.618231,11503
1659434026.662313,11483
1659434026.695118,11476
1659434026.727923,11468
1659434026.772346,11472
1659434026.81677,11465
1659434026.861193,11469
1659434026.899124,11455
1659434026.937055,11469
1659434026.974985,11477
1659434027.017017,11486
1659434027.059048,11492
1659434027.098004,11507
1659434027.13696,11530
1659434027.175916,11538
1659434027.213846,11559
1659434027.251777,11571
1659434027.289708,11586
1659434027.331739,11572
1659434027.373771,11517
1659434027.412385,11475
1659434027.450999,11441
1659434027.489613,11412
1659434027.531132,11407
1659434027.572651,11405
1659434027.611607,11403
1659434027.650563,11415
1659434027.689518,11414
1659434027.73155,11413
1659434027.773581,11425
1659434027.811854,11446
1659434027.850126,11455
1659434027.888398,11485
1659434027.930943,11496
1659434027.973486,11528
1659434028.012442,11531
1659434028.051398,11546
1659434028.090354,11560
1659434028.134436,11579
1659434028.178517,11589
1659434028.222599,11552
1659434028.255404,11511
1659434028.288209,11463
1659434028.333316,11445
1659434028.378423,11416
1659434028.423529,11397
1659434028.465561,11407
1659434028.507592,11411
1659434028.546548,11417
1659434028.585504,11419
1659434028.62446,11429
1659434028.663758,11437
1659434028.703055,11458
1659434028.742353,11478
1659434028.783871,11493
1659434028.82539,11508
1659434028.863663,11528
1659434028.901935,11548
1659434028.940208,11571
1659434028.982752,11577
1659434029.025295,11591
1659434029.063568,11607
1659434029.10184,11585
1659434029.140113,11524
1659434029.178727,11490
1659434029.217341,11466
1659434029.255955,11453
1659434029.296962,11448
1659434029.337968,11444
1659434029.377607,11454
1659434029.417246,11465
1659434029.456886,11461
1659434029.497892,11474
1659434029.538898,11476
1659434029.577854,11497
1659434029.61681,11517
1659434029.655766,11546
1659434029.700189,11570
1659434029.744613,11579
1659434029.789036,11599
1659434029.830555,11619
1659434029.872074,11632
1659434029.911371,11644
1659434029.950669,11665
1659434029.989966,11645
1659434030.031998,11598
1659434030.074029,11538
1659434030.112302,11500
1659434030.150574,11467
1659434030.188846,11457
1659434030.227461,11448
1659434030.266075,11448
1659434030.304689,11444
1659434030.34672,11448
1659434030.388752,11465
1659434030.427708,11465
1659434030.466664,11476
1659434030.505619,11501
1659434030.546113,11509
1659434030.586607,11541
1659434030.626246,11555
1659434030.665885,11561
1659434030.705525,11582
1659434030.743797,11600
1659434030.782069,11611
1659434030.820342,11640
1659434030.861861,11653
1659434030.903379,11651
1659434030.943019,11612
1659434030.982658,11548
1659434031.022298,11482
1659434031.063816,11443
1659434031.105335,11411
1659434031.143266,11401
1659434031.181196,11389
1659434031.219127,11394
1659434031.264234,11392
1659434031.309341,11395
1659434031.354448,11398
1659434031.396479,11407
1659434031.43851,11431
1659434031.476783,11438
1659434031.515055,11459
1659434031.553328,11468
1659434031.594847,11483
1659434031.636365,11504
1659434031.675663,11520
1659434031.714961,11534
1659434031.754258,11548
1659434031.792531,11565
1659434031.830803,11566
1659434031.869076,11577
1659434031.912132,11539
1659434031.955189,11472
1659434031.994144,11414
1659434032.0331,11372
1659434032.072056,11342
1659434032.113063,11324
1659434032.154069,11322
1659434032.193025,11325
1659434032.231981,11324
1659434032.270936,11343
1659434032.310234,11340
1659434032.349532,11353
1659434032.388829,11369
1659434032.429323,11388
1659434032.469816,11415
1659434032.508772,11419
1659434032.547728,11439
1659434032.586684,11456
1659434032.62769,11476
1659434032.668697,11498
1659434032.707652,11521
1659434032.746608,11533
1659434032.785564,11553
1659434032.827083,11579
1659434032.868602,11577
1659434032.913709,11540
1659434032.958815,11480
1659434033.003922,11425
1659434033.042195,11392
1659434033.080467,11371
1659434033.11874,11363
1659434033.160771,11358
1659434033.202802,11378
1659434033.241758,11373
1659434033.280714,11370
1659434033.31967,11376
1659434033.360164,11390
1659434033.400657,11409
1659434033.43893,11421
1659434033.477202,11446
1659434033.515475,11470
1659434033.55443,11489
1659434033.593386,11508
1659434033.632342,11528
1659434033.673861,11551
1659434033.71538,11568
1659434033.753994,11590
1659434033.792608,11608
1659434033.831222,11632
1659434033.869837,11625
1659434033.908451,11583
1659434033.947065,11533
1659434033.989096,11494
1659434034.031128,11475
1659434034.069742,11456
1659434034.108356,11463
1659434034.14697,11452
1659434034.189514,11467
1659434034.232058,11472
1659434034.273577,11474
1659434034.315096,11485
1659434034.354051,11506
1659434034.393007,11526
1659434034.431963,11538
1659434034.476728,11564
1659434034.521493,11581
1659434034.566259,11599
1659434034.600089,11620
1659434034.633919,11636
1659434034.677659,11657
1659434034.721399,11680
1659434034.765139,11713
1659434034.797944,11709
1659434034.830749,11716
1659434034.87483,11667
1659434034.918912,11627
1659434034.962994,11598
1659434035.00195,11584
1659434035.040905,11573
1659434035.079861,11566
1659434035.121893,11572
1659434035.163924,11578
1659434035.203222,11576
1659434035.242519,11584
1659434035.281817,11587
1659434035.322823,11615
1659434035.363829,11631
1659434035.402785,11652
1659434035.441741,11664
1659434035.480697,11679
1659434035.519653,11694
1659434035.558609,11721
1659434035.597564,11740
1659434035.639083,11760
1659434035.680602,11786
1659434035.718874,11794
1659434035.757147,11810
1659434035.795419,11774
1659434035.837451,11731
1659434035.879482,11693
1659434035.917755,11668
1659434035.956027,11645
1659434035.9943,11632
1659434036.036075,11637
1659434036.07785,11634
1659434036.119625,11647
1659434036.1614,11638
1659434036.203944,11639
1659434036.246488,11651
1659434036.28476,11655
1659434036.323033,11678
1659434036.361305,11685
1659434036.402311,11703
1659434036.443317,11720
1659434036.482615,11736
1659434036.521913,11751
1659434036.56121,11765
1659434036.599141,11791
1659434036.637072,11797
1659434036.675003,11809
1659434036.717546,11782
1659434036.76009,11736
1659434036.798705,11696
1659434036.837319,11666
1659434036.875933,11638
1659434036.916939,11606
1659434036.957945,11604
1659434036.996559,11591
1659434037.035174,11602
1659434037.073788,11587
1659434037.116332,11586
1659434037.158876,11589
1659434037.202957,11596
1659434037.247039,11597
1659434037.291121,11611
1659434037.324438,11626
1659434037.357756,11635
1659434037.402863,11663
1659434037.447969,11666
1659434037.493076,11677
1659434037.53169,11693
1659434037.570305,11704
1659434037.608919,11719
1659434037.650438,11732
1659434037.691956,11699
1659434037.731596,11653
1659434037.771235,11617
1659434037.810874,11575
1659434037.851881,11555
1659434037.892887,11534
1659434037.931501,11523
1659434037.970115,11528
1659434038.008729,11526
1659434038.047343,11515
1659434038.085958,11525
1659434038.124572,11529
1659434038.166603,11535
1659434038.208634,11554
1659434038.246907,11574
1659434038.285179,11595
1659434038.323452,11616
1659434038.365483,11632
1659434038.407515,11646
1659434038.44647,11671
1659434038.485426,11688
1659434038.524382,11697
1659434038.56368,11714
1659434038.602978,11734
1659434038.642275,11707
1659434038.683794,11661
1659434038.725313,11617
1659434038.767344,11584
1659434038.809375,11574
1659434038.847648,11553
1659434038.88592,11553
1659434038.924193,11555
1659434038.968616,11555
1659434039.013039,11556
1659434039.057463,11571
1659434039.09078,11571
1659434039.124098,11574
1659434039.168521,11590
1659434039.212945,11609
1659434039.257368,11624
1659434039.29564,11652
1659434039.333913,11666
1659434039.372185,11680
1659434039.414217,11702
1659434039.456248,11719
1659434039.495204,11743
1659434039.53416,11756
1659434039.573116,11761
1659434039.614635,11743
1659434039.656153,11703
1659434039.695109,11657
1659434039.734065,11627
1659434039.773021,11608
1659434039.815053,11600
1659434039.857084,11598
1659434039.89604,11603
1659434039.934996,11602
1659434039.973952,11613
1659434040.013249,11612
1659434040.052547,11613
1659434040.091844,11627
1659434040.13285,11652
1659434040.173857,11660
1659434040.212129,11678
1659434040.250402,11707
1659434040.288674,11707
1659434040.331218,11733
1659434040.373762,11741
1659434040.413059,11756
1659434040.452357,11780
1659434040.491655,11796
1659434040.532148,11806
1659434040.572642,11816
1659434040.61194,11779
1659434040.651237,11737
1659434040.690535,11710
1659434040.732566,11686
1659434040.774598,11680
1659434040.819021,11671
1659434040.863444,11674
1659434040.907868,11672
1659434040.946824,11676
1659434040.98578,11684
1659434041.024735,11677
1659434041.067279,11693
1659434041.109823,11706
1659434041.148096,11715
1659434041.186368,11735
1659434041.224641,11758
1659434041.266672,11766
1659434041.308703,11780
1659434041.345865,11795
1659434041.383027,11813
1659434041.420189,11823
1659434041.457351,11833
1659434041.501432,11849
1659434041.545514,11832
1659434041.589596,11785
1659434041.623426,11744
1659434041.657256,11701
1659434041.702021,11666
1659434041.746786,11656
1659434041.791551,11648
1659434041.823844,11630
1659434041.856136,11644
1659434041.900901,11631
1659434041.945666,11643
1659434041.990432,11634
1659434042.029729,11634
1659434042.069027,11644
1659434042.108324,11658
1659434042.149331,11678
1659434042.190337,11681
1659434042.228951,11695
1659434042.267565,11710
1659434042.306179,11726
1659434042.347185,11701
1659434042.388192,11668
1659434042.426806,11609
1659434042.46542,11533
1659434042.504034,11436
1659434042.54299,11330
1659434042.581946,11188
1659434042.620902,11001
1659434042.661908,10824
1659434042.702914,10646
1659434042.741529,10507
1659434042.780143,10387
1659434042.818757,10255
1659434042.857713,10137
1659434042.896668,9987
1659434042.935624,9850
1659434042.978168,9767
1659434043.020712,9693
1659434043.061718,9610
1659434043.102725,9537
1659434043.14168,9480
1659434043.180636,9442
1659434043.219592,9412
1659434043.262136,9393
1659434043.30468,9375
1659434043.343636,9343
1659434043.382592,9330
