LocalTimestamp,PG
1659432390.0567,10148
1659432390.101464,10623
1659432390.146228,10994
1659432390.185183,11261
1659432390.224138,11466
1659432390.263093,11659
1659432390.305124,11868
1659432390.347154,12146
1659432390.385426,12487
1659432390.423698,12938
1659432390.461969,13378
1659432390.503487,13739
1659432390.545005,14070
1659432390.583277,14315
1659432390.621549,14403
1659432390.65982,14480
1659432390.698776,14611
1659432390.737731,14779
1659432390.776686,14981
1659432390.818716,15185
1659432390.860747,15381
1659432390.900043,15504
1659432390.93934,15615
1659432390.978637,15676
1659432391.022718,15705
1659432391.066799,15669
1659432391.110879,15695
1659432391.150176,15744
1659432391.189473,15776
1659432391.22877,15856
1659432391.269775,15926
1659432391.310781,15963
1659432391.349394,16047
1659432391.388007,16080
1659432391.426621,16086
1659432391.468651,16128
1659432391.510682,16183
1659432391.549637,16223
1659432391.588592,16242
1659432391.627547,16267
1659432391.665819,16262
1659432391.70409,16256
1659432391.742362,16241
1659432391.78388,16254
1659432391.825398,16246
1659432391.865036,16240
1659432391.904675,16254
1659432391.944314,16254
1659432391.982585,16260
1659432392.020857,16266
1659432392.059129,16305
1659432392.100134,16311
1659432392.141139,16324
1659432392.183682,16328
1659432392.226225,16346
1659432392.264839,16359
1659432392.303452,16376
1659432392.342066,16406
1659432392.386146,16401
1659432392.430227,16329
1659432392.474308,16264
1659432392.507625,16208
1659432392.540941,16146
1659432392.585022,16126
1659432392.629103,16116
1659432392.673184,16108
1659432392.711456,16095
1659432392.749727,16083
1659432392.787999,16098
1659432392.831054,16119
1659432392.87411,16138
1659432392.912724,16150
1659432392.951337,16150
1659432392.98995,16115
1659432393.031468,16090
1659432393.072986,16068
1659432393.112625,16074
1659432393.152263,16063
1659432393.191902,16084
1659432393.230515,16108
1659432393.269129,16118
1659432393.307742,16151
1659432393.34926,16189
1659432393.390778,16225
1659432393.430074,16242
1659432393.469371,16266
1659432393.508668,16309
1659432393.549674,16335
1659432393.590679,16347
1659432393.629292,16343
1659432393.667906,16339
1659432393.706519,16317
1659432393.748549,16320
1659432393.79058,16316
1659432393.829193,16305
1659432393.867807,16302
1659432393.90642,16301
1659432393.946913,16307
1659432393.987406,16312
1659432394.026703,16317
1659432394.066,16311
1659432394.105296,16336
1659432394.15006,16336
1659432394.194825,16343
1659432394.239589,16331
1659432394.281107,16320
1659432394.322625,16326
1659432394.361922,16329
1659432394.401218,16348
1659432394.440515,16357
1659432394.482546,16369
1659432394.524576,16383
1659432394.562506,16388
1659432394.600436,16394
1659432394.638366,16396
1659432394.677321,16403
1659432394.716276,16404
1659432394.755231,16407
1659432394.797262,16394
1659432394.839292,16389
1659432394.877564,16378
1659432394.915836,16390
1659432394.954107,16393
1659432394.992379,16408
1659432395.030651,16424
1659432395.068922,16421
1659432395.110953,16426
1659432395.152983,16432
1659432395.191938,16424
1659432395.230894,16433
1659432395.269849,16435
1659432395.311367,16428
1659432395.352885,16418
1659432395.39184,16414
1659432395.430795,16396
1659432395.46975,16372
1659432395.51178,16369
1659432395.553811,16373
1659432395.592766,16374
1659432395.631721,16398
1659432395.670676,16391
1659432395.711681,16389
1659432395.752687,16398
1659432395.796767,16398
1659432395.840848,16413
1659432395.884929,16404
1659432395.923542,16397
1659432395.962156,16392
1659432396.000769,16395
1659432396.042287,16380
1659432396.083805,16374
1659432396.123102,16364
1659432396.162399,16368
1659432396.201695,16384
1659432396.240309,16377
1659432396.278922,16398
1659432396.317536,16407
1659432396.359054,16401
1659432396.400572,16390
1659432396.439868,16394
1659432396.479165,16384
1659432396.518462,16384
1659432396.557075,16381
1659432396.595689,16350
1659432396.634302,16328
1659432396.676333,16307
1659432396.718363,16281
1659432396.75766,16275
1659432396.796957,16279
1659432396.836254,16273
1659432396.876746,16284
1659432396.917239,16294
1659432396.956194,16299
1659432396.995149,16317
1659432397.034104,16313
1659432397.076648,16307
1659432397.119191,16314
1659432397.16293,16308
1659432397.206669,16308
1659432397.250408,16314
1659432397.2827,16343
1659432397.314991,16352
1659432397.360097,16358
1659432397.405203,16351
1659432397.450309,16344
1659432397.488922,16334
1659432397.527536,16341
1659432397.566149,16343
1659432397.60818,16347
1659432397.65021,16349
1659432397.689507,16361
1659432397.728804,16350
1659432397.768101,16353
1659432397.806372,16358
1659432397.844644,16365
1659432397.882915,16378
1659432397.923408,16377
1659432397.963901,16398
1659432398.002856,16396
1659432398.041811,16388
1659432398.080766,16368
1659432398.11938,16354
1659432398.157993,16390
1659432398.196607,16416
1659432398.238125,16454
1659432398.279642,16460
1659432398.317914,16444
1659432398.356186,16426
1659432398.394457,16448
1659432398.435975,16448
1659432398.477493,16494
1659432398.521574,16541
1659432398.565655,16558
1659432398.609736,16556
1659432398.644078,16547
1659432398.67842,16533
1659432398.722842,16510
1659432398.767265,16505
1659432398.811687,16512
1659432398.8503,16491
1659432398.888914,16478
1659432398.927527,16463
1659432398.969558,16465
1659432399.011588,16467
1659432399.050543,16465
1659432399.089498,16458
1659432399.128453,16460
1659432399.168946,16463
1659432399.209439,16479
1659432399.248736,16479
1659432399.288033,16481
1659432399.327329,16493
1659432399.365601,16484
1659432399.403873,16476
1659432399.442145,16464
1659432399.484688,16472
1659432399.527231,16457
1659432399.566186,16452
1659432399.605141,16454
1659432399.644096,16451
1659432399.685614,16460
1659432399.727132,16444
1659432399.765745,16426
1659432399.804358,16436
1659432399.842972,16439
1659432399.882269,16413
1659432399.921566,16412
1659432399.960862,16367
1659432400.002893,16362
1659432400.044923,16332
1659432400.085929,16317
1659432400.126934,16329
1659432400.165548,16336
1659432400.204161,16345
1659432400.242774,16350
1659432400.287539,16373
1659432400.332303,16380
1659432400.377067,16406
1659432400.410384,16407
1659432400.443701,16405
1659432400.488123,16426
1659432400.532546,16435
1659432400.576968,16440
1659432400.609772,16439
1659432400.642577,16460
1659432400.686999,16461
1659432400.731421,16468
1659432400.775844,16459
1659432400.814457,16455
1659432400.853071,16476
1659432400.891684,16470
1659432400.934227,16468
1659432400.97677,16483
1659432401.015384,16486
1659432401.053997,16513
1659432401.092611,16520
1659432401.134128,16509
1659432401.175646,16516
1659432401.213918,16515
1659432401.25219,16512
1659432401.290461,16536
1659432401.331979,16538
1659432401.373497,16536
1659432401.415015,16539
1659432401.456533,16530
1659432401.495147,16516
1659432401.53376,16506
1659432401.572373,16504
1659432401.611328,16518
1659432401.650284,16529
1659432401.689239,16524
1659432401.730757,16536
1659432401.772274,16528
1659432401.811229,16527
1659432401.850185,16524
1659432401.88914,16531
1659432401.93117,16545
1659432401.973201,16549
1659432402.011814,16542
1659432402.050427,16536
1659432402.089041,16559
1659432402.131071,16571
1659432402.173102,16575
1659432402.212399,16552
1659432402.251695,16551
1659432402.290992,16541
1659432402.331485,16547
1659432402.371978,16551
1659432402.410249,16560
1659432402.448521,16565
1659432402.486793,16552
1659432402.531899,16544
1659432402.577005,16546
1659432402.622111,16535
1659432402.655427,16527
1659432402.688744,16528
1659432402.732825,16542
1659432402.776906,16551
1659432402.820987,16559
1659432402.854816,16553
1659432402.888645,16550
1659432402.93341,16549
1659432402.978174,16562
1659432403.022938,16571
1659432403.061552,16556
1659432403.100165,16574
1659432403.138778,16589
1659432403.181834,16599
1659432403.22489,16607
1659432403.263844,16617
1659432403.3028,16616
1659432403.341755,16628
1659432403.38276,16644
1659432403.423765,16650
1659432403.463062,16647
1659432403.502359,16655
1659432403.541656,16660
1659432403.580611,16648
1659432403.619566,16660
1659432403.658521,16650
1659432403.699014,16669
1659432403.739507,16671
1659432403.778462,16682
1659432403.817417,16707
1659432403.856372,16732
1659432403.896865,16742
1659432403.937358,16754
1659432403.976313,16775
1659432404.015268,16776
1659432404.054223,16781
1659432404.095741,16800
1659432404.137259,16783
1659432404.176214,16777
1659432404.215169,16765
1659432404.254124,16756
1659432404.298205,16757
1659432404.342286,16756
1659432404.386366,16742
1659432404.428397,16721
1659432404.470428,16726
1659432404.509724,16718
1659432404.549021,16712
1659432404.588318,16723
1659432404.628811,16724
1659432404.669303,16721
1659432404.708259,16739
1659432404.747214,16752
1659432404.786169,16763
1659432404.824782,16774
1659432404.863396,16791
1659432404.902009,16797
1659432404.943527,16807
1659432404.985045,16827
1659432405.024,16836
1659432405.062955,16847
1659432405.10191,16849
1659432405.143941,16869
1659432405.185971,16862
1659432405.224585,16863
1659432405.263198,16861
1659432405.301811,16858
1659432405.340425,16861
1659432405.379038,16862
1659432405.417651,16869
1659432405.460195,16866
1659432405.502738,16872
1659432405.541693,16867
1659432405.580648,16887
1659432405.619603,16881
1659432405.660096,16878
1659432405.700588,16895
1659432405.745353,16892
1659432405.790117,16902
1659432405.834881,16892
1659432405.868711,16873
1659432405.90254,16872
1659432405.94211,16875
1659432405.98168,16859
1659432406.02125,16858
1659432406.060821,16862
1659432406.100391,16867
1659432406.145155,16858
1659432406.189919,16852
1659432406.234683,16862
1659432406.273638,16870
1659432406.312593,16888
1659432406.351549,16881
1659432406.394092,16867
1659432406.436635,16866
1659432406.47559,16864
1659432406.514545,16869
1659432406.5535,16870
1659432406.592284,16878
1659432406.631068,16858
1659432406.669853,16849
1659432406.708637,16843
1659432406.747421,16845
1659432406.786206,16833
1659432406.827211,16841
1659432406.868216,16839
1659432406.90683,16856
1659432406.945443,16854
1659432406.984056,16851
1659432407.028137,16852
1659432407.072218,16849
1659432407.116299,16864
1659432407.157817,16867
1659432407.199335,16868
1659432407.237606,16879
1659432407.275878,16883
1659432407.31415,16888
1659432407.355668,16891
1659432407.397186,16896
1659432407.436824,16899
1659432407.476463,16911
1659432407.516101,16901
1659432407.554373,16911
1659432407.592644,16913
1659432407.630916,16918
1659432407.672434,16919
1659432407.713952,16943
1659432407.753249,16933
1659432407.792546,16931
1659432407.831842,16937
1659432407.869772,16945
1659432407.907702,16959
1659432407.945632,16950
1659432407.988175,16948
1659432408.030718,16956
1659432408.06899,16969
1659432408.107262,16976
1659432408.145533,16965
1659432408.186026,16949
1659432408.226519,16957
1659432408.265132,16962
1659432408.303746,16956
1659432408.342359,16967
1659432408.384902,16951
1659432408.427445,16953
1659432408.466059,16941
1659432408.504672,16953
1659432408.543285,16953
1659432408.585316,16953
1659432408.627347,16947
1659432408.672452,16944
1659432408.717558,16959
1659432408.762664,16958
1659432408.801277,16953
1659432408.839891,16962
1659432408.878504,16956
1659432408.920535,16948
1659432408.962565,16957
1659432409.001862,16943
1659432409.041159,16938
1659432409.080456,16959
1659432409.121461,16958
1659432409.162467,16969
1659432409.20108,16969
1659432409.239693,16970
1659432409.278306,16962
1659432409.317262,16959
1659432409.356217,16968
1659432409.395172,16964
1659432409.43669,16986
1659432409.478208,16980
1659432409.516821,16973
1659432409.555434,16979
1659432409.594048,16972
1659432409.636078,16980
1659432409.678109,16989
1659432409.716722,16974
1659432409.755336,16980
1659432409.793949,16985
1659432409.833246,16982
1659432409.872543,17001
1659432409.911839,16994
1659432409.953357,16985
1659432409.994875,16993
1659432410.036906,16985
1659432410.078936,16988
1659432410.117208,16981
1659432410.15548,16986
1659432410.193751,16990
1659432410.238174,17000
1659432410.282596,16999
1659432410.327019,16994
1659432410.360336,17002
1659432410.393652,17004
1659432410.437733,17010
1659432410.481814,17019
1659432410.525895,16995
1659432410.563056,16989
1659432410.600217,16998
1659432410.637378,16983
1659432410.674539,16985
1659432410.71657,16992
1659432410.7586,16998
1659432410.797214,17018
1659432410.835827,17031
1659432410.87444,17033
1659432410.916471,17027
1659432410.958501,17030
1659432410.997798,17020
1659432411.037095,17031
1659432411.076392,17038
1659432411.120131,17039
1659432411.16387,17041
1659432411.207609,17039
1659432411.240413,17039
1659432411.273218,17036
1659432411.317298,17023
1659432411.361379,17014
1659432411.40546,17011
1659432411.444073,17009
1659432411.482687,17006
1659432411.5213,17012
1659432411.563843,17007
1659432411.606386,16995
1659432411.645341,16989
1659432411.684296,16996
1659432411.723252,17002
1659432411.76477,17008
1659432411.806287,17020
1659432411.845243,17034
1659432411.884197,17008
1659432411.923153,16997
1659432411.963133,17008
1659432412.003113,17012
1659432412.043093,16990
1659432412.081365,16943
1659432412.119637,16903
1659432412.157908,16879
1659432412.199939,16844
1659432412.241969,16763
1659432412.284,16746
1659432412.32603,16784
1659432412.364985,16835
1659432412.403941,16860
1659432412.442896,16819
1659432412.483388,16762
1659432412.523881,16710
1659432412.563178,16710
1659432412.602475,16691
1659432412.641772,16678
1659432412.685853,16689
1659432412.729933,16695
1659432412.774014,16682
1659432412.807843,16605
1659432412.841673,16511
1659432412.886437,16402
1659432412.931201,16310
1659432412.975965,16217
1659432413.014579,16146
1659432413.053192,16093
1659432413.091806,16013
1659432413.132811,15932
1659432413.173816,15845
1659432413.213455,15753
1659432413.253093,15675
1659432413.292732,15604
1659432413.33425,15535
1659432413.375768,15462
1659432413.414381,15395
1659432413.452995,15333
1659432413.491608,15291
1659432413.530221,15253
1659432413.568835,15210
1659432413.607448,15061
1659432413.648453,14858
1659432413.689459,14664
1659432413.727731,14480
1659432413.766002,14304
1659432413.804274,14178
1659432413.846304,14091
1659432413.888335,14021
1659432413.926606,13965
1659432413.964878,13928
1659432414.00315,13876
1659432414.044668,13828
1659432414.086186,13785
1659432414.125141,13729
1659432414.164096,13713
1659432414.203051,13709
1659432414.245594,13708
1659432414.288137,13722
1659432414.332218,13726
1659432414.376299,13715
1659432414.420379,13650
1659432414.459676,13541
1659432414.498973,13432
1659432414.53827,13353
1659432414.579275,13275
1659432414.620281,13241
1659432414.658552,13222
1659432414.696824,13186
1659432414.735096,13129
1659432414.774051,13098
1659432414.813006,13075
1659432414.851961,13056
1659432414.894504,13062
1659432414.937047,13052
1659432414.975319,13051
1659432415.01359,13044
1659432415.051862,13041
1659432415.093893,13032
1659432415.135923,13008
1659432415.174878,12914
1659432415.213833,12768
1659432415.252788,12635
1659432415.295331,12524
1659432415.337874,12431
1659432415.376488,12355
1659432415.415101,12298
1659432415.453715,12261
1659432415.49267,12216
1659432415.531625,12184
1659432415.57058,12158
1659432415.611585,12142
1659432415.652591,12140
1659432415.694621,12159
1659432415.736652,12177
1659432415.775265,12195
1659432415.813879,12208
1659432415.852492,12236
1659432415.896573,12254
1659432415.940653,12260
1659432415.984734,12186
1659432416.017538,12066
1659432416.050343,11990
1659432416.095107,11910
1659432416.139871,11867
1659432416.184635,11833
1659432416.22359,11831
1659432416.262546,11836
1659432416.301501,11855
1659432416.343019,11873
1659432416.384537,11889
1659432416.42315,11940
1659432416.461763,11975
1659432416.500377,12023
1659432416.542407,12060
1659432416.584438,12094
1659432416.623393,12136
1659432416.662348,12181
1659432416.701303,12235
1659432416.740258,12247
1659432416.779213,12231
1659432416.818168,12172
1659432416.856781,12147
1659432416.895395,12113
1659432416.934008,12097
1659432416.974501,12110
1659432417.014994,12125
1659432417.053607,12132
1659432417.092221,12137
1659432417.130834,12147
1659432417.174915,12162
1659432417.218996,12205
1659432417.263076,12240
1659432417.300494,12284
1659432417.337911,12325
1659432417.375329,12360
1659432417.412746,12399
1659432417.455289,12439
1659432417.497832,12466
1659432417.536446,12432
1659432417.575059,12398
1659432417.613672,12357
1659432417.654678,12333
1659432417.695683,12315
1659432417.735322,12328
1659432417.77496,12356
1659432417.814599,12367
1659432417.856629,12370
1659432417.898659,12392
1659432417.94274,12410
1659432417.986821,12446
1659432418.030902,12490
1659432418.064219,12531
1659432418.097536,12575
1659432418.141958,12638
1659432418.186381,12700
1659432418.230803,12778
1659432418.268733,12849
1659432418.306663,12908
1659432418.344593,12957
1659432418.387649,12995
1659432418.430704,13044
1659432418.469659,13098
1659432418.508614,13168
1659432418.54757,13201
1659432418.586524,13246
1659432418.62548,13303
1659432418.664435,13346
1659432418.705953,13395
1659432418.747471,13445
1659432418.786426,13487
1659432418.825381,13533
1659432418.864336,13565
1659432418.902608,13592
1659432418.940879,13628
1659432418.979151,13641
1659432419.021694,13649
1659432419.064237,13665
1659432419.10285,13671
1659432419.141464,13662
1659432419.180077,13669
1659432419.221083,13690
1659432419.262088,13707
1659432419.304118,13736
1659432419.346149,13773
1659432419.385104,13811
1659432419.424059,13844
1659432419.463014,13884
1659432419.507095,13911
1659432419.551176,13950
1659432419.595257,13978
1659432419.628573,14004
1659432419.66189,14045
1659432419.706655,14077
1659432419.751419,14112
1659432419.796183,14147
1659432419.834796,14164
1659432419.87341,14188
1659432419.912023,14190
1659432419.953541,14188
1659432419.995059,14192
1659432420.034014,14230
1659432420.072969,14230
1659432420.111924,14271
1659432420.152417,14292
1659432420.19291,14316
1659432420.231523,14359
1659432420.270137,14385
1659432420.30875,14410
1659432420.348047,14440
1659432420.387344,14487
1659432420.42664,14504
1659432420.468158,14542
1659432420.509676,14557
1659432420.547948,14585
1659432420.58622,14618
1659432420.624491,14639
1659432420.666522,14641
1659432420.708552,14638
1659432420.748191,14617
1659432420.787829,14625
1659432420.827468,14647
1659432420.868473,14659
1659432420.909478,14669
1659432420.948775,14685
1659432420.988072,14701
1659432421.027369,14708
1659432421.069399,14718
1659432421.11143,14728
1659432421.150385,14745
1659432421.18934,14782
1659432421.228295,14804
1659432421.272376,14813
1659432421.316457,14828
1659432421.360538,14842
1659432421.393854,14876
1659432421.427171,14880
1659432421.47091,14886
1659432421.514649,14873
1659432421.558388,14874
1659432421.597002,14894
1659432421.635615,14918
1659432421.674229,14936
1659432421.717284,14955
1659432421.76034,14977
1659432421.80076,14967
1659432421.841179,14987
1659432421.881598,14996
1659432421.922018,15003
1659432421.962438,14999
1659432422.002857,14996
1659432422.043277,14982
1659432422.082232,14973
1659432422.121187,14961
1659432422.160142,14955
1659432422.199097,14943
1659432422.238052,14888
1659432422.277008,14847
1659432422.316783,14813
1659432422.356558,14793
1659432422.396333,14764
1659432422.436108,14734
1659432422.475883,14728
1659432422.514497,14725
1659432422.55311,14718
1659432422.591724,14693
1659432422.636146,14686
1659432422.680569,14692
1659432422.724991,14700
1659432422.757795,14698
1659432422.7906,14711
1659432422.834681,14715
1659432422.878761,14713
1659432422.922842,14724
1659432422.962139,14722
1659432423.001436,14717
1659432423.040732,14674
1659432423.081738,14640
1659432423.122743,14597
1659432423.161698,14570
1659432423.200653,14541
1659432423.239609,14528
1659432423.282151,14532
1659432423.324695,14535
1659432423.363308,14536
1659432423.401921,14534
1659432423.440535,14534
1659432423.479148,14541
1659432423.517761,14562
1659432423.556375,14564
1659432423.597893,14582
1659432423.639411,14599
1659432423.678366,14603
1659432423.717321,14632
1659432423.756276,14640
1659432423.797282,14654
1659432423.838287,14652
1659432423.877242,14629
1659432423.916197,14603
1659432423.955152,14608
1659432423.99667,14610
1659432424.038188,14611
1659432424.077143,14628
1659432424.116098,14637
1659432424.155053,14643
1659432424.197084,14649
1659432424.239114,14660
1659432424.278069,14662
1659432424.317024,14671
1659432424.355979,14686
1659432424.400744,14696
1659432424.445508,14715
1659432424.490272,14726
1659432424.531277,14749
1659432424.572283,14776
1659432424.61158,14789
1659432424.650877,14755
1659432424.690173,14744
1659432424.728445,14731
1659432424.766716,14735
1659432424.804988,14748
1659432424.846506,14770
1659432424.888024,14797
1659432424.926637,14802
1659432424.965251,14825
1659432425.003864,14850
1659432425.042819,14870
1659432425.081774,14895
1659432425.12073,14922
1659432425.16276,14947
1659432425.204791,14961
1659432425.244087,14985
1659432425.283384,15004
1659432425.322681,15022
1659432425.363686,15047
1659432425.404692,15048
1659432425.443647,15058
1659432425.482602,15043
1659432425.521557,15035
1659432425.563587,15034
1659432425.605618,15043
1659432425.644231,15048
1659432425.682845,15071
1659432425.721458,15086
1659432425.761951,15095
1659432425.802444,15116
1659432425.846866,15135
1659432425.891289,15149
1659432425.935711,15157
1659432425.973983,15175
1659432426.012254,15187
1659432426.050526,15194
1659432426.092557,15199
1659432426.134587,15215
1659432426.173201,15239
1659432426.211814,15256
1659432426.250427,15269
1659432426.292458,15274
1659432426.334488,15249
1659432426.373102,15229
1659432426.411715,15250
1659432426.450329,15259
1659432426.489625,15265
1659432426.528922,15276
1659432426.568219,15291
1659432426.61025,15293
1659432426.65228,15303
1659432426.69021,15305
1659432426.72814,15311
1659432426.76607,15325
1659432426.807588,15345
1659432426.849106,15365
1659432426.888061,15361
1659432426.927016,15365
1659432426.965971,15387
1659432427.004584,15392
1659432427.043198,15384
1659432427.081811,15365
1659432427.123842,15351
1659432427.165872,15341
1659432427.206877,15347
1659432427.247883,15345
1659432427.286155,15365
1659432427.324426,15374
1659432427.362698,15387
1659432427.407462,15392
1659432427.452226,15395
1659432427.49699,15405
1659432427.531332,15412
1659432427.565675,15435
1659432427.610097,15436
1659432427.65452,15448
1659432427.698942,15460
1659432427.738239,15469
1659432427.777535,15482
1659432427.816832,15485
1659432427.85835,15451
1659432427.899868,15428
1659432427.938482,15419
1659432427.977095,15421
1659432428.015708,15430
1659432428.056714,15428
1659432428.097719,15439
1659432428.137016,15453
1659432428.176313,15452
1659432428.21561,15452
1659432428.25354,15467
1659432428.29147,15471
1659432428.329399,15466
1659432428.371943,15493
1659432428.414485,15491
1659432428.453441,15513
1659432428.492396,15545
1659432428.531351,15532
1659432428.572356,15533
1659432428.613362,15505
1659432428.651975,15491
1659432428.690588,15475
1659432428.729202,15480
1659432428.771745,15479
1659432428.814288,15484
1659432428.85256,15495
1659432428.890831,15492
1659432428.929103,15493
1659432428.970108,15495
1659432429.011114,15505
1659432429.049727,15518
1659432429.08834,15528
1659432429.126954,15531
1659432429.171035,15525
1659432429.215115,15555
1659432429.259196,15559
1659432429.292513,15576
1659432429.32583,15561
1659432429.370252,15518
1659432429.414675,15512
1659432429.459097,15513
1659432429.497711,15500
1659432429.536324,15499
1659432429.574937,15522
1659432429.616455,15526
1659432429.657973,15544
1659432429.69727,15538
1659432429.736567,15553
1659432429.775864,15565
1659432429.817894,15560
1659432429.859925,15573
1659432429.898538,15591
1659432429.937151,15605
1659432429.975765,15594
1659432430.015062,15623
1659432430.054358,15621
1659432430.093655,15616
1659432430.134661,15600
1659432430.175666,15581
1659432430.214279,15557
1659432430.252893,15549
1659432430.291506,15552
1659432430.333537,15556
1659432430.375567,15570
1659432430.414864,15570
1659432430.454161,15572
1659432430.493458,15589
1659432430.533438,15588
1659432430.573418,15593
1659432430.612373,15586
1659432430.651328,15597
1659432430.690283,15615
1659432430.732826,15610
1659432430.775369,15614
1659432430.814666,15621
1659432430.853963,15642
1659432430.89326,15626
1659432430.934778,15598
1659432430.976296,15587
1659432431.02106,15584
1659432431.065824,15590
1659432431.110588,15587
1659432431.149202,15603
1659432431.187815,15616
1659432431.226429,15617
1659432431.268459,15636
1659432431.310489,15653
1659432431.349445,15648
1659432431.3884,15662
1659432431.427355,15666
1659432431.465968,15676
1659432431.504581,15688
1659432431.543195,15695
1659432431.583688,15702
1659432431.624181,15717
1659432431.663819,15697
1659432431.703458,15668
1659432431.743096,15642
1659432431.784614,15632
1659432431.826132,15637
1659432431.864404,15622
1659432431.902675,15626
1659432431.940947,15636
1659432431.980244,15666
1659432432.019541,15659
1659432432.058837,15650
1659432432.100868,15661
1659432432.142898,15666
1659432432.18117,15672
1659432432.219442,15673
1659432432.257714,15676
1659432432.299231,15675
1659432432.340749,15693
1659432432.385172,15691
1659432432.429594,15687
1659432432.474017,15697
1659432432.506821,15699
1659432432.539625,15673
1659432432.584048,15656
1659432432.62847,15652
1659432432.672893,15651
1659432432.705697,15657
1659432432.738501,15674
1659432432.782924,15689
1659432432.827346,15689
1659432432.871769,15701
1659432432.911066,15708
1659432432.950362,15715
1659432432.989659,15712
1659432433.028273,15728
1659432433.066886,15748
1659432433.105499,15753
1659432433.147017,15755
1659432433.188535,15754
1659432433.227832,15763
1659432433.267129,15769
1659432433.306426,15763
1659432433.345381,15736
1659432433.384336,15723
1659432433.423291,15707
1659432433.463784,15698
1659432433.504277,15709
1659432433.543232,15722
1659432433.582187,15742
1659432433.621142,15747
1659432433.663685,15742
1659432433.706228,15757
1659432433.750309,15753
1659432433.794389,15767
1659432433.83847,15763
1659432433.871274,15779
1659432433.904079,15775
1659432433.949185,15792
1659432433.994291,15784
1659432434.039397,15792
1659432434.072713,15797
1659432434.10603,15804
1659432434.150795,15785
1659432434.195559,15761
1659432434.240323,15747
1659432434.27962,15729
1659432434.318917,15740
1659432434.358213,15739
1659432434.396827,15752
1659432434.43544,15760
1659432434.474053,15747
1659432434.514546,15739
1659432434.555039,15745
1659432434.594336,15747
1659432434.633633,15745
1659432434.67293,15750
1659432434.713422,15746
1659432434.753915,15765
1659432434.792528,15769
1659432434.831142,15780
1659432434.869755,15798
1659432434.908027,15787
1659432434.946299,15750
1659432434.98457,15698
1659432435.027113,15670
1659432435.069656,15661
1659432435.10827,15676
1659432435.146883,15698
1659432435.185497,15702
1659432435.227015,15724
1659432435.268533,15748
1659432435.312955,15775
1659432435.357377,15786
1659432435.4018,15809
1659432435.435629,15827
1659432435.469459,15845
1659432435.514223,15856
1659432435.558987,15864
1659432435.603751,15861
1659432435.636556,15860
1659432435.66936,15879
1659432435.713099,15852
1659432435.756838,15797
1659432435.800577,15771
1659432435.83919,15777
1659432435.877804,15764
1659432435.916417,15759
1659432435.958448,15780
1659432436.000478,15792
1659432436.039092,15817
1659432436.077705,15816
1659432436.116318,15831
1659432436.154932,15858
1659432436.193545,15876
1659432436.232158,15849
1659432436.274702,15856
1659432436.317245,15859
1659432436.355516,15842
1659432436.393788,15864
1659432436.43206,15879
1659432436.47409,15893
1659432436.516121,15889
1659432436.555759,15894
1659432436.595398,15900
1659432436.635036,15914
1659432436.676042,15921
1659432436.717047,15924
1659432436.755319,15919
1659432436.79359,15907
1659432436.831862,15913
1659432436.874918,15896
1659432436.917973,15906
1659432436.956587,15907
1659432436.9952,15954
1659432437.033813,15961
1659432437.077894,15983
1659432437.121975,16016
1659432437.166056,15998
1659432437.199373,15977
1659432437.232689,15939
1659432437.277112,15926
1659432437.321534,15927
1659432437.365957,15935
1659432437.407475,15952
1659432437.448993,15970
1659432437.48829,15954
1659432437.527586,15912
1659432437.566883,15898
1659432437.605497,15854
1659432437.64411,15848
1659432437.682723,15844
1659432437.723729,15854
1659432437.764734,15876
1659432437.803689,15885
1659432437.842644,15873
1659432437.881599,15825
1659432437.92363,15785
1659432437.96566,15756
1659432438.00359,15750
1659432438.04152,15752
1659432438.07945,15756
1659432438.118405,15779
1659432438.15736,15814
1659432438.196316,15799
1659432438.240396,15763
1659432438.284477,15745
1659432438.328558,15745
1659432438.367171,15758
1659432438.405785,15761
1659432438.444398,15758
1659432438.486941,15767
1659432438.529484,15759
1659432438.568098,15688
1659432438.606711,15625
1659432438.645324,15554
1659432438.68633,15503
1659432438.727335,15483
1659432438.76629,15472
1659432438.805245,15472
1659432438.8442,15467
1659432438.882472,15472
1659432438.920744,15457
1659432438.959015,15469
1659432439.001046,15486
1659432439.043076,15485
1659432439.08169,15501
1659432439.120303,15513
1659432439.158916,15527
1659432439.19753,15507
1659432439.236143,15459
1659432439.274757,15399
1659432439.315762,15370
1659432439.356767,15341
1659432439.396064,15323
1659432439.435361,15343
1659432439.474658,15359
1659432439.516688,15371
1659432439.558719,15373
1659432439.600749,15388
1659432439.64278,15435
1659432439.681735,15479
1659432439.72069,15507
1659432439.759645,15525
1659432439.804751,15546
1659432439.849857,15553
1659432439.894963,15579
1659432439.92828,15539
1659432439.961596,15510
1659432440.006361,15513
1659432440.051125,15517
1659432440.095889,15521
1659432440.128693,15548
1659432440.161498,15569
1659432440.205578,15576
1659432440.249659,15590
1659432440.29374,15596
1659432440.332012,15606
1659432440.370283,15616
1659432440.408555,15630
1659432440.450585,15628
1659432440.492616,15650
1659432440.531229,15663
1659432440.569843,15678
1659432440.608456,15627
1659432440.647411,15581
1659432440.686366,15576
1659432440.725322,15570
1659432440.766839,15576
1659432440.808357,15589
1659432440.847996,15606
1659432440.887634,15620
1659432440.927273,15621
1659432440.968278,15634
1659432441.009284,15647
1659432441.04858,15661
1659432441.087877,15674
1659432441.127174,15686
1659432441.168179,15708
1659432441.209185,15710
1659432441.247798,15711
1659432441.286412,15727
1659432441.325025,15701
1659432441.36603,15649
1659432441.407036,15624
1659432441.445991,15612
1659432441.484946,15626
1659432441.523901,15624
1659432441.56764,15635
1659432441.611379,15653
1659432441.655118,15661
1659432441.696636,15665
1659432441.738154,15670
1659432441.777792,15691
1659432441.817431,15698
1659432441.857069,15721
1659432441.898075,15729
1659432441.93908,15733
1659432441.977694,15748
1659432442.016307,15745
1659432442.05492,15752
1659432442.094217,15748
1659432442.133514,15728
1659432442.172811,15685
1659432442.214329,15694
1659432442.255847,15694
1659432442.294802,15698
1659432442.333757,15710
1659432442.372712,15719
1659432442.41423,15717
1659432442.455748,15733
1659432442.49402,15745
1659432442.532291,15737
1659432442.570563,15756
1659432442.609518,15759
1659432442.648473,15768
1659432442.687428,15778
1659432442.729971,15773
1659432442.772514,15794
1659432442.811128,15784
1659432442.849741,15736
1659432442.888355,15719
1659432442.930385,15712
1659432442.972415,15714
1659432443.011712,15723
1659432443.051009,15741
1659432443.090306,15744
1659432443.132336,15764
1659432443.174367,15764
1659432443.218448,15755
1659432443.262528,15772
1659432443.306609,15786
1659432443.340439,15799
1659432443.374268,15818
1659432443.414248,15816
1659432443.454228,15819
1659432443.494209,15835
1659432443.534189,15844
1659432443.574169,15839
1659432443.615175,15787
1659432443.65618,15746
1659432443.695135,15721
1659432443.73409,15727
1659432443.773045,15711
1659432443.814563,15710
1659432443.856081,15724
1659432443.900504,15731
1659432443.944926,15746
1659432443.989348,15746
1659432444.022666,15755
1659432444.055982,15764
1659432444.100063,15779
1659432444.144144,15775
1659432444.188225,15783
1659432444.22718,15793
1659432444.266135,15788
1659432444.30509,15792
1659432444.34712,15802
1659432444.389151,15804
1659432444.427764,15797
1659432444.466377,15751
1659432444.504991,15721
1659432444.545996,15720
1659432444.587002,15725
1659432444.625615,15725
1659432444.664228,15748
1659432444.702842,15748
1659432444.741114,15756
1659432444.779385,15764
1659432444.817657,15766
1659432444.859175,15767
1659432444.900693,15779
1659432444.939648,15790
1659432444.978603,15802
1659432445.017558,15812
1659432445.059076,15810
1659432445.100594,15811
1659432445.139549,15815
1659432445.178504,15808
1659432445.217459,15780
1659432445.25949,15751
1659432445.30152,15760
1659432445.340817,15749
1659432445.380114,15770
1659432445.419411,15779
1659432445.460929,15798
1659432445.502446,15784
1659432445.540718,15794
1659432445.57899,15810
1659432445.617262,15813
1659432445.661684,15821
1659432445.706106,15837
1659432445.750529,15856
1659432445.784359,15870
1659432445.818188,15885
1659432445.86261,15885
1659432445.907033,15909
1659432445.951455,15901
1659432445.992461,15859
1659432446.033466,15829
1659432446.072421,15806
1659432446.111376,15799
1659432446.150331,15796
1659432446.189286,15798
1659432446.228241,15810
1659432446.267197,15819
1659432446.309227,15830
1659432446.351258,15836
1659432446.390213,15856
1659432446.429168,15855
1659432446.468123,15854
1659432446.506736,15863
1659432446.54535,15877
1659432446.583963,15879
1659432446.625993,15889
1659432446.668024,15893
1659432446.706979,15893
1659432446.745934,15902
1659432446.784889,15871
1659432446.825382,15841
1659432446.865875,15823
1659432446.905172,15812
1659432446.944468,15817
1659432446.983765,15827
1659432447.024258,15836
1659432447.064751,15835
1659432447.103706,15856
1659432447.142661,15856
1659432447.181616,15858
1659432447.223134,15868
1659432447.264652,15880
1659432447.303266,15882
1659432447.341879,15889
1659432447.380492,15901
1659432447.424573,15891
1659432447.468654,15908
1659432447.512735,15915
1659432447.554765,15898
1659432447.596796,15869
1659432447.636092,15839
1659432447.675389,15836
1659432447.714686,15831
1659432447.755691,15834
1659432447.796697,15856
1659432447.83531,15871
1659432447.873924,15894
1659432447.912537,15889
1659432447.950809,15893
1659432447.98908,15896
1659432448.027352,15932
1659432448.06887,15939
1659432448.110388,15938
1659432448.149343,15953
1659432448.188298,15972
1659432448.227253,15977
1659432448.265867,15997
1659432448.30448,15998
1659432448.343093,16004
1659432448.384099,15978
1659432448.425104,15931
1659432448.464401,15923
1659432448.503698,15920
1659432448.542994,15920
1659432448.585537,15930
1659432448.628081,15964
1659432448.666694,15993
1659432448.705307,16001
1659432448.743921,15995
1659432448.789026,15956
1659432448.834132,15962
1659432448.879238,15978
1659432448.917852,15991
1659432448.956465,16004
1659432448.995079,16040
1659432449.035571,16048
1659432449.076064,16080
1659432449.115019,16098
1659432449.153974,16093
1659432449.19293,16090
1659432449.235472,16055
1659432449.278016,16025
1659432449.316287,16001
1659432449.354559,16004
1659432449.392831,16004
1659432449.431786,16045
1659432449.470741,16066
1659432449.509696,16121
1659432449.551726,16169
1659432449.593757,16173
1659432449.632712,16181
1659432449.671667,16165
1659432449.710622,16144
1659432449.75214,16136
1659432449.793658,16128
1659432449.832955,16131
1659432449.872252,16155
1659432449.911548,16212
1659432449.952554,16226
1659432449.993559,16234
1659432450.032856,16224
1659432450.072153,16232
1659432450.111449,16235
1659432450.152455,16223
1659432450.19346,16219
1659432450.232415,16213
1659432450.27137,16189
1659432450.310326,16192
1659432450.354065,16267
1659432450.397804,16276
1659432450.441543,16262
1659432450.483061,16268
1659432450.524579,16303
1659432450.563534,16309
1659432450.602489,16286
1659432450.641444,16274
1659432450.680057,16249
1659432450.718671,16313
1659432450.757284,16323
1659432450.798802,16356
1659432450.84032,16348
1659432450.879617,16311
1659432450.918914,16259
1659432450.95821,16246
1659432450.999728,16241
1659432451.041246,16248
1659432451.080201,16246
1659432451.119156,16241
1659432451.158112,16263
1659432451.197067,16289
1659432451.236022,16264
1659432451.274977,16249
1659432451.31547,16271
1659432451.355963,16304
1659432451.394917,16327
1659432451.433873,16308
1659432451.472828,16275
1659432451.515371,16277
1659432451.557914,16295
1659432451.595844,16286
1659432451.633774,16256
1659432451.671704,16239
1659432451.713734,16241
1659432451.755765,16222
1659432451.800871,16220
1659432451.845977,16238
1659432451.891083,16288
1659432451.924399,16294
1659432451.957716,16288
1659432452.002139,16285
1659432452.046561,16295
1659432452.090984,16303
1659432452.1243,16302
1659432452.157617,16303
1659432452.201698,16296
1659432452.245779,16320
1659432452.28986,16312
1659432452.328131,16313
1659432452.366403,16279
1659432452.404675,16247
1659432452.44773,16243
1659432452.490786,16244
1659432452.529399,16258
1659432452.568013,16255
1659432452.606626,16247
1659432452.64524,16254
1659432452.683853,16286
1659432452.722466,16272
1659432452.764497,16256
1659432452.806527,16255
1659432452.845141,16258
1659432452.883754,16278
1659432452.922367,16302
1659432452.964398,16292
1659432453.006428,16286
1659432453.045725,16297
1659432453.085022,16307
1659432453.124319,16294
1659432453.165837,16262
1659432453.207355,16240
1659432453.245626,16227
1659432453.283898,16228
1659432453.32217,16244
1659432453.364713,16272
1659432453.407256,16313
1659432453.445528,16318
1659432453.483799,16304
1659432453.522071,16294
1659432453.56581,16292
1659432453.609549,16327
1659432453.653288,16362
1659432453.686092,16359
1659432453.718897,16378
1659432453.762977,16414
1659432453.807058,16440
1659432453.851139,16391
1659432453.888556,16334
1659432453.925974,16317
1659432453.963391,16339
1659432454.000808,16349
1659432454.043352,16353
1659432454.085895,16386
1659432454.12485,16414
1659432454.163805,16428
1659432454.20276,16439
1659432454.243765,16449
1659432454.284771,16433
1659432454.324068,16430
1659432454.363364,16425
1659432454.402661,16439
1659432454.444692,16483
1659432454.486722,16517
1659432454.525336,16518
1659432454.563949,16547
1659432454.602562,16569
1659432454.646985,16631
1659432454.691407,16623
1659432454.73583,16699
1659432454.776835,16814
1659432454.81784,16866
1659432454.856112,16837
1659432454.894384,16742
1659432454.932655,16594
1659432454.971952,16369
1659432455.011249,16116
1659432455.050546,16018
1659432455.092576,16056
1659432455.134607,16109
1659432455.173562,16166
1659432455.212517,16226
1659432455.251472,16255
1659432455.29299,16340
1659432455.334508,16455
1659432455.374146,16500
1659432455.413785,16469
1659432455.453424,16443
1659432455.494429,16471
1659432455.535434,16540
1659432455.574048,16588
1659432455.612661,16612
1659432455.651274,16626
1659432455.690571,16656
1659432455.729868,16698
1659432455.769165,16739
1659432455.809658,16760
1659432455.850151,16743
1659432455.889106,16703
1659432455.928061,16641
1659432455.967016,16577
1659432456.009046,16538
1659432456.051077,16573
1659432456.095158,16623
1659432456.139238,16651
1659432456.183319,16645
1659432456.216123,16649
1659432456.248928,16652
1659432456.293692,16657
1659432456.338456,16702
1659432456.38322,16746
1659432456.41705,16745
1659432456.450879,16740
1659432456.49496,16755
1659432456.539041,16804
1659432456.583121,16871
1659432456.622077,16923
1659432456.661032,16940
1659432456.699987,16905
1659432456.740992,16885
1659432456.781997,16887
1659432456.820611,16903
1659432456.859224,16939
1659432456.897838,16938
1659432456.937135,16937
1659432456.976431,16952
1659432457.015728,16964
1659432457.056733,16990
1659432457.097739,16999
1659432457.135669,17038
1659432457.173599,17118
1659432457.211529,17155
1659432457.254072,17127
1659432457.296615,17098
1659432457.33557,17084
1659432457.374525,17150
1659432457.41348,17225
1659432457.452093,17245
1659432457.490707,17231
1659432457.52932,17200
1659432457.571351,17208
1659432457.613381,17211
1659432457.655412,17213
1659432457.697442,17254
1659432457.736056,17316
1659432457.774669,17321
1659432457.813282,17313
1659432457.858047,17279
1659432457.902811,17253
1659432457.947575,17248
1659432457.979867,17224
1659432458.012158,17212
1659432458.055897,17217
1659432458.099637,17213
1659432458.143376,17233
1659432458.182331,17230
1659432458.221286,17269
1659432458.260241,17316
1659432458.302784,17349
1659432458.345327,17362
1659432458.38394,17359
1659432458.422554,17343
1659432458.461167,17308
1659432458.503198,17326
1659432458.545228,17339
1659432458.584525,17347
1659432458.623822,17326
1659432458.663119,17332
1659432458.704637,17327
1659432458.746155,17341
1659432458.78511,17384
1659432458.824065,17429
1659432458.86302,17515
1659432458.901975,17527
1659432458.94093,17512
1659432458.979885,17483
1659432459.020378,17456
1659432459.060871,17457
1659432459.102645,17468
1659432459.144419,17483
1659432459.186193,17464
1659432459.227968,17449
1659432459.268973,17431
1659432459.309978,17424
1659432459.348933,17454
1659432459.387888,17470
1659432459.426843,17504
1659432459.467849,17540
1659432459.508854,17558
1659432459.547809,17558
1659432459.586764,17544
1659432459.62572,17521
1659432459.664333,17538
1659432459.702946,17546
1659432459.74156,17555
1659432459.78359,17559
1659432459.825621,17563
1659432459.864234,17515
1659432459.902848,17508
1659432459.941461,17512
1659432459.983491,17505
1659432460.025522,17562
1659432460.063793,17598
1659432460.102065,17605
1659432460.140337,17590
1659432460.179292,17583
1659432460.218247,17560
1659432460.257202,17557
1659432460.299233,17552
1659432460.341263,17538
1659432460.385002,17518
1659432460.428741,17504
1659432460.47248,17494
1659432460.505285,17502
1659432460.538089,17510
1659432460.582853,17528
1659432460.627617,17561
1659432460.672381,17586
1659432460.705698,17587
1659432460.739015,17597
1659432460.783779,17617
1659432460.828544,17633
1659432460.873308,17631
1659432460.907137,17636
1659432460.940967,17641
1659432460.985047,17616
1659432461.029128,17601
1659432461.073209,17612
1659432461.111822,17608
1659432461.150436,17606
1659432461.189049,17633
1659432461.232105,17667
1659432461.27516,17702
1659432461.31309,17667
1659432461.35102,17653
1659432461.38895,17676
1659432461.427905,17717
1659432461.466861,17718
1659432461.505816,17719
1659432461.547333,17735
1659432461.588851,17715
1659432461.627123,17677
1659432461.665395,17672
1659432461.703666,17649
1659432461.745697,17636
1659432461.787727,17667
1659432461.827366,17706
1659432461.867004,17704
1659432461.906643,17684
1659432461.948161,17662
1659432461.989679,17651
1659432462.028634,17623
1659432462.067589,17632
1659432462.106544,17631
1659432462.149087,17641
1659432462.19163,17651
1659432462.229902,17676
1659432462.268174,17700
1659432462.306445,17687
1659432462.350184,17690
1659432462.393924,17721
1659432462.437662,17746
1659432462.470979,17738
1659432462.504296,17761
1659432462.548377,17747
1659432462.592458,17734
1659432462.636539,17746
1659432462.678056,17781
1659432462.719574,17805
1659432462.758871,17778
1659432462.798168,17760
1659432462.837465,17753
1659432462.876078,17739
1659432462.914691,17778
1659432462.953305,17836
1659432462.99431,17851
1659432463.035316,17825
1659432463.074954,17806
1659432463.114593,17751
1659432463.154231,17768
1659432463.192845,17797
1659432463.231458,17795
1659432463.270072,17776
1659432463.311589,17751
1659432463.353107,17743
1659432463.392062,17766
1659432463.431017,17829
1659432463.469973,17875
1659432463.512003,17878
1659432463.554034,17815
1659432463.592305,17777
1659432463.630577,17745
1659432463.668849,17753
1659432463.710366,17730
1659432463.751884,17703
1659432463.790156,17684
1659432463.828428,17655
1659432463.866699,17641
1659432463.90873,17646
1659432463.95076,17673
1659432463.995525,17693
1659432464.040289,17702
1659432464.085053,17665
1659432464.12435,17649
1659432464.163647,17667
1659432464.202944,17681
1659432464.243949,17688
1659432464.284954,17705
1659432464.324251,17721
1659432464.363548,17750
1659432464.402845,17755
1659432464.440518,17749
1659432464.478192,17746
1659432464.515866,17761
1659432464.553539,17762
1659432464.594545,17771
1659432464.63555,17771
1659432464.679973,17791
1659432464.724395,17803
1659432464.768817,17794
1659432464.803159,17821
1659432464.837502,17844
1659432464.881241,17826
1659432464.92498,17785
1659432464.968719,17754
1659432465.008015,17729
1659432465.047312,17744
1659432465.086609,17752
1659432465.128127,17788
1659432465.169645,17823
1659432465.2086,17810
1659432465.247555,17785
1659432465.28651,17754
1659432465.328028,17705
1659432465.369546,17696
1659432465.408159,17697
1659432465.446773,17671
1659432465.485386,17634
1659432465.524,17599
1659432465.562613,17575
1659432465.601226,17590
1659432465.643257,17636
1659432465.685287,17717
1659432465.723901,17782
1659432465.762514,17777
1659432465.801128,17775
1659432465.842133,17795
1659432465.883138,17783
1659432465.921068,17772
1659432465.958998,17804
1659432465.996928,17787
1659432466.036567,17760
1659432466.076205,17751
1659432466.115844,17778
1659432466.157362,17790
1659432466.19888,17809
1659432466.239885,17831
1659432466.28089,17847
1659432466.320529,17865
1659432466.360168,17837
1659432466.399806,17812
1659432466.444228,17801
1659432466.488651,17785
1659432466.533073,17775
1659432466.565878,17789
1659432466.598682,17795
1659432466.643788,17756
1659432466.688894,17741
1659432466.734,17742
1659432466.766804,17744
1659432466.799608,17749
1659432466.843347,17815
1659432466.887086,17830
1659432466.930825,17765
1659432466.96978,17735
1659432467.008736,17743
1659432467.047691,17746
1659432467.089721,17737
1659432467.131752,17727
1659432467.169682,17710
1659432467.207612,17715
1659432467.245542,17753
1659432467.28518,17762
1659432467.324819,17757
1659432467.364457,17733
1659432467.405975,17716
1659432467.447493,17713
1659432467.486448,17699
1659432467.525403,17690
1659432467.564358,17695
1659432467.606901,17696
1659432467.649444,17697
1659432467.688741,17701
1659432467.728038,17740
1659432467.767335,17716
1659432467.807828,17706
1659432467.84832,17701
1659432467.887275,17707
1659432467.926231,17729
1659432467.965186,17734
1659432468.007729,17681
1659432468.050272,17628
1659432468.088544,17606
1659432468.126815,17579
1659432468.165087,17588
1659432468.20558,17572
1659432468.246073,17575
1659432468.291178,17572
1659432468.336284,17549
1659432468.38139,17536
1659432468.419662,17524
1659432468.457934,17511
1659432468.496205,17492
1659432468.538748,17512
1659432468.581291,17532
1659432468.619905,17523
1659432468.658518,17490
1659432468.697132,17451
1659432468.735745,17426
1659432468.774358,17438
1659432468.812972,17438
1659432468.853977,17432
1659432468.894982,17445
1659432468.934621,17438
1659432468.974259,17447
1659432469.013898,17449
1659432469.054391,17459
1659432469.094884,17463
1659432469.133497,17457
1659432469.17211,17476
1659432469.210724,17495
1659432469.248995,17489
1659432469.287267,17476
1659432469.325539,17470
1659432469.368082,17473
1659432469.410625,17465
1659432469.449238,17452
1659432469.487852,17454
1659432469.526465,17446
1659432469.56747,17436
1659432469.608476,17420
1659432469.65025,17409
1659432469.692024,17413
1659432469.733799,17403
1659432469.775573,17410
1659432469.816578,17413
1659432469.857583,17411
1659432469.896538,17411
1659432469.935493,17407
1659432469.974449,17407
1659432470.013404,17415
1659432470.052359,17416
1659432470.091314,17408
1659432470.132832,17429
1659432470.17435,17431
1659432470.213305,17417
1659432470.25226,17431
1659432470.291215,17422
1659432470.332733,17414
1659432470.374251,17405
1659432470.412864,17418
1659432470.451478,17421
1659432470.490091,17439
1659432470.532122,17450
1659432470.574152,17449
1659432470.613791,17456
1659432470.653429,17459
1659432470.693068,17458
1659432470.734073,17464
1659432470.775079,17476
1659432470.814034,17495
1659432470.852989,17534
1659432470.891944,17563
1659432470.934999,17576
1659432470.978055,17597
1659432471.016327,17600
1659432471.054598,17574
1659432471.09287,17530
1659432471.136951,17522
1659432471.181031,17523
1659432471.225112,17511
1659432471.266118,17507
1659432471.307123,17520
1659432471.345737,17526
1659432471.38435,17531
1659432471.422963,17577
1659432471.461918,17573
1659432471.500873,17562
1659432471.539829,17557
1659432471.581859,17555
1659432471.623889,17584
1659432471.662503,17606
1659432471.701116,17632
1659432471.73973,17631
1659432471.780735,17621
1659432471.82174,17565
1659432471.861721,17539
1659432471.901701,17536
1659432471.941681,17540
1659432471.979953,17541
1659432472.018224,17579
1659432472.056496,17585
1659432472.098014,17562
1659432472.139532,17519
1659432472.178145,17492
1659432472.216759,17469
1659432472.255372,17445
1659432472.297403,17446
1659432472.339433,17440
1659432472.377705,17488
1659432472.415977,17501
1659432472.454248,17482
1659432472.495766,17474
1659432472.537284,17472
1659432472.581365,17461
1659432472.625446,17455
1659432472.669526,17452
1659432472.707798,17431
1659432472.74607,17440
1659432472.784341,17425
1659432472.827397,17393
1659432472.870453,17366
1659432472.909066,17378
1659432472.947679,17398
1659432472.986293,17384
1659432473.027298,17379
1659432473.068304,17402
1659432473.107942,17422
1659432473.147581,17406
1659432473.187219,17394
1659432473.229249,17393
1659432473.27128,17374
1659432473.310235,17368
1659432473.34919,17375
1659432473.388145,17387
1659432473.4271,17379
1659432473.466056,17409
1659432473.505011,17360
1659432473.546529,17335
1659432473.588047,17319
1659432473.626318,17363
1659432473.66459,17418
1659432473.702862,17430
1659432473.741817,17447
1659432473.780772,17436
1659432473.819727,17412
1659432473.861757,17407
1659432473.903788,17403
1659432473.942743,17400
1659432473.981698,17422
1659432474.020653,17394
1659432474.062171,17394
1659432474.103689,17378
1659432474.146232,17374
1659432474.188775,17385
1659432474.22773,17399
1659432474.266685,17400
1659432474.30564,17376
1659432474.350063,17347
1659432474.394485,17339
1659432474.438908,17334
1659432474.471712,17321
1659432474.504516,17342
1659432474.548597,17343
1659432474.592678,17334
1659432474.636759,17330
1659432474.675372,17319
1659432474.713985,17344
1659432474.752599,17334
1659432474.795142,17310
1659432474.837685,17301
1659432474.875957,17294
1659432474.914228,17294
1659432474.9525,17311
1659432474.994018,17319
1659432475.035536,17299
1659432475.074149,17306
1659432475.112763,17306
1659432475.151376,17295
1659432475.191015,17286
1659432475.230653,17298
1659432475.270292,17293
1659432475.311297,17305
1659432475.352302,17337
1659432475.390916,17332
1659432475.429529,17327
1659432475.468143,17332
1659432475.50966,17354
1659432475.551178,17360
1659432475.589792,17375
1659432475.628405,17366
1659432475.667019,17363
1659432475.708024,17379
1659432475.749029,17402
1659432475.788326,17406
1659432475.827623,17390
1659432475.86692,17364
1659432475.910659,17336
1659432475.954398,17314
1659432475.998137,17274
1659432476.031966,17261
1659432476.065796,17236
1659432476.11056,17216
1659432476.155324,17214
1659432476.200088,17196
1659432476.238702,17196
1659432476.277315,17185
1659432476.315928,17190
1659432476.357446,17182
1659432476.398964,17192
1659432476.438603,17187
1659432476.478241,17171
1659432476.51788,17182
1659432476.556152,17189
1659432476.594423,17188
1659432476.632695,17139
1659432476.675238,17106
1659432476.717781,17066
1659432476.756736,17060
1659432476.795691,17020
1659432476.834646,17032
1659432476.875652,17032
1659432476.916657,17028
1659432476.955271,17007
1659432476.993884,16982
1659432477.032497,17013
1659432477.074528,17057
1659432477.116558,17107
1659432477.15483,17098
1659432477.193102,17086
1659432477.231373,17056
1659432477.273404,17030
1659432477.315434,17024
1659432477.354389,16953
1659432477.393344,16841
1659432477.4323,16712
1659432477.476722,16605
1659432477.521144,16542
1659432477.565567,16491
1659432477.598884,16462
1659432477.632201,16409
1659432477.677307,16370
1659432477.722413,16319
1659432477.767518,16290
1659432477.805448,16264
1659432477.843378,16250
1659432477.881308,16252
1659432477.919922,16251
1659432477.958535,16246
1659432477.997149,16225
1659432478.035762,16223
1659432478.074375,16205
1659432478.112988,16201
1659432478.154506,16196
1659432478.196024,16124
1659432478.234638,16063
1659432478.273251,16089
1659432478.311865,16109
1659432478.353895,16095
1659432478.395926,16083
1659432478.440006,16068
1659432478.484087,16026
1659432478.528168,15985
1659432478.566781,15959
1659432478.605395,15953
1659432478.644008,15950
1659432478.686551,15952
1659432478.729094,15974
1659432478.767366,15986
1659432478.805638,16000
1659432478.843909,16015
1659432478.885427,16026
1659432478.926945,16049
1659432478.9659,16052
1659432479.004855,16019
1659432479.04381,15929
1659432479.082424,15849
1659432479.121037,15790
1659432479.159651,15762
1659432479.201169,15746
1659432479.242687,15737
1659432479.281641,15748
1659432479.320597,15750
1659432479.359552,15745
1659432479.40107,15755
1659432479.442588,15764
1659432479.481543,15775
1659432479.520498,15783
1659432479.559453,15811
1659432479.59875,15833
1659432479.638047,15859
1659432479.677343,15870
1659432479.719886,15891
1659432479.762429,15906
1659432479.803435,15846
1659432479.84444,15773
1659432479.883054,15729
1659432479.921667,15723
1659432479.96028,15703
1659432480.004703,15713
1659432480.049125,15718
1659432480.093548,15724
1659432480.127377,15744
1659432480.161206,15734
1659432480.200982,15739
1659432480.240757,15758
1659432480.280532,15768
1659432480.320307,15784
1659432480.360083,15826
1659432480.401344,15839
1659432480.442606,15852
1659432480.483868,15877
1659432480.525129,15893
1659432480.566647,15908
1659432480.608165,15917
1659432480.647804,15852
1659432480.687442,15788
1659432480.727081,15753
1659432480.765352,15742
1659432480.803624,15715
1659432480.841896,15728
1659432480.883414,15741
1659432480.924932,15766
1659432480.96457,15752
1659432481.004209,15759
1659432481.043847,15764
1659432481.085365,15791
1659432481.126883,15807
1659432481.165496,15815
1659432481.20411,15842
1659432481.242723,15864
1659432481.284241,15891
1659432481.325759,15899
1659432481.369498,15907
1659432481.413237,15945
1659432481.456976,15955
1659432481.48978,15932
1659432481.522585,15871
1659432481.567349,15846
1659432481.612113,15825
1659432481.656877,15820
1659432481.695491,15815
1659432481.734104,15838
1659432481.772717,15864
1659432481.813723,15871
1659432481.854728,15918
1659432481.894367,15970
1659432481.934005,16032
1659432481.973644,16051
1659432482.015674,16101
1659432482.057705,16148
1659432482.095976,16204
1659432482.134248,16244
1659432482.17252,16275
1659432482.211817,16319
1659432482.251113,16353
1659432482.29041,16354
1659432482.331416,16356
1659432482.372421,16357
1659432482.411034,16361
1659432482.449648,16364
1659432482.488261,16365
1659432482.530804,16380
1659432482.573347,16381
1659432482.611961,16381
1659432482.650574,16391
1659432482.689187,16434
1659432482.730193,16494
1659432482.771198,16507
1659432482.810495,16529
1659432482.849792,16544
1659432482.889089,16565
1659432482.931119,16594
1659432482.97315,16600
1659432483.011763,16620
1659432483.050376,16629
1659432483.08899,16602
1659432483.133754,16579
1659432483.178518,16588
1659432483.223282,16609
1659432483.256087,16623
1659432483.288891,16638
1659432483.332972,16653
1659432483.377052,16642
1659432483.421133,16633
1659432483.460088,16640
1659432483.499043,16638
1659432483.537998,16669
1659432483.580542,16690
1659432483.623085,16730
1659432483.661356,16728
1659432483.699628,16719
1659432483.7379,16727
1659432483.776513,16749
1659432483.815126,16754
1659432483.85374,16776
1659432483.89577,16815
1659432483.937801,16806
1659432483.976756,16805
1659432484.015711,16774
1659432484.054666,16742
1659432484.096184,16728
1659432484.137702,16748
1659432484.176657,16765
1659432484.215612,16759
1659432484.254567,16779
1659432484.296085,16823
1659432484.337603,16823
1659432484.376558,16851
1659432484.415513,16886
1659432484.454468,16940
1659432484.495474,16946
1659432484.536479,16960
1659432484.575093,16986
1659432484.613706,16993
1659432484.652319,16966
1659432484.696058,16965
1659432484.739797,16974
1659432484.783536,16912
1659432484.817366,16879
1659432484.851195,16854
1659432484.895618,16857
1659432484.94004,16891
1659432484.984463,16916
1659432485.025468,16940
1659432485.066473,16945
1659432485.10577,16945
1659432485.145067,16901
1659432485.184364,16867
1659432485.223661,16847
1659432485.262958,16848
1659432485.302254,16815
1659432485.343772,16800
1659432485.38529,16790
1659432485.424416,16784
1659432485.463542,16795
1659432485.502668,16825
1659432485.541794,16847
1659432485.58092,16874
1659432485.620046,16891
1659432485.663785,16875
1659432485.707524,16883
1659432485.751263,16894
1659432485.78458,16906
1659432485.817897,16954
1659432485.862319,16986
1659432485.906742,16968
1659432485.951164,16982
1659432485.989778,17023
1659432486.028391,17035
1659432486.067004,17021
1659432486.109035,17044
1659432486.151065,17070
1659432486.190362,17054
1659432486.229659,17039
1659432486.268956,17069
1659432486.309961,17119
1659432486.350966,17145
1659432486.390263,17113
1659432486.42956,17098
1659432486.468857,17051
1659432486.508154,17039
1659432486.547451,17053
1659432486.586747,17052
1659432486.62724,17062
1659432486.667733,17075
1659432486.706688,17080
1659432486.745643,17089
1659432486.784598,17091
1659432486.826116,17068
1659432486.867634,17070
1659432486.906248,17069
1659432486.944861,17106
1659432486.983474,17149
1659432487.024992,17153
1659432487.06651,17112
1659432487.105124,17112
1659432487.143737,17129
1659432487.18235,17139
1659432487.223356,17161
1659432487.264361,17179
1659432487.303316,17179
1659432487.342271,17177
1659432487.381226,17180
1659432487.426332,17190
1659432487.471438,17202
1659432487.516544,17212
1659432487.548836,17216
1659432487.581127,17254
1659432487.625892,17247
1659432487.670656,17253
1659432487.71542,17307
1659432487.756938,17393
1659432487.798456,17509
1659432487.837411,17596
1659432487.876366,17602
1659432487.915321,17593
1659432487.953593,17581
1659432487.991865,17541
1659432488.030136,17521
1659432488.071654,17493
1659432488.113172,17486
1659432488.151444,17508
1659432488.189715,17482
1659432488.227987,17425
1659432488.266942,17410
1659432488.305897,17425
1659432488.344852,17452
1659432488.387395,17481
1659432488.429939,17468
1659432488.468894,17450
1659432488.507849,17439
1659432488.546804,17431
1659432488.587809,17401
1659432488.628815,17369
1659432488.66777,17329
1659432488.706725,17321
1659432488.74568,17313
1659432488.78771,17301
1659432488.829741,17295
1659432488.868354,17308
1659432488.906968,17308
1659432488.945581,17318
1659432488.990004,17317
1659432489.034426,17300
1659432489.078848,17293
1659432489.112165,17314
1659432489.145482,17317
1659432489.189221,17304
1659432489.23296,17275
1659432489.276699,17270
1659432489.319242,17309
1659432489.361785,17335
1659432489.400741,17322
1659432489.439696,17260
1659432489.478651,17208
1659432489.517606,17186
1659432489.556561,17205
1659432489.595516,17189
1659432489.637034,17191
1659432489.678552,17178
1659432489.717849,17158
1659432489.757146,17160
1659432489.796442,17168
1659432489.83796,17172
1659432489.879478,17168
1659432489.918092,17210
1659432489.956705,17230
1659432489.995318,17221
1659432490.034273,17239
1659432490.073229,17248
1659432490.112184,17230
1659432490.152677,17255
1659432490.193169,17267
1659432490.231783,17251
1659432490.270396,17207
1659432490.309009,17194
1659432490.35104,17208
1659432490.39307,17213
1659432490.431,17199
1659432490.46893,17203
1659432490.50686,17198
1659432490.547866,17218
1659432490.588871,17249
1659432490.630902,17260
1659432490.672932,17270
1659432490.714962,17292
1659432490.756993,17317
1659432490.799024,17306
1659432490.841054,17292
1659432490.878215,17273
1659432490.915376,17269
1659432490.952537,17293
1659432490.989698,17299
1659432491.032242,17294
1659432491.074785,17277
1659432491.112715,17250
1659432491.150645,17254
1659432491.188575,17282
1659432491.22958,17322
1659432491.270585,17356
1659432491.313641,17359
1659432491.356697,17328
1659432491.394968,17306
1659432491.43324,17275
1659432491.471512,17260
1659432491.515592,17267
1659432491.559673,17290
1659432491.603754,17269
1659432491.637583,17269
1659432491.671413,17272
1659432491.715835,17284
1659432491.760258,17293
1659432491.80468,17320
1659432491.843293,17361
1659432491.881907,17405
1659432491.92052,17395
1659432491.963576,17358
1659432492.006632,17312
1659432492.045245,17302
1659432492.083858,17316
1659432492.122472,17320
1659432492.162965,17332
1659432492.203457,17336
1659432492.242754,17345
1659432492.282051,17361
1659432492.321348,17368
1659432492.360303,17385
1659432492.399258,17419
1659432492.438213,17448
1659432492.479218,17436
1659432492.520224,17422
1659432492.559179,17397
1659432492.598134,17379
1659432492.637089,17375
1659432492.67912,17385
1659432492.72115,17403
1659432492.760105,17376
1659432492.79906,17398
1659432492.838015,17388
1659432492.880046,17387
1659432492.922076,17422
1659432492.961031,17413
1659432492.999987,17401
1659432493.038942,17409
1659432493.08046,17416
1659432493.121978,17404
1659432493.160933,17412
1659432493.199888,17410
1659432493.238843,17396
1659432493.280361,17372
1659432493.321879,17353
1659432493.36015,17366
1659432493.398422,17380
1659432493.436694,17402
1659432493.480774,17440
1659432493.524855,17475
1659432493.568936,17485
1659432493.609941,17469
1659432493.650947,17438
1659432493.689902,17407
1659432493.728857,17422
1659432493.767812,17436
1659432493.806425,17408
1659432493.845039,17378
1659432493.883652,17330
1659432493.925683,17315
1659432493.967713,17320
1659432494.006327,17338
1659432494.04494,17347
1659432494.083553,17381
1659432494.125584,17397
1659432494.167614,17405
1659432494.206569,17386
1659432494.245524,17391
1659432494.28448,17409
1659432494.323776,17427
1659432494.363073,17429
1659432494.40237,17436
1659432494.442863,17440
1659432494.483356,17426
1659432494.521969,17386
1659432494.560582,17379
1659432494.599196,17400
1659432494.641739,17439
1659432494.684282,17470
1659432494.722553,17452
1659432494.760825,17449
1659432494.799097,17436
1659432494.840102,17442
1659432494.881108,17480
1659432494.925872,17471
1659432494.970636,17447
1659432495.0154,17447
1659432495.04923,17437
1659432495.083059,17427
1659432495.127823,17451
1659432495.172587,17450
1659432495.217352,17476
1659432495.256649,17503
1659432495.295945,17498
1659432495.335242,17480
1659432495.37676,17485
1659432495.418278,17494
1659432495.456891,17520
1659432495.495505,17551
1659432495.534118,17531
1659432495.577174,17524
1659432495.620229,17475
1659432495.658501,17439
1659432495.696773,17467
1659432495.735044,17535
1659432495.773658,17538
1659432495.812271,17515
1659432495.850885,17504
1659432495.892915,17483
1659432495.934946,17484
1659432495.976207,17507
1659432496.017469,17532
1659432496.058731,17552
1659432496.099992,17548
1659432496.139289,17472
1659432496.178586,17433
1659432496.217883,17423
1659432496.256154,17431
1659432496.294426,17474
1659432496.332698,17504
1659432496.374216,17503
1659432496.415734,17510
1659432496.45503,17508
1659432496.494327,17512
1659432496.533624,17560
1659432496.571896,17605
1659432496.610167,17584
1659432496.648439,17568
1659432496.688932,17549
1659432496.729424,17538
1659432496.76838,17512
1659432496.807335,17555
1659432496.84629,17610
1659432496.88832,17617
1659432496.930351,17596
1659432496.968622,17554
1659432497.006894,17512
1659432497.045166,17496
1659432497.086684,17510
1659432497.128202,17545
1659432497.172966,17575
1659432497.21773,17590
1659432497.262494,17550
1659432497.295299,17529
1659432497.328103,17506
1659432497.373209,17506
1659432497.418315,17497
1659432497.463421,17489
1659432497.502376,17461
1659432497.541331,17430
1659432497.580286,17376
1659432497.621291,17358
1659432497.662297,17407
1659432497.70091,17452
1659432497.739523,17458
1659432497.778137,17438
1659432497.82068,17419
1659432497.863223,17403
1659432497.901153,17411
1659432497.939083,17465
1659432497.977013,17508
1659432498.015968,17528
1659432498.054923,17519
1659432498.093878,17488
1659432498.135396,17438
1659432498.176914,17423
1659432498.216211,17449
1659432498.255507,17474
1659432498.294804,17490
1659432498.336322,17484
1659432498.37784,17467
1659432498.417137,17446
1659432498.456434,17445
1659432498.495731,17465
1659432498.537249,17463
1659432498.578767,17482
1659432498.618063,17507
1659432498.65736,17522
1659432498.696657,17504
1659432498.738688,17503
1659432498.780718,17506
1659432498.819331,17527
1659432498.857945,17557
1659432498.896558,17553
1659432498.940297,17493
1659432498.984036,17465
1659432499.027775,17478
1659432499.061605,17489
1659432499.095434,17504
1659432499.139515,17506
1659432499.183596,17515
1659432499.227676,17524
1659432499.268682,17514
1659432499.309687,17528
1659432499.348642,17532
1659432499.387597,17540
1659432499.426553,17548
1659432499.465508,17534
1659432499.504463,17506
1659432499.543418,17499
1659432499.584936,17501
1659432499.626454,17520
1659432499.665409,17552
1659432499.704364,17561
1659432499.743319,17556
1659432499.784837,17537
1659432499.826355,17526
1659432499.86531,17494
1659432499.904265,17461
1659432499.94322,17477
1659432499.981492,17496
1659432500.019763,17516
1659432500.058035,17486
1659432500.100578,17479
1659432500.143121,17477
1659432500.181393,17476
1659432500.219665,17481
1659432500.257936,17500
1659432500.301675,17503
1659432500.345414,17499
1659432500.389153,17512
1659432500.42247,17499
1659432500.455787,17473
1659432500.499868,17472
1659432500.543949,17475
1659432500.588029,17508
1659432500.626643,17542
1659432500.665256,17528
1659432500.70387,17462
1659432500.746925,17448
1659432500.789981,17459
1659432500.828594,17470
1659432500.867208,17492
1659432500.905821,17494
1659432500.947339,17507
1659432500.988857,17510
1659432501.028154,17491
1659432501.067451,17472
1659432501.106747,17483
1659432501.145702,17500
1659432501.184658,17504
1659432501.223613,17483
1659432501.265131,17459
1659432501.306648,17439
1659432501.348166,17437
1659432501.389684,17541
1659432501.432227,17658
1659432501.474771,17777
1659432501.5127,17870
1659432501.55063,17968
1659432501.58856,17965
1659432501.630591,17924
1659432501.672621,17879
1659432501.711918,17867
1659432501.751215,17873
1659432501.790512,17868
1659432501.828784,17843
1659432501.867055,17834
1659432501.905327,17796
1659432501.94787,17771
1659432501.990413,17784
1659432502.029026,17783
1659432502.06764,17801
1659432502.106253,17828
1659432502.146746,17851
1659432502.187239,17848
1659432502.225852,17841
1659432502.264466,17826
1659432502.303079,17809
1659432502.347843,17824
1659432502.392607,17839
1659432502.437371,17798
1659432502.470176,17789
1659432502.50298,17818
1659432502.547402,17857
1659432502.591825,17844
1659432502.636247,17812
1659432502.675203,17778
1659432502.714158,17791
1659432502.753113,17800
1659432502.794118,17827
1659432502.835124,17858
1659432502.87442,17841
1659432502.913717,17817
1659432502.953014,17782
1659432502.994532,17777
1659432503.03605,17816
1659432503.074663,17817
1659432503.113276,17775
1659432503.15189,17767
1659432503.190503,17769
1659432503.229117,17783
1659432503.26773,17788
1659432503.310273,17782
1659432503.352816,17771
1659432503.391088,17759
1659432503.42936,17762
1659432503.467631,17754
1659432503.508124,17775
1659432503.548617,17775
1659432503.587572,17757
1659432503.626527,17754
1659432503.665482,17772
1659432503.707,17777
1659432503.748518,17818
1659432503.787131,17806
1659432503.825745,17773
1659432503.864358,17731
1659432503.909464,17700
1659432503.95457,17689
1659432503.999676,17653
1659432504.032993,17651
1659432504.066309,17676
1659432504.110732,17701
1659432504.155154,17717
1659432504.199577,17731
1659432504.233407,17711
1659432504.267236,17658
1659432504.312,17596
1659432504.356764,17560
1659432504.401528,17572
1659432504.440142,17625
1659432504.478755,17666
1659432504.517369,17656
1659432504.558887,17652
1659432504.600405,17674
1659432504.639018,17691
1659432504.677631,17730
1659432504.716245,17732
1659432504.757762,17740
1659432504.79928,17754
1659432504.837894,17752
1659432504.876507,17741
1659432504.915121,17746
1659432504.954759,17743
1659432504.994398,17768
1659432505.034036,17770
1659432505.075042,17738
1659432505.116047,17703
1659432505.15466,17686
1659432505.193274,17682
1659432505.231887,17692
1659432505.274943,17713
1659432505.317998,17731
1659432505.356612,17757
1659432505.395225,17786
1659432505.433839,17792
1659432505.474331,17796
1659432505.514824,17768
1659432505.554121,17791
1659432505.593418,17805
1659432505.632715,17808
1659432505.674232,17777
1659432505.71575,17754
1659432505.759831,17753
1659432505.803912,17756
1659432505.847993,17768
1659432505.886606,17778
1659432505.92522,17792
1659432505.963833,17793
1659432506.005351,17805
1659432506.046869,17809
1659432506.08514,17812
1659432506.123412,17829
1659432506.161684,17831
1659432506.203714,17823
1659432506.245745,17826
1659432506.2847,17812
1659432506.323655,17807
1659432506.36261,17781
1659432506.400882,17799
1659432506.439153,17819
1659432506.477425,17836
1659432506.51802,17824
1659432506.558616,17849
1659432506.599211,17873
1659432506.639806,17907
1659432506.680402,17891
1659432506.719015,17888
1659432506.757628,17876
1659432506.796242,17865
1659432506.83776,17853
1659432506.879278,17819
1659432506.917891,17784
1659432506.956504,17770
1659432506.995118,17776
1659432507.036636,17788
1659432507.078154,17816
1659432507.122918,17826
1659432507.167682,17838
1659432507.212446,17843
1659432507.245763,17854
1659432507.27908,17874
1659432507.323161,17876
1659432507.367241,17883
1659432507.411322,17873
1659432507.445664,17874
1659432507.480006,17919
1659432507.52477,17922
1659432507.569535,17898
1659432507.614299,17834
1659432507.652912,17789
1659432507.691526,17771
1659432507.730139,17782
1659432507.771657,17808
1659432507.813175,17853
1659432507.851788,17888
1659432507.890402,17894
1659432507.929015,17906
1659432507.970533,17905
1659432508.012051,17913
1659432508.050664,17926
1659432508.089278,17951
1659432508.127891,17943
1659432508.166846,17919
1659432508.205801,17881
1659432508.244756,17863
1659432508.285762,17854
1659432508.326767,17861
1659432508.365722,17873
1659432508.404677,17901
1659432508.443632,17898
1659432508.486175,17906
1659432508.528718,17920
1659432508.567332,17880
1659432508.605945,17864
1659432508.644559,17824
1659432508.686077,17805
1659432508.727595,17832
1659432508.765866,17826
1659432508.804138,17795
1659432508.84241,17752
1659432508.884953,17738
1659432508.927496,17727
1659432508.965767,17743
1659432509.004039,17749
1659432509.042311,17773
1659432509.086733,17800
1659432509.131156,17804
1659432509.175578,17800
1659432509.208382,17780
1659432509.241187,17769
1659432509.284926,17781
1659432509.328665,17809
1659432509.372404,17795
1659432509.411701,17763
1659432509.450998,17738
1659432509.490294,17722
1659432509.531812,17710
1659432509.57333,17711
1659432509.612285,17708
1659432509.65124,17719
1659432509.690196,17738
1659432509.729151,17734
1659432509.768106,17707
1659432509.807061,17698
1659432509.848579,17718
1659432509.890097,17742
1659432509.929052,17740
1659432509.968007,17745
1659432510.006962,17740
1659432510.047967,17702
1659432510.088973,17697
1659432510.128269,17697
1659432510.167566,17694
1659432510.206863,17697
1659432510.247356,17717
1659432510.287849,17745
1659432510.327146,17775
1659432510.366442,17801
1659432510.405739,17775
1659432510.44777,17751
1659432510.4898,17738
1659432510.528414,17725
1659432510.567027,17736
1659432510.60564,17716
1659432510.650063,17701
1659432510.694485,17700
1659432510.738908,17695
1659432510.780938,17687
1659432510.822969,17714
1659432510.862266,17740
1659432510.901562,17745
1659432510.940859,17769
1659432510.982377,17773
1659432511.023895,17759
1659432511.06285,17745
1659432511.101805,17756
1659432511.14076,17739
1659432511.179032,17713
1659432511.217304,17693
1659432511.255575,17684
1659432511.297093,17674
1659432511.338611,17645
1659432511.377908,17645
1659432511.417205,17646
1659432511.456501,17677
1659432511.496994,17699
1659432511.537487,17739
1659432511.576101,17756
1659432511.614714,17767
1659432511.653327,17761
1659432511.692282,17773
1659432511.731237,17781
1659432511.770193,17780
1659432511.811711,17802
1659432511.853229,17802
1659432511.894746,17794
1659432511.936264,17754
1659432511.975219,17739
1659432512.014174,17712
1659432512.05313,17727
1659432512.09516,17746
1659432512.137191,17760
1659432512.175462,17768
1659432512.213734,17768
1659432512.252006,17765
1659432512.296087,17743
1659432512.340167,17715
1659432512.384248,17701
1659432512.417052,17698
1659432512.449857,17698
1659432512.493596,17664
1659432512.537335,17668
1659432512.581074,17650
1659432512.620371,17657
1659432512.659667,17690
1659432512.698964,17725
1659432512.740995,17751
1659432512.783025,17745
1659432512.821639,17734
1659432512.860252,17737
1659432512.898865,17740
1659432512.940896,17737
1659432512.982926,17755
1659432513.022223,17753
1659432513.06152,17746
1659432513.100817,17710
1659432513.13943,17675
1659432513.178044,17631
1659432513.216657,17622
1659432513.2592,17647
1659432513.301743,17643
1659432513.340356,17635
1659432513.37897,17644
1659432513.417583,17642
1659432513.459101,17645
1659432513.500619,17648
1659432513.542137,17660
1659432513.583655,17675
1659432513.625173,17666
1659432513.666691,17667
1659432513.704962,17685
1659432513.743234,17689
1659432513.781506,17672
1659432513.823536,17647
1659432513.865567,17644
1659432513.904522,17655
1659432513.943477,17695
1659432513.982432,17695
1659432514.021729,17695
1659432514.061026,17717
1659432514.100322,17727
1659432514.138936,17719
1659432514.177549,17715
1659432514.216163,17711
1659432514.257681,17695
1659432514.299199,17706
1659432514.341742,17695
1659432514.384285,17680
1659432514.422898,17675
1659432514.461511,17675
1659432514.500125,17682
1659432514.544206,17693
1659432514.588286,17659
1659432514.632367,17627
1659432514.665684,17630
1659432514.699001,17639
1659432514.74274,17642
1659432514.786479,17649
1659432514.830218,17656
1659432514.863535,17701
1659432514.896852,17708
1659432514.941616,17666
1659432514.98638,17637
1659432515.031144,17625
1659432515.070099,17640
1659432515.109055,17642
1659432515.14801,17656
1659432515.186281,17662
1659432515.224553,17673
1659432515.262825,17658
1659432515.305368,17664
1659432515.347911,17668
1659432515.386524,17653
1659432515.425138,17637
1659432515.463751,17660
1659432515.504244,17679
1659432515.544737,17696
1659432515.584033,17679
1659432515.62333,17657
1659432515.662627,17633
1659432515.703632,17617
1659432515.744638,17598
1659432515.783251,17594
1659432515.821864,17619
1659432515.860478,17617
1659432515.902508,17649
1659432515.944539,17643
1659432515.983494,17628
1659432516.022449,17626
1659432516.061404,17654
1659432516.105827,17658
1659432516.150249,17653
1659432516.194672,17658
1659432516.229013,17642
1659432516.263355,17633
1659432516.30812,17601
1659432516.352884,17607
1659432516.397648,17623
1659432516.438653,17620
1659432516.479659,17634
1659432516.518956,17637
1659432516.558253,17640
1659432516.597549,17625
1659432516.636163,17620
1659432516.674776,17620
1659432516.713389,17645
1659432516.754907,17662
1659432516.796425,17648
1659432516.83538,17653
1659432516.874336,17639
1659432516.913291,17650
1659432516.954808,17644
1659432516.996326,17628
1659432517.036102,17621
1659432517.075877,17646
1659432517.115652,17665
1659432517.155427,17694
1659432517.195203,17685
1659432517.234499,17672
1659432517.273796,17644
1659432517.313093,17631
1659432517.351706,17624
1659432517.39032,17619
1659432517.428933,17642
1659432517.470451,17647
1659432517.511969,17657
1659432517.551266,17656
1659432517.590563,17642
1659432517.629859,17619
1659432517.671377,17613
1659432517.712895,17591
1659432517.751509,17595
1659432517.790122,17635
1659432517.828735,17640
1659432517.870253,17666
1659432517.911771,17647
1659432517.95551,17600
1659432517.999249,17581
1659432518.042988,17585
1659432518.076305,17593
1659432518.109622,17592
1659432518.154045,17602
1659432518.198467,17602
1659432518.24289,17598
1659432518.281503,17556
1659432518.320116,17523
1659432518.35873,17517
1659432518.400248,17526
1659432518.441766,17536
1659432518.481062,17553
1659432518.520359,17579
1659432518.559656,17576
1659432518.601686,17565
1659432518.643717,17541
1659432518.68233,17510
1659432518.720944,17523
1659432518.759557,17532
1659432518.798512,17534
1659432518.837467,17526
1659432518.876422,17501
1659432518.917428,17471
1659432518.958433,17439
1659432518.997046,17428
1659432519.03566,17437
1659432519.074273,17474
1659432519.116304,17489
1659432519.158334,17505
1659432519.197289,17514
1659432519.236244,17488
1659432519.2752,17467
1659432519.316718,17487
1659432519.358236,17500
1659432519.396849,17493
1659432519.435462,17481
1659432519.474076,17486
1659432519.516106,17455
1659432519.558137,17442
1659432519.597092,17440
1659432519.636047,17464
1659432519.675002,17492
1659432519.719424,17527
1659432519.763847,17570
1659432519.80827,17606
1659432519.842099,17618
1659432519.875928,17563
1659432519.920009,17536
1659432519.96409,17562
1659432520.008171,17594
1659432520.050201,17609
1659432520.092232,17624
1659432520.131187,17615
1659432520.170142,17599
1659432520.209097,17566
1659432520.24771,17538
1659432520.286324,17517
1659432520.324937,17531
1659432520.365942,17581
1659432520.406948,17613
1659432520.446586,17633
1659432520.486225,17635
1659432520.525863,17593
1659432520.567381,17567
1659432520.608899,17564
1659432520.647171,17579
1659432520.685442,17616
1659432520.723714,17632
1659432520.763353,17624
1659432520.802991,17621
1659432520.84263,17591
1659432520.884148,17561
1659432520.925666,17545
1659432520.963937,17543
1659432521.002209,17568
1659432521.040481,17596
1659432521.081999,17634
1659432521.123517,17627
1659432521.161788,17625
1659432521.20006,17579
1659432521.238332,17582
1659432521.27985,17572
1659432521.321368,17587
1659432521.36579,17600
1659432521.410212,17630
1659432521.454635,17612
1659432521.49359,17598
1659432521.532545,17594
1659432521.5715,17606
1659432521.609772,17604
1659432521.648043,17626
1659432521.686315,17664
1659432521.728346,17696
1659432521.770376,17709
1659432521.809331,17721
1659432521.848286,17687
1659432521.887241,17672
1659432521.925855,17662
1659432521.964468,17664
1659432522.003082,17664
1659432522.045625,17666
1659432522.088168,17661
1659432522.126781,17662
1659432522.165395,17677
1659432522.204008,17668
1659432522.243578,17679
1659432522.283148,17682
1659432522.322718,17671
1659432522.362288,17677
1659432522.401859,17697
1659432522.443377,17711
1659432522.484895,17695
1659432522.526412,17719
1659432522.56793,17730
1659432522.606886,17748
1659432522.645841,17755
1659432522.684796,17737
1659432522.727339,17708
1659432522.769882,17671
1659432522.808495,17646
1659432522.847109,17640
1659432522.885722,17625
1659432522.92724,17640
1659432522.968758,17669
1659432523.008055,17680
1659432523.047352,17690
1659432523.086648,17713
1659432523.128679,17725
1659432523.170709,17728
1659432523.209323,17739
1659432523.247936,17760
1659432523.28655,17779
1659432523.327555,17787
1659432523.36856,17793
1659432523.407515,17765
1659432523.44647,17758
1659432523.485425,17751
1659432523.529165,17756
1659432523.572904,17757
1659432523.616643,17764
1659432523.659186,17769
1659432523.701729,17794
1659432523.74,17789
1659432523.778272,17778
1659432523.816544,17782
1659432523.858062,17809
1659432523.89958,17809
1659432523.938193,17803
1659432523.976806,17771
1659432524.01542,17714
1659432524.054375,17674
1659432524.09333,17641
1659432524.132285,17638
1659432524.174316,17643
1659432524.216346,17660
1659432524.255301,17660
1659432524.294256,17641
1659432524.333211,17623
1659432524.371825,17654
1659432524.410438,17658
1659432524.449052,17659
1659432524.490057,17694
1659432524.531062,17724
1659432524.569676,17743
1659432524.608289,17752
1659432524.646903,17717
1659432524.688933,17690
1659432524.730963,17665
1659432524.769235,17680
1659432524.807507,17678
1659432524.845778,17642
1659432524.886784,17578
1659432524.927789,17553
1659432524.972553,17585
1659432525.017318,17629
1659432525.062082,17658
1659432525.10172,17666
1659432525.141359,17673
1659432525.180997,17681
1659432525.222003,17711
1659432525.263008,17704
1659432525.301963,17680
1659432525.340918,17669
1659432525.379874,17641
1659432525.418487,17622
1659432525.4571,17608
1659432525.495714,17593
1659432525.537744,17574
1659432525.579775,17570
1659432525.61873,17560
1659432525.657685,17578
1659432525.69664,17561
1659432525.738158,17562
1659432525.779676,17570
1659432525.817606,17589
1659432525.855536,17611
1659432525.893466,17624
1659432525.933104,17617
1659432525.972743,17590
1659432526.012381,17582
1659432526.054412,17569
1659432526.096442,17573
1659432526.135056,17596
1659432526.173669,17613
1659432526.212282,17647
1659432526.254313,17671
1659432526.296343,17645
1659432526.33564,17625
1659432526.374937,17637
1659432526.414234,17666
1659432526.455752,17688
1659432526.49727,17687
1659432526.541692,17670
1659432526.586115,17646
1659432526.630537,17642
1659432526.663854,17626
1659432526.697171,17631
1659432526.74091,17647
1659432526.784649,17675
1659432526.828388,17707
1659432526.867001,17717
1659432526.905615,17716
1659432526.944228,17720
1659432526.986259,17709
1659432527.028289,17701
1659432527.066219,17713
1659432527.104149,17723
1659432527.142079,17720
1659432527.181034,17740
1659432527.219989,17739
1659432527.258944,17720
1659432527.300462,17704
1659432527.34198,17694
1659432527.380594,17680
1659432527.419207,17685
1659432527.45782,17676
1659432527.498211,17699
1659432527.538601,17724
1659432527.578991,17739
1659432527.619381,17751
1659432527.659772,17770
1659432527.698043,17777
1659432527.736315,17804
1659432527.774587,17788
1659432527.815592,17773
1659432527.856597,17789
1659432527.90102,17808
1659432527.945442,17822
1659432527.989865,17828
1659432528.023694,17852
1659432528.057524,17851
1659432528.101604,17863
1659432528.145685,17859
1659432528.189766,17858
1659432528.229063,17867
1659432528.26836,17867
1659432528.307657,17873
1659432528.348662,17888
1659432528.389667,17903
1659432528.428964,17870
1659432528.468261,17860
1659432528.507558,17839
1659432528.549588,17838
1659432528.591619,17857
1659432528.630232,17870
1659432528.668845,17902
1659432528.707459,17915
1659432528.746072,17942
1659432528.784686,17939
1659432528.823299,17946
1659432528.865842,17969
1659432528.908385,17982
1659432528.94734,17959
1659432528.986295,17938
1659432529.02525,17926
1659432529.066256,17907
1659432529.107261,17887
1659432529.145875,17884
1659432529.184488,17939
1659432529.223101,17967
1659432529.266157,17974
1659432529.309213,17976
1659432529.347826,17965
1659432529.386439,17959
1659432529.425053,17936
1659432529.466571,17917
1659432529.508089,17908
1659432529.547727,17903
1659432529.587366,17865
1659432529.627004,17860
1659432529.670743,17848
1659432529.714482,17842
1659432529.758221,17857
1659432529.791538,17891
1659432529.824855,17927
1659432529.869277,17940
1659432529.9137,17927
1659432529.958122,17898
1659432529.990927,17906
1659432530.023731,17882
1659432530.067812,17882
1659432530.111893,17870
1659432530.155973,17856
1659432530.194587,17859
1659432530.2332,17849
1659432530.271814,17833
1659432530.313844,17815
1659432530.355875,17816
1659432530.393805,17808
1659432530.431735,17850
1659432530.469664,17878
1659432530.509303,17907
1659432530.548941,17912
1659432530.58858,17912
1659432530.629585,17914
1659432530.670591,17895
1659432530.709204,17891
1659432530.747818,17866
1659432530.786431,17825
1659432530.829487,17813
1659432530.872542,17825
1659432530.911155,17823
1659432530.949769,17802
1659432530.988382,17811
1659432531.028875,17829
1659432531.069368,17851
1659432531.107981,17852
1659432531.146595,17854
1659432531.185208,17859
1659432531.229289,17851
1659432531.27337,17848
1659432531.31745,17854
1659432531.350767,17872
1659432531.384084,17864
1659432531.428507,17858
1659432531.472929,17853
1659432531.517352,17842
1659432531.556307,17850
1659432531.595262,17884
1659432531.634217,17898
1659432531.675222,17931
1659432531.716228,17954
1659432531.756208,17934
1659432531.796188,17926
1659432531.836168,17918
1659432531.877686,17909
1659432531.919204,17885
1659432531.958159,17902
1659432531.997114,17899
1659432532.036069,17920
1659432532.075025,17936
1659432532.11398,17932
1659432532.152935,17911
1659432532.195478,17901
1659432532.238021,17901
1659432532.276293,17914
1659432532.314564,17949
1659432532.352836,17946
1659432532.394354,17952
1659432532.435872,17925
1659432532.474485,17894
1659432532.513098,17913
1659432532.551712,17915
1659432532.593742,17918
1659432532.635773,17913
1659432532.674386,17897
1659432532.713,17871
1659432532.751613,17887
1659432532.792875,17896
1659432532.834136,17911
1659432532.875398,17952
1659432532.91666,17976
1659432532.955956,17981
1659432532.995253,17970
1659432533.03455,17958
1659432533.076068,17941
1659432533.117586,17961
1659432533.156541,17949
1659432533.195496,17921
1659432533.234451,17890
1659432533.27819,17886
1659432533.321929,17909
1659432533.365668,17888
1659432533.399498,17890
1659432533.433327,17935
1659432533.477408,18019
1659432533.521489,18053
1659432533.56557,18051
1659432533.604183,18035
1659432533.642796,18019
1659432533.68141,18000
1659432533.722415,18002
1659432533.76342,18019
1659432533.802376,18013
1659432533.841331,18012
1659432533.880286,17992
1659432533.921804,17951
1659432533.963322,17932
1659432534.002277,17939
1659432534.041232,17950
1659432534.080187,17948
1659432534.119484,17978
1659432534.158781,18009
1659432534.198077,18016
1659432534.239083,17995
1659432534.280088,17994
1659432534.31836,17984
1659432534.356631,17986
1659432534.394903,17954
1659432534.437959,17950
1659432534.481014,17968
1659432534.518944,17940
1659432534.556874,17909
1659432534.594804,17887
1659432534.63581,17892
1659432534.676815,17924
1659432534.716112,17967
1659432534.755409,17947
1659432534.794705,17912
1659432534.839128,17899
1659432534.88355,17867
1659432534.927973,17858
1659432534.96129,17864
1659432534.994606,17867
1659432535.040054,17854
1659432535.085502,17835
1659432535.130949,17823
1659432535.171955,17833
1659432535.21296,17861
1659432535.251915,17860
1659432535.29087,17851
1659432535.329825,17859
1659432535.369122,17836
1659432535.408419,17832
1659432535.447716,17843
1659432535.489234,17855
1659432535.530752,17841
1659432535.568682,17808
1659432535.606611,17758
1659432535.644542,17737
1659432535.686572,17685
1659432535.728603,17644
1659432535.766874,17638
1659432535.805146,17626
1659432535.843418,17627
1659432535.882715,17628
1659432535.922011,17624
1659432535.961308,17613
1659432536.002826,17618
1659432536.044344,17570
1659432536.083299,17537
1659432536.122254,17492
1659432536.161209,17441
1659432536.202214,17392
1659432536.24322,17376
1659432536.282858,17371
1659432536.322497,17353
1659432536.362135,17345
1659432536.403653,17340
1659432536.445171,17358
1659432536.48891,17364
1659432536.53265,17341
1659432536.576389,17271
1659432536.609193,17202
1659432536.641997,17139
1659432536.686419,17119
1659432536.730842,17081
1659432536.775265,17054
1659432536.813878,17055
1659432536.852491,17025
1659432536.891105,16987
1659432536.932623,16983
1659432536.974141,17017
1659432537.012412,17050
1659432537.050684,17097
1659432537.088956,17122
1659432537.127569,17151
1659432537.166182,17156
1659432537.204796,17151
1659432537.246826,17126
1659432537.288857,17087
1659432537.328154,17031
1659432537.36745,16994
1659432537.406747,16964
1659432537.447752,16956
1659432537.488758,16943
1659432537.528055,16955
1659432537.567352,16961
1659432537.606648,16968
1659432537.645262,16958
1659432537.683875,16959
1659432537.722488,16978
1659432537.765032,16988
1659432537.807575,16981
1659432537.846188,16979
1659432537.884801,16982
1659432537.923415,16986
1659432537.964933,16995
1659432538.006451,16955
1659432538.046431,16910
1659432538.086411,16910
1659432538.126391,16912
1659432538.166372,16956
1659432538.206352,17064
1659432538.248382,17141
1659432538.290413,17191
1659432538.32971,17201
1659432538.369006,17215
1659432538.408303,17209
1659432538.449821,17204
1659432538.491339,17191
1659432538.530294,17202
1659432538.569249,17220
1659432538.608204,17201
1659432538.649722,17188
1659432538.69124,17143
1659432538.735321,17078
1659432538.779402,17040
1659432538.823483,17029
1659432538.862096,17024
1659432538.900709,17052
1659432538.939323,17102
1659432538.981866,17126
1659432539.024409,17142
1659432539.06268,17130
1659432539.100952,17127
1659432539.139224,17135
1659432539.177837,17153
1659432539.216451,17163
1659432539.255064,17158
1659432539.296582,17152
1659432539.3381,17138
1659432539.377055,17120
1659432539.41601,17087
1659432539.454965,17025
1659432539.496996,16988
1659432539.539026,16955
1659432539.577981,16910
1659432539.616936,16863
1659432539.655891,16853
1659432539.694505,16853
1659432539.733118,16876
1659432539.771732,16884
1659432539.812737,16915
1659432539.853742,16931
1659432539.893039,16924
1659432539.932336,16923
1659432539.971633,16927
1659432540.013151,16920
1659432540.054669,16928
1659432540.098408,16938
1659432540.142147,16949
1659432540.185886,16952
1659432540.219203,16908
1659432540.25252,16849
1659432540.2966,16797
1659432540.340681,16769
1659432540.384762,16784
1659432540.417566,16830
1659432540.45037,16880
1659432540.495476,16883
1659432540.540582,16897
1659432540.585688,16884
1659432540.624985,16876
1659432540.664282,16871
1659432540.703578,16868
1659432540.744584,16865
1659432540.785589,16887
1659432540.824886,16933
1659432540.864183,16968
1659432540.90348,16968
1659432540.946023,16927
1659432540.988566,16918
1659432541.026496,16919
1659432541.064426,16924
1659432541.102356,16934
1659432541.141653,16942
1659432541.180949,16917
1659432541.220246,16906
1659432541.261251,16920
1659432541.302257,16940
1659432541.341212,16962
1659432541.380167,16974
1659432541.419122,17006
1659432541.46064,17019
1659432541.502158,17034
1659432541.541455,17009
1659432541.580752,17020
1659432541.620049,17024
1659432541.661054,17015
1659432541.702059,16983
1659432541.741356,16968
1659432541.780653,16964
1659432541.81995,16946
1659432541.86198,16929
1659432541.904011,16933
1659432541.942624,16941
1659432541.981237,16952
1659432542.019851,16992
1659432542.064273,17018
1659432542.108696,17040
1659432542.153118,17044
1659432542.194636,17043
1659432542.236154,17047
1659432542.274767,17058
1659432542.313381,17085
1659432542.351994,17098
1659432542.390608,17086
1659432542.429221,17051
1659432542.467834,17031
1659432542.50884,17029
1659432542.549845,17034
1659432542.588459,17054
1659432542.627072,17069
1659432542.665685,17088
1659432542.70464,17103
1659432542.743595,17125
1659432542.782551,17125
1659432542.824581,17132
1659432542.866611,17124
1659432542.905225,17143
1659432542.943838,17139
1659432542.982452,17137
1659432543.023457,17124
1659432543.064462,17105
1659432543.103076,17071
1659432543.141689,17053
1659432543.180303,17051
1659432543.222333,17051
1659432543.264364,17074
1659432543.303934,17058
1659432543.343504,17065
1659432543.383074,17071
1659432543.422644,17075
1659432543.462214,17089
1659432543.50117,17085
1659432543.540125,17100
1659432543.57908,17106
1659432543.62111,17124
1659432543.663141,17097
1659432543.707222,17058
1659432543.751302,17052
1659432543.795383,17062
1659432543.829212,17052
1659432543.863042,17046
1659432543.907123,17068
1659432543.951204,17078
1659432543.995284,17090
1659432544.034581,17070
1659432544.073878,17072
1659432544.113175,17090
1659432544.155205,17086
1659432544.197236,17079
1659432544.236191,17087
1659432544.275146,17068
1659432544.314101,17048
1659432544.355106,17026
1659432544.396112,17023
1659432544.434725,17037
1659432544.473338,17054
1659432544.511952,17050
1659432544.550565,17019
1659432544.589179,16996
1659432544.627792,16968
1659432544.669822,16983
1659432544.711853,16975
1659432544.750808,16995
1659432544.789763,17026
1659432544.828718,17030
1659432544.870236,17014
1659432544.911754,16995
1659432544.950026,16985
1659432544.988297,16962
1659432545.026569,16960
1659432545.069625,16948
1659432545.11268,16975
1659432545.151294,17010
1659432545.189907,17026
1659432545.228521,16997
1659432545.269526,16966
1659432545.310531,16963
1659432545.349486,16974
1659432545.388442,16986
1659432545.427397,17009
1659432545.471819,17005
1659432545.516242,17002
1659432545.560664,16992
1659432545.593468,17001
1659432545.626273,16994
1659432545.670695,16989
1659432545.715118,17000
1659432545.75954,17033
1659432545.798153,17058
1659432545.836767,17073
1659432545.87538,17071
1659432545.916386,17072
1659432545.957391,17048
1659432545.996688,17019
1659432546.035985,17003
1659432546.075281,16988
1659432546.116799,16995
1659432546.158317,16990
1659432546.196589,16978
1659432546.234861,16969
1659432546.273132,16982
1659432546.312429,16975
1659432546.351726,16970
1659432546.391023,16989
1659432546.433053,16994
1659432546.475084,17000
1659432546.513697,16981
1659432546.55231,16976
1659432546.590924,16954
1659432546.632442,16939
1659432546.67396,16909
1659432546.712915,16904
1659432546.75187,16883
1659432546.790825,16856
1659432546.832343,16854
1659432546.873861,16864
1659432546.912816,16873
1659432546.951771,16899
1659432546.990726,16942
1659432547.032244,16966
1659432547.073762,16971
1659432547.118185,16977
1659432547.162607,16982
1659432547.20703,16991
1659432547.245985,17018
1659432547.28494,17009
1659432547.323895,16963
1659432547.366438,16915
1659432547.408981,16886
1659432547.447594,16882
1659432547.486208,16897
1659432547.524821,16903
1659432547.566852,16924
1659432547.608882,16929
1659432547.647496,16933
1659432547.686109,16964
1659432547.724722,16967
1659432547.762994,16959
1659432547.801266,16977
1659432547.839537,16983
1659432547.881568,16993
1659432547.923598,16992
1659432547.962553,16973
1659432548.001508,16922
1659432548.040464,16900
1659432548.081469,16903
1659432548.122474,16917
1659432548.161429,16934
1659432548.200384,16948
1659432548.23934,16958
1659432548.278295,16957
1659432548.31725,16960
1659432548.356205,16956
1659432548.398748,16976
1659432548.441291,16969
1659432548.479904,16949
1659432548.518518,16951
1659432548.557131,16934
1659432548.598905,16924
1659432548.64068,16883
1659432548.682454,16859
1659432548.724228,16847
1659432548.762841,16835
1659432548.801455,16843
1659432548.840068,16827
1659432548.883807,16810
1659432548.927546,16811
1659432548.971285,16821
1659432549.004602,16785
1659432549.037919,16770
1659432549.077489,16761
1659432549.117059,16731
1659432549.15663,16654
1659432549.1962,16573
1659432549.23577,16490
1659432549.277801,16409
1659432549.319831,16364
1659432549.364595,16353
1659432549.409359,16369
1659432549.454123,16394
1659432549.48744,16438
1659432549.520757,16454
1659432549.565521,16455
1659432549.610286,16461
1659432549.65505,16459
1659432549.688879,16482
1659432549.722709,16496
1659432549.766789,16493
1659432549.81087,16508
1659432549.854951,16507
1659432549.893906,16519
1659432549.932861,16529
1659432549.971816,16520
1659432550.014359,16502
1659432550.056902,16505
1659432550.095174,16513
1659432550.133446,16529
1659432550.171717,16554
1659432550.212723,16583
1659432550.253728,16604
1659432550.292683,16614
1659432550.331638,16619
1659432550.370594,16630
1659432550.408865,16650
1659432550.447137,16638
1659432550.485409,16638
1659432550.527439,16644
1659432550.569469,16661
1659432550.609108,16695
1659432550.648746,16706
1659432550.688385,16712
1659432550.729903,16711
1659432550.771421,16701
1659432550.810376,16692
1659432550.849331,16732
1659432550.888286,16739
1659432550.930829,16760
1659432550.973372,16766
1659432551.011644,16760
1659432551.049916,16758
1659432551.088187,16733
1659432551.129193,16720
1659432551.170198,16738
1659432551.209153,16768
1659432551.248108,16818
1659432551.287063,16887
1659432551.331144,16896
1659432551.375225,16860
1659432551.419306,16840
1659432551.460824,16820
1659432551.502342,16839
1659432551.54198,16846
1659432551.581619,16859
1659432551.621257,16852
1659432551.662262,16866
1659432551.703268,16842
1659432551.741539,16835
1659432551.779811,16842
1659432551.818083,16838
1659432551.857721,16854
1659432551.89736,16856
1659432551.936998,16867
1659432551.978004,16886
1659432552.019009,16868
1659432552.057281,16826
1659432552.095552,16796
1659432552.133824,16817
1659432552.175342,16816
1659432552.21686,16835
1659432552.256157,16828
1659432552.295454,16829
1659432552.33475,16819
1659432552.373022,16827
1659432552.411294,16845
1659432552.449565,16862
1659432552.491083,16890
1659432552.532601,16921
1659432552.571557,16956
1659432552.610512,16967
1659432552.649467,16968
1659432552.691497,16981
1659432552.733528,16994
1659432552.772483,16998
1659432552.811438,16966
1659432552.850393,16949
1659432552.891911,16923
1659432552.933429,16934
1659432552.977851,16926
1659432553.022274,16919
1659432553.066696,16944
1659432553.105993,16948
1659432553.14529,16966
1659432553.184587,16988
1659432553.22713,16996
1659432553.269673,16966
1659432553.307945,16975
1659432553.346216,16997
1659432553.384488,17000
1659432553.425493,16976
1659432553.466499,16948
1659432553.505454,16925
1659432553.544409,16882
1659432553.583364,16865
1659432553.621635,16881
1659432553.659907,16892
1659432553.698179,16918
1659432553.740209,16946
1659432553.78224,16996
1659432553.822425,17009
1659432553.86261,17013
1659432553.902796,16998
1659432553.942981,16997
1659432553.983166,17040
1659432554.022121,17057
1659432554.061076,17056
1659432554.100031,17030
1659432554.139328,16972
1659432554.178625,16904
1659432554.217922,16900
1659432554.259952,16876
1659432554.301983,16894
1659432554.345722,16966
1659432554.389461,17004
1659432554.4332,17018
1659432554.466004,17018
1659432554.498809,17016
1659432554.542889,16970
1659432554.58697,16965
1659432554.631051,16956
1659432554.664368,16961
1659432554.697685,16959
1659432554.741765,16956
1659432554.785846,16969
1659432554.829927,16973
1659432554.869224,16940
1659432554.908521,16898
1659432554.947817,16886
1659432554.988823,16906
1659432555.029828,16938
1659432555.068442,16953
1659432555.107055,16947
1659432555.145668,16950
1659432555.188211,16922
1659432555.230754,16915
1659432555.269368,16938
1659432555.307981,16928
1659432555.346595,16920
1659432555.385208,16873
1659432555.423821,16825
1659432555.462435,16775
1659432555.501048,16777
1659432555.539661,16765
1659432555.578275,16773
1659432555.619793,16818
1659432555.661311,16834
1659432555.700266,16826
1659432555.739221,16822
1659432555.778176,16838
1659432555.819181,16839
1659432555.860187,16858
1659432555.904609,16870
1659432555.949032,16874
1659432555.993454,16883
1659432556.027284,16886
1659432556.061113,16864
1659432556.105877,16838
1659432556.150641,16833
1659432556.195406,16843
1659432556.233677,16836
1659432556.271949,16822
1659432556.310221,16815
1659432556.351739,16815
1659432556.393256,16810
1659432556.432895,16810
1659432556.472533,16834
1659432556.512172,16852
1659432556.554203,16852
1659432556.596233,16857
1659432556.634846,16876
1659432556.67346,16906
1659432556.712073,16902
1659432556.753591,16886
1659432556.795109,16888
1659432556.833381,16907
1659432556.871652,16942
1659432556.909924,16983
1659432556.948538,16974
1659432556.987151,16952
1659432557.025764,16917
1659432557.065061,16875
1659432557.104358,16878
1659432557.143655,16897
1659432557.185173,16918
1659432557.226691,16916
1659432557.268209,16899
1659432557.309726,16869
1659432557.349023,16838
1659432557.38832,16836
1659432557.427617,16853
1659432557.471698,16884
1659432557.515778,16897
1659432557.559859,16921
1659432557.593176,16926
1659432557.626493,16918
1659432557.670915,16928
1659432557.715338,16890
1659432557.75976,16842
1659432557.791539,16815
1659432557.823319,16831
1659432557.867399,16823
1659432557.91148,16865
1659432557.955561,16886
1659432557.994174,16858
1659432558.032788,16861
1659432558.071401,16867
1659432558.113432,16881
1659432558.155462,16887
1659432558.194076,16887
1659432558.232689,16885
1659432558.271302,16883
1659432558.310257,16885
1659432558.349212,16900
1659432558.388168,16880
1659432558.429686,16847
1659432558.471203,16816
1659432558.5105,16796
1659432558.549797,16822
1659432558.589094,16833
1659432558.630612,16852
1659432558.67213,16860
1659432558.711085,16852
1659432558.75004,16852
1659432558.788995,16817
1659432558.83,16790
1659432558.871006,16770
1659432558.909961,16725
1659432558.948916,16688
1659432558.987871,16656
1659432559.029389,16605
1659432559.070907,16507
1659432559.112425,16359
1659432559.153943,16214
1659432559.195461,16097
1659432559.236979,16005
1659432559.275934,15920
1659432559.314889,15843
1659432559.353844,15785
1659432559.393141,15697
1659432559.432438,15631
1659432559.471734,15552
1659432559.51274,15493
1659432559.553745,15440
1659432559.593042,15390
1659432559.632339,15356
1659432559.671635,15330
1659432559.714179,15274
1659432559.756722,15143
1659432559.794652,14958
1659432559.832582,14756
1659432559.870512,14556
1659432559.914934,14411
1659432559.959357,14306
1659432560.003779,14236
1659432560.037096,14173
1659432560.070413,14124
1659432560.114493,14076
1659432560.158574,14055
1659432560.202655,14030
1659432560.244685,14001
1659432560.286716,14000
1659432560.326013,13981
1659432560.36531,13959
1659432560.404606,13873
1659432560.442878,13695
1659432560.48115,13505
1659432560.519421,13357
1659432560.560427,13241
1659432560.601432,13166
1659432560.641412,13142
1659432560.681393,13106
1659432560.721373,13077
1659432560.762378,13033
1659432560.803384,13009
1659432560.842339,13004
1659432560.881294,12988
1659432560.920249,12989
1659432560.958521,12994
1659432560.996792,13006
1659432561.035064,12953
1659432561.077094,12794
1659432561.119125,12575
1659432561.157397,12377
1659432561.195668,12216
1659432561.23394,12078
1659432561.275458,11970
1659432561.316976,11890
1659432561.355247,11802
1659432561.393519,11701
1659432561.431791,11651
1659432561.473821,11625
1659432561.515852,11629
1659432561.560958,11647
1659432561.606064,11676
1659432561.65117,11725
1659432561.683974,11768
1659432561.716778,11782
1659432561.760859,11658
1659432561.80494,11440
1659432561.84902,11208
1659432561.888317,10976
1659432561.927614,10783
1659432561.966911,10694
1659432562.008941,10701
1659432562.050972,10746
1659432562.089585,10798
1659432562.128199,10847
1659432562.166812,10896
1659432562.207817,10956
1659432562.248823,11029
1659432562.287778,11103
1659432562.326733,11177
1659432562.365688,11254
1659432562.40396,11322
1659432562.442231,11317
1659432562.480503,11208
1659432562.523046,11073
1659432562.565589,10970
1659432562.604544,10927
1659432562.643499,10910
1659432562.682455,10922
1659432562.721751,10927
1659432562.761048,10926
1659432562.800345,10939
1659432562.841863,10967
1659432562.883381,11010
1659432562.923019,11046
1659432562.962658,11100
1659432563.002296,11142
1659432563.043814,11201
1659432563.085332,11244
1659432563.126338,11225
1659432563.167343,11074
1659432563.206298,10874
1659432563.245253,10731
1659432563.284208,10619
1659432563.328289,10552
1659432563.37237,10524
1659432563.416451,10541
1659432563.449767,10550
1659432563.483084,10564
1659432563.527165,10582
1659432563.571246,10605
1659432563.615327,10638
1659432563.653598,10660
1659432563.69187,10690
1659432563.730142,10737
1659432563.771659,10787
1659432563.813177,10816
1659432563.851791,10735
1659432563.890404,10556
1659432563.929018,10369
1659432563.971561,10205
1659432564.014104,10070
1659432564.052717,10018
1659432564.091331,10040
1659432564.129944,10082
1659432564.169241,10099
1659432564.208538,10145
1659432564.247834,10191
1659432564.287405,10252
1659432564.326975,10324
1659432564.366545,10374
1659432564.406115,10445
1659432564.445685,10519
1659432564.487203,10588
1659432564.528721,10641
1659432564.570239,10620
1659432564.611757,10485
1659432564.653787,10363
1659432564.695818,10291
1659432564.73409,10250
1659432564.772361,10250
1659432564.810633,10269
1659432564.852664,10314
1659432564.894694,10339
1659432564.933649,10373
1659432564.972604,10410
1659432565.011559,10459
1659432565.049831,10525
1659432565.088103,10568
1659432565.126374,10628
1659432565.16943,10688
1659432565.212486,10756
1659432565.251099,10796
1659432565.289712,10741
1659432565.328326,10603
1659432565.368819,10507
1659432565.409311,10446
1659432565.448608,10426
1659432565.487905,10459
1659432565.527202,10490
1659432565.569232,10535
1659432565.611263,10567
1659432565.649876,10615
1659432565.688489,10655
1659432565.727103,10737
1659432565.771867,10781
1659432565.816631,10847
1659432565.861395,10912
1659432565.903426,10970
1659432565.945457,11029
1659432565.983728,11065
1659432566.022,11033
1659432566.060272,10902
1659432566.102814,10780
1659432566.145358,10694
1659432566.184654,10637
1659432566.223951,10640
1659432566.263248,10650
1659432566.30152,10682
1659432566.339791,10686
1659432566.378063,10707
1659432566.419581,10727
1659432566.461099,10776
1659432566.500396,10812
1659432566.539693,10860
1659432566.578989,10934
1659432566.617261,10983
1659432566.655533,11055
1659432566.693804,11115
1659432566.73481,11176
1659432566.775815,11213
1659432566.814429,11160
1659432566.853042,11059
1659432566.891655,10975
1659432566.933173,10920
1659432566.974691,10890
1659432567.013304,10919
1659432567.051918,10961
1659432567.090531,10992
1659432567.132562,11041
1659432567.174592,11075
1659432567.213206,11120
1659432567.251819,11170
1659432567.290432,11223
1659432567.332463,11278
1659432567.374493,11340
1659432567.418916,11391
1659432567.463338,11449
1659432567.507761,11501
1659432567.546374,11552
1659432567.584988,11562
1659432567.623601,11498
1659432567.664606,11397
1659432567.705612,11347
1659432567.744225,11323
1659432567.782839,11337
1659432567.821452,11390
1659432567.859724,11438
1659432567.897995,11467
1659432567.936267,11490
1659432567.977785,11512
1659432568.019303,11549
1659432568.058258,11575
1659432568.097213,11615
1659432568.136168,11645
1659432568.177686,11700
1659432568.219204,11732
1659432568.258159,11768
1659432568.297114,11811
1659432568.336069,11805
1659432568.375366,11715
1659432568.414663,11636
1659432568.45396,11565
1659432568.496503,11527
1659432568.539046,11531
1659432568.578001,11546
1659432568.616956,11591
1659432568.655911,11619
1659432568.696917,11629
1659432568.737922,11650
1659432568.780977,11668
1659432568.824033,11694
1659432568.862305,11717
1659432568.900576,11768
1659432568.938848,11804
1659432568.983271,11864
1659432569.027693,11903
1659432569.072116,11950
1659432569.105433,12005
1659432569.138749,11983
1659432569.182488,11901
1659432569.226227,11821
1659432569.269966,11778
1659432569.303283,11744
1659432569.3366,11763
1659432569.381364,11776
1659432569.426129,11814
1659432569.470893,11838
1659432569.509677,11851
1659432569.548461,11867
1659432569.587245,11900
1659432569.62603,11936
1659432569.664814,11976
1659432569.703598,12023
1659432569.745629,12068
1659432569.787659,12107
1659432569.826614,12150
1659432569.865569,12165
1659432569.904525,12201
1659432569.943138,12211
1659432569.981751,12164
1659432570.020365,12072
1659432570.061882,12002
1659432570.1034,11965
1659432570.143893,11950
1659432570.184386,11960
1659432570.223341,11967
1659432570.262296,11981
1659432570.301251,11995
1659432570.345674,12027
1659432570.390096,12071
1659432570.434519,12091
1659432570.467323,12104
1659432570.500127,12154
1659432570.544208,12195
1659432570.588289,12236
1659432570.63237,12266
1659432570.672008,12302
1659432570.711647,12320
1659432570.751285,12303
1659432570.792803,12206
1659432570.834321,12123
1659432570.872593,12074
1659432570.910865,12045
1659432570.949136,12051
1659432570.991167,12073
1659432571.033197,12104
1659432571.071469,12126
1659432571.10974,12157
1659432571.148012,12190
1659432571.186625,12230
1659432571.225239,12282
1659432571.263852,12327
1659432571.306395,12380
1659432571.348938,12421
1659432571.387552,12461
1659432571.426165,12502
1659432571.464779,12545
1659432571.506297,12573
1659432571.547815,12566
1659432571.587111,12490
1659432571.626408,12409
1659432571.665705,12341
1659432571.708248,12295
1659432571.750791,12308
1659432571.789404,12319
1659432571.828018,12355
1659432571.866631,12383
1659432571.908662,12405
1659432571.950692,12436
1659432571.989305,12481
1659432572.027919,12517
1659432572.066532,12553
1659432572.110613,12592
1659432572.154694,12620
1659432572.198775,12665
1659432572.232604,12693
1659432572.266433,12725
1659432572.311198,12748
1659432572.355962,12754
1659432572.400726,12720
1659432572.441219,12637
1659432572.481712,12582
1659432572.520667,12525
1659432572.559622,12470
1659432572.598577,12443
1659432572.637874,12416
1659432572.677171,12397
1659432572.716467,12377
1659432572.757985,12357
1659432572.799503,12352
1659432572.838458,12359
1659432572.877414,12381
1659432572.916368,12421
1659432572.958399,12457
1659432573.00043,12497
1659432573.038701,12538
1659432573.076973,12582
1659432573.115245,12600
1659432573.154541,12575
1659432573.193838,12517
1659432573.233135,12439
1659432573.273628,12393
1659432573.314121,12365
1659432573.353076,12375
1659432573.392031,12403
1659432573.430986,12422
1659432573.471479,12445
1659432573.511971,12478
1659432573.550927,12512
1659432573.589882,12542
1659432573.628837,12585
1659432573.670355,12612
1659432573.711873,12636
1659432573.755612,12619
1659432573.799351,12617
1659432573.84309,12636
1659432573.882387,12651
1659432573.921684,12604
1659432573.96098,12496
1659432574.002498,12402
1659432574.044016,12342
1659432574.083313,12306
1659432574.12261,12292
1659432574.161906,12309
1659432574.203937,12338
1659432574.245968,12349
1659432574.284923,12384
1659432574.323878,12428
1659432574.362833,12455
1659432574.401104,12489
1659432574.439376,12538
1659432574.477648,12572
1659432574.519678,12610
1659432574.561709,12636
1659432574.601006,12684
1659432574.640302,12703
1659432574.679599,12671
1659432574.720092,12586
1659432574.760585,12522
1659432574.799711,12478
1659432574.838837,12458
1659432574.877963,12483
1659432574.917089,12494
1659432574.956215,12510
1659432574.995341,12525
1659432575.037371,12544
1659432575.079401,12571
1659432575.118357,12606
1659432575.157312,12639
1659432575.196267,12673
1659432575.237785,12715
1659432575.279303,12747
1659432575.323384,12784
1659432575.367464,12795
1659432575.411545,12744
1659432575.449817,12675
1659432575.488088,12624
1659432575.52636,12596
1659432575.569416,12575
1659432575.612471,12604
1659432575.650743,12632
1659432575.689015,12671
1659432575.727286,12715
1659432575.7659,12772
1659432575.804513,12820
1659432575.843127,12883
1659432575.885157,12938
1659432575.927187,12991
1659432575.965459,13031
1659432576.003731,13063
1659432576.042003,13093
1659432576.081299,13039
1659432576.120596,12971
1659432576.159893,12900
1659432576.201411,12853
1659432576.242929,12821
1659432576.281542,12836
1659432576.320156,12852
1659432576.358769,12868
1659432576.400287,12894
1659432576.441805,12902
1659432576.481443,12938
1659432576.521082,12961
1659432576.56072,12999
1659432576.601213,13034
1659432576.641706,13086
1659432576.685445,13124
1659432576.729184,13134
1659432576.772923,13101
1659432576.811878,13034
1659432576.850833,12969
1659432576.889788,12931
1659432576.930281,12909
1659432576.970774,12925
1659432577.009729,12965
1659432577.048684,12998
1659432577.087639,13024
1659432577.12967,13058
1659432577.1717,13097
1659432577.210655,13131
1659432577.249611,13162
1659432577.288566,13194
1659432577.327179,13241
1659432577.365793,13276
1659432577.404406,13312
1659432577.446949,13324
1659432577.489492,13289
1659432577.528447,13242
1659432577.567402,13219
1659432577.606357,13201
1659432577.647363,13191
1659432577.688368,13224
1659432577.727323,13261
1659432577.766278,13302
1659432577.805233,13322
1659432577.844188,13356
1659432577.883143,13393
1659432577.922099,13444
1659432577.963617,13476
1659432578.005134,13519
1659432578.04614,13560
1659432578.087145,13609
1659432578.126442,13654
1659432578.165739,13700
1659432578.205036,13714
1659432578.249458,13693
1659432578.29388,13672
1659432578.338303,13657
1659432578.372133,13667
1659432578.405962,13673
1659432578.450726,13712
1659432578.49549,13743
1659432578.540254,13773
1659432578.573571,13806
1659432578.606888,13850
1659432578.650627,13882
1659432578.694366,13918
1659432578.738105,13971
1659432578.776719,13998
1659432578.815332,14034
1659432578.853945,14062
1659432578.895976,14103
1659432578.938006,14140
1659432578.97662,14183
1659432579.015233,14239
1659432579.053847,14281
1659432579.094852,14327
1659432579.135857,14364
1659432579.175154,14413
1659432579.214451,14454
1659432579.253748,14494
1659432579.29202,14532
1659432579.330291,14576
1659432579.368563,14618
1659432579.411106,14668
1659432579.453649,14716
1659432579.492604,14758
1659432579.531559,14808
1659432579.570514,14833
1659432579.61152,14874
1659432579.652525,14927
1659432579.691138,14974
1659432579.729752,15020
1659432579.768365,15047
1659432579.810908,15075
1659432579.853451,15086
1659432579.891381,15125
1659432579.929311,15132
1659432579.967241,15163
1659432580.011664,15206
1659432580.056086,15250
1659432580.100509,15271
1659432580.137926,15303
1659432580.175344,15337
1659432580.212761,15371
1659432580.250178,15412
1659432580.294259,15424
1659432580.33834,15468
1659432580.382421,15492
1659432580.41625,15511
1659432580.450079,15534
1659432580.494502,15567
1659432580.538924,15591
1659432580.583347,15615
1659432580.622302,15609
1659432580.661257,15596
1659432580.700212,15596
1659432580.743268,15581
1659432580.786323,15592
1659432580.824937,15598
1659432580.86355,15627
1659432580.902164,15629
1659432580.940777,15632
1659432580.97939,15642
1659432581.018004,15663
1659432581.059009,15679
1659432581.100014,15682
1659432581.138969,15698
1659432581.177925,15710
1659432581.21688,15710
1659432581.258398,15724
1659432581.299916,15743
1659432581.338529,15750
1659432581.377142,15745
1659432581.415756,15749
1659432581.454711,15741
1659432581.493666,15755
1659432581.532621,15755
1659432581.574651,15756
1659432581.616682,15776
1659432581.658713,15793
1659432581.700743,15798
1659432581.739698,15804
1659432581.778653,15818
1659432581.817608,15833
1659432581.862031,15853
1659432581.906453,15853
1659432581.950876,15860
1659432581.984705,15876
1659432582.018535,15889
1659432582.062957,15889
1659432582.107379,15902
1659432582.151802,15912
1659432582.184094,15900
1659432582.216385,15895
1659432582.260808,15882
1659432582.30523,15891
1659432582.349653,15894
1659432582.387925,15893
1659432582.426196,15896
1659432582.464468,15916
1659432582.506498,15924
1659432582.548529,15936
1659432582.587142,15942
1659432582.625756,15940
1659432582.664369,15950
1659432582.705887,15952
1659432582.747405,15957
1659432582.786018,15962
1659432582.824632,15980
1659432582.863245,15977
1659432582.9022,16001
1659432582.941155,15998
1659432582.98011,15985
1659432583.022141,15989
1659432583.064171,15981
1659432583.103468,15983
1659432583.142765,15992
1659432583.182062,15992
1659432583.222555,15997
1659432583.263047,16008
1659432583.302344,16012
1659432583.341641,16021
1659432583.380938,16027
1659432583.422968,16030
