LocalTimestamp,PG
1659442945.048808,10527
1659442945.048808,10557
1659442945.048808,10570
1659442945.048808,10050
1659442945.048808,10039
1659442945.048808,10108
1659442945.086528,10206
1659442945.124248,10300
1659442945.161968,10374
1659442945.199688,10456
1659442945.237408,10527
1659442945.275128,10598
1659442945.314384,10665
1659442945.35364,10711
1659442945.392897,10768
1659442945.43386,10802
1659442945.474823,10794
1659442945.513737,10739
1659442945.552652,10634
1659442945.591567,10575
1659442945.634066,10573
1659442945.676565,10560
1659442945.715138,10581
1659442945.753712,10616
1659442945.792285,10645
1659442945.836321,10687
1659442945.880356,10710
1659442945.924391,10740
1659442945.965866,10776
1659442946.007341,10808
1659442946.045232,10836
1659442946.083122,10876
1659442946.121013,10921
1659442946.163512,10904
1659442946.206011,10841
1659442946.245268,10778
1659442946.284524,10760
1659442946.32378,10762
1659442946.362695,10782
1659442946.40161,10818
1659442946.440524,10845
1659442946.481999,10888
1659442946.523474,10908
1659442946.562731,10928
1659442946.601987,10963
1659442946.641243,10989
1659442946.68323,11026
1659442946.725217,11049
1659442946.76379,11079
1659442946.802364,11074
1659442946.840937,10988
1659442946.879852,10882
1659442946.918767,10816
1659442946.957682,10783
1659442946.999157,10767
1659442947.040632,10781
1659442947.078864,10792
1659442947.117096,10817
1659442947.155328,10829
1659442947.197315,10850
1659442947.239302,10882
1659442947.2789,10908
1659442947.318497,10958
1659442947.358095,10990
1659442947.399058,11044
1659442947.440021,11063
1659442947.484397,11013
1659442947.528774,10923
1659442947.57315,10830
1659442947.607457,10781
1659442947.641763,10753
1659442947.685799,10745
1659442947.729834,10767
1659442947.773869,10816
1659442947.812442,10825
1659442947.851016,10849
1659442947.889589,10876
1659442947.930552,10906
1659442947.971515,10942
1659442948.010089,10967
1659442948.048662,11005
1659442948.087236,11034
1659442948.129223,11063
1659442948.17121,11023
1659442948.210124,10909
1659442948.249039,10839
1659442948.287954,10782
1659442948.326186,10752
1659442948.364418,10755
1659442948.40265,10761
1659442948.443613,10795
1659442948.484576,10825
1659442948.524174,10849
1659442948.563771,10865
1659442948.603369,10907
1659442948.644844,10951
1659442948.686319,10977
1659442948.724551,11033
1659442948.762783,11061
1659442948.801015,11089
1659442948.843514,11093
1659442948.886014,10997
1659442948.92527,10879
1659442948.964526,10796
1659442949.003782,10767
1659442949.044233,10741
1659442949.084684,10762
1659442949.12394,10802
1659442949.163196,10826
1659442949.202452,10866
1659442949.246829,10878
1659442949.291205,10919
1659442949.335582,10943
1659442949.368864,10978
1659442949.402147,11000
1659442949.446865,11047
1659442949.491583,11081
1659442949.5363,11125
1659442949.569583,11152
1659442949.602865,11112
1659442949.6469,11014
1659442949.690936,10905
1659442949.734971,10856
1659442949.774568,10829
1659442949.814166,10832
1659442949.853764,10861
1659442949.896263,10894
1659442949.938762,10933
1659442949.977335,10948
1659442950.015908,10988
1659442950.054482,11003
1659442950.095957,11022
1659442950.137432,11057
1659442950.176005,11078
1659442950.214579,11112
1659442950.253152,11138
1659442950.291384,11180
1659442950.329617,11200
1659442950.367849,11159
1659442950.412225,11045
1659442950.456602,10952
1659442950.500978,10897
1659442950.534773,10875
1659442950.568567,10886
1659442950.612602,10932
1659442950.656638,10970
1659442950.700673,11008
1659442950.739929,11044
1659442950.779185,11066
1659442950.818441,11100
1659442950.859916,11136
1659442950.901391,11167
1659442950.939965,11196
1659442950.978538,11240
1659442951.017112,11271
1659442951.059099,11302
1659442951.101086,11274
1659442951.140001,11203
1659442951.178916,11133
1659442951.21783,11132
1659442951.256062,11133
1659442951.294294,11142
1659442951.332526,11187
1659442951.373489,11219
1659442951.414453,11245
1659442951.453709,11266
1659442951.492965,11285
1659442951.532221,11315
1659442951.573696,11339
1659442951.615171,11363
1659442951.653403,11386
1659442951.691635,11432
1659442951.729867,11460
1659442951.769465,11449
1659442951.809062,11381
1659442951.84866,11308
1659442951.890135,11272
1659442951.93161,11252
1659442951.972573,11258
1659442952.013536,11289
1659442952.052792,11320
1659442952.092048,11336
1659442952.131304,11351
1659442952.176022,11374
1659442952.22074,11387
1659442952.265458,11419
1659442952.299253,11438
1659442952.333047,11468
1659442952.377424,11492
1659442952.4218,11525
1659442952.466177,11541
1659442952.499459,11505
1659442952.532741,11409
1659442952.576435,11316
1659442952.620129,11279
1659442952.663823,11261
1659442952.702738,11256
1659442952.741652,11298
1659442952.780567,11326
1659442952.823578,11344
1659442952.86659,11361
1659442952.905163,11366
1659442952.943737,11394
1659442952.98231,11424
1659442953.023785,11456
1659442953.06526,11491
1659442953.104857,11511
1659442953.144455,11532
1659442953.184052,11547
1659442953.222285,11533
1659442953.260517,11434
1659442953.298749,11300
1659442953.340736,11156
1659442953.382723,11014
1659442953.421979,10884
1659442953.461235,10809
1659442953.500491,10764
1659442953.540942,10727
1659442953.581393,10671
1659442953.619967,10599
1659442953.65854,10557
1659442953.697114,10593
1659442953.739613,10643
1659442953.782112,10683
1659442953.820003,10714
1659442953.857893,10750
1659442953.895784,10770
1659442953.937259,10796
1659442953.978734,10820
1659442954.01799,10767
1659442954.057246,10601
1659442954.096503,10467
1659442954.140879,10394
1659442954.185256,10358
1659442954.229632,10340
1659442954.271107,10352
1659442954.312582,10385
1659442954.351838,10400
1659442954.391095,10411
1659442954.430351,10421
1659442954.471314,10443
1659442954.512277,10469
1659442954.550168,10486
1659442954.588058,10522
1659442954.625949,10575
1659442954.665205,10601
1659442954.704461,10640
1659442954.743717,10685
1659442954.785705,10676
1659442954.827692,10561
1659442954.866265,10450
1659442954.904839,10396
1659442954.943412,10372
1659442954.982327,10343
1659442955.021242,10340
1659442955.060156,10350
1659442955.101631,10361
1659442955.143106,10361
1659442955.182021,10362
1659442955.220936,10388
1659442955.259851,10411
1659442955.301838,10448
1659442955.343825,10495
1659442955.38274,10535
1659442955.421654,10590
1659442955.460569,10610
1659442955.502044,10594
1659442955.543519,10477
1659442955.588237,10328
1659442955.632955,10233
1659442955.677673,10181
1659442955.711468,10160
1659442955.745262,10158
1659442955.789297,10183
1659442955.833332,10190
1659442955.877367,10194
1659442955.910138,10209
1659442955.942908,10224
1659442955.987285,10262
1659442956.031661,10301
1659442956.076038,10346
1659442956.114953,10384
1659442956.153867,10432
1659442956.192782,10472
1659442956.234257,10508
1659442956.275732,10508
1659442956.314989,10385
1659442956.354245,10257
1659442956.393501,10187
1659442956.432074,10159
1659442956.470648,10137
1659442956.509221,10167
1659442956.551208,10205
1659442956.593195,10239
1659442956.63211,10270
1659442956.671025,10287
1659442956.70994,10322
1659442956.750903,10341
1659442956.791866,10376
1659442956.830439,10414
1659442956.869013,10464
1659442956.907586,10507
1659442956.946501,10545
1659442956.985416,10603
1659442957.024331,10597
1659442957.066318,10505
1659442957.108305,10356
1659442957.148756,10273
1659442957.189207,10240
1659442957.228121,10217
1659442957.267036,10227
1659442957.305951,10269
1659442957.350669,10311
1659442957.395387,10333
1659442957.440105,10368
1659442957.473387,10394
1659442957.50667,10422
1659442957.551387,10465
1659442957.596105,10509
1659442957.640823,10551
1659442957.679738,10594
1659442957.718653,10645
1659442957.757568,10691
1659442957.798531,10724
1659442957.839494,10661
1659442957.878067,10524
1659442957.916641,10443
1659442957.955214,10408
1659442957.994129,10402
1659442958.033044,10429
1659442958.071958,10466
1659442958.113433,10518
1659442958.154908,10573
1659442958.193823,10597
1659442958.232738,10638
1659442958.271653,10674
1659442958.313128,10714
1659442958.354603,10753
1659442958.392835,10781
1659442958.431067,10818
1659442958.469299,10856
1659442958.511798,10892
1659442958.554297,10845
1659442958.593895,10721
1659442958.633492,10630
1659442958.67309,10594
1659442958.714565,10596
1659442958.75604,10619
1659442958.794955,10647
1659442958.833869,10696
1659442958.872784,10711
1659442958.917502,10735
1659442958.96222,10759
1659442959.006938,10801
1659442959.039708,10839
1659442959.072479,10879
1659442959.116514,10912
1659442959.160549,10942
1659442959.204584,10988
1659442959.246572,11005
1659442959.288558,10946
1659442959.326791,10807
1659442959.365023,10718
1659442959.403255,10680
1659442959.442511,10667
1659442959.481767,10677
1659442959.521023,10706
1659442959.56301,10740
1659442959.604997,10743
1659442959.643229,10750
1659442959.681462,10760
1659442959.719694,10771
1659442959.761169,10791
1659442959.802644,10826
1659442959.842241,10847
1659442959.881839,10875
1659442959.921436,10910
1659442959.96001,10929
1659442959.998583,10883
1659442960.037157,10738
1659442960.07812,10617
1659442960.119083,10547
1659442960.157656,10514
1659442960.196229,10489
1659442960.234803,10501
1659442960.27679,10521
1659442960.318777,10525
1659442960.357009,10525
1659442960.395241,10550
1659442960.433473,10587
1659442960.474436,10627
1659442960.515399,10662
1659442960.554314,10686
1659442960.593229,10711
1659442960.632144,10732
1659442960.67652,10757
1659442960.720897,10742
1659442960.765273,10618
1659442960.807772,10508
1659442960.850271,10451
1659442960.88765,10436
1659442960.925029,10420
1659442960.962408,10451
1659442960.999786,10475
1659442961.041261,10497
1659442961.082736,10514
1659442961.121993,10532
1659442961.161249,10564
1659442961.200505,10598
1659442961.23942,10635
1659442961.278335,10666
1659442961.317249,10713
1659442961.3577,10753
1659442961.398151,10782
1659442961.44065,10770
1659442961.483149,10663
1659442961.522406,10541
1659442961.561662,10495
1659442961.600918,10474
1659442961.641369,10478
1659442961.68182,10503
1659442961.720735,10542
1659442961.759649,10550
1659442961.798564,10563
1659442961.842941,10576
1659442961.887317,10607
1659442961.931694,10636
1659442961.965488,10662
1659442961.999283,10688
1659442962.043659,10723
1659442962.088036,10762
1659442962.132412,10792
1659442962.166207,10747
1659442962.200001,10622
1659442962.243695,10514
1659442962.287389,10471
1659442962.331083,10433
1659442962.370339,10431
1659442962.409595,10460
1659442962.448851,10480
1659442962.489814,10496
1659442962.530777,10503
1659442962.569351,10527
1659442962.607924,10545
1659442962.646497,10588
1659442962.68473,10617
1659442962.722962,10655
1659442962.761194,10692
1659442962.804205,10728
1659442962.847216,10774
1659442962.88579,10787
1659442962.924363,10716
1659442962.962936,10565
1659442963.003899,10462
1659442963.044862,10392
1659442963.08446,10323
1659442963.124058,10289
1659442963.163655,10280
1659442963.205642,10310
1659442963.247629,10305
1659442963.285861,10326
1659442963.324093,10346
1659442963.362325,10376
1659442963.4038,10394
1659442963.445275,10417
1659442963.483507,10442
1659442963.521739,10464
1659442963.559972,10518
1659442963.603666,10546
1659442963.647359,10591
1659442963.691053,10576
1659442963.733552,10462
1659442963.776051,10329
1659442963.814966,10259
1659442963.853881,10234
1659442963.892796,10222
1659442963.931028,10248
1659442963.96926,10278
1659442964.007492,10297
1659442964.049991,10310
1659442964.09249,10326
1659442964.131405,10360
1659442964.17032,10386
1659442964.209235,10422
1659442964.25071,10449
1659442964.292185,10502
1659442964.331782,10554
1659442964.37138,10598
1659442964.410977,10568
1659442964.450233,10443
1659442964.48949,10360
1659442964.528746,10314
1659442964.569197,10293
1659442964.609648,10293
1659442964.648562,10312
1659442964.687477,10331
1659442964.726392,10346
1659442964.768891,10356
1659442964.81139,10369
1659442964.849622,10377
1659442964.887855,10403
1659442964.926087,10421
1659442964.96705,10437
1659442965.008013,10472
1659442965.047269,10498
1659442965.086525,10556
1659442965.125781,10556
1659442965.167256,10450
1659442965.208731,10319
1659442965.253449,10236
1659442965.298167,10203
1659442965.342885,10178
1659442965.381799,10197
1659442965.420714,10235
1659442965.459629,10276
1659442965.500592,10286
1659442965.541555,10299
1659442965.580129,10324
1659442965.618702,10350
1659442965.657275,10386
1659442965.699775,10423
1659442965.742274,10466
1659442965.780506,10506
1659442965.818738,10567
1659442965.85697,10604
1659442965.895543,10614
1659442965.934117,10525
1659442965.97269,10382
1659442966.013653,10305
1659442966.054616,10267
1659442966.093873,10256
1659442966.133129,10274
1659442966.172385,10320
1659442966.210958,10367
1659442966.249532,10414
1659442966.288105,10452
1659442966.32958,10497
1659442966.371055,10551
1659442966.410311,10587
1659442966.449568,10629
1659442966.488824,10662
1659442966.530299,10702
1659442966.571774,10739
1659442966.610688,10767
1659442966.649603,10800
1659442966.688518,10738
1659442966.729993,10606
1659442966.771468,10509
1659442966.815162,10479
1659442966.858856,10495
1659442966.90255,10509
1659442966.941464,10532
1659442966.980379,10542
1659442967.019294,10547
1659442967.061281,10561
1659442967.103268,10596
1659442967.141842,10633
1659442967.180415,10676
1659442967.218989,10717
1659442967.260976,10757
1659442967.302963,10807
1659442967.34256,10864
1659442967.382158,10915
1659442967.421755,10955
1659442967.460329,10948
1659442967.498902,10863
1659442967.537476,10772
1659442967.579463,10753
1659442967.62145,10767
1659442967.660706,10816
1659442967.699962,10873
1659442967.739218,10911
1659442967.779669,10930
1659442967.82012,10955
1659442967.858352,10972
1659442967.896584,10995
1659442967.934816,11025
1659442967.974072,11044
1659442968.013329,11066
1659442968.052585,11087
1659442968.09406,11112
1659442968.135535,11151
1659442968.175986,11146
1659442968.216437,11061
1659442968.255693,10951
1659442968.294949,10900
1659442968.334205,10907
1659442968.378241,10931
1659442968.422276,10981
1659442968.466311,11028
1659442968.499593,11055
1659442968.532876,11075
1659442968.577935,11086
1659442968.622994,11116
1659442968.668053,11120
1659442968.700824,11144
1659442968.733594,11177
1659442968.777629,11213
1659442968.821665,11243
1659442968.8657,11264
1659442968.904956,11242
1659442968.944212,11125
1659442968.983468,11032
1659442969.025455,10972
1659442969.067442,10974
1659442969.105333,10996
1659442969.143224,11035
1659442969.181115,11078
1659442969.220029,11096
1659442969.258944,11119
1659442969.297859,11141
1659442969.33831,11186
1659442969.378761,11208
1659442969.417676,11233
1659442969.456591,11278
1659442969.495505,11302
1659442969.537493,11339
1659442969.579479,11363
1659442969.618394,11327
1659442969.657309,11200
1659442969.696224,11109
1659442969.737187,11075
1659442969.77815,11076
1659442969.817747,11093
1659442969.857345,11135
1659442969.896942,11167
1659442969.93893,11190
1659442969.980917,11201
1659442970.019149,11221
1659442970.057381,11259
1659442970.095613,11289
1659442970.140331,11321
1659442970.185049,11349
1659442970.229767,11384
1659442970.263561,11423
1659442970.297355,11435
1659442970.341391,11362
1659442970.385426,11258
1659442970.429461,11166
1659442970.468376,11136
1659442970.507291,11139
1659442970.546206,11162
1659442970.588192,11196
1659442970.630179,11220
1659442970.668753,11210
1659442970.707326,11217
1659442970.7459,11246
1659442970.784815,11244
1659442970.82373,11254
1659442970.862644,11247
1659442970.905143,11267
1659442970.947643,11279
1659442970.986216,11305
1659442971.024789,11231
1659442971.063363,11099
1659442971.104326,11002
1659442971.145289,10953
1659442971.184204,10962
1659442971.223118,10977
1659442971.262033,11010
1659442971.30402,11038
1659442971.346007,11048
1659442971.384581,11033
1659442971.423154,11034
1659442971.461728,11055
1659442971.506104,11076
1659442971.550481,11103
1659442971.594857,11123
1659442971.63309,11148
1659442971.671322,11173
1659442971.709554,11157
1659442971.751029,11032
1659442971.792504,10873
1659442971.831419,10781
1659442971.870333,10743
1659442971.909248,10729
1659442971.951747,10744
1659442971.994246,10767
1659442972.03282,10808
1659442972.071393,10811
1659442972.109967,10822
1659442972.149223,10829
1659442972.188479,10844
1659442972.227735,10865
1659442972.268698,10898
1659442972.309661,10923
1659442972.348234,10958
1659442972.386808,11004
1659442972.425381,10956
1659442972.464638,10836
1659442972.503894,10722
1659442972.54315,10671
1659442972.584113,10635
1659442972.625076,10624
1659442972.665527,10644
1659442972.705978,10671
1659442972.745575,10696
1659442972.785173,10704
1659442972.82477,10719
1659442972.866757,10743
1659442972.908744,10777
1659442972.946977,10813
1659442972.985209,10868
1659442973.023441,10895
1659442973.0685,10935
1659442973.113559,10983
1659442973.158618,10985
1659442973.192925,10900
1659442973.227232,10795
1659442973.271608,10775
1659442973.315984,10787
1659442973.360361,10807
1659442973.401324,10839
1659442973.442287,10881
1659442973.481202,10900
1659442973.520117,10924
1659442973.559031,10947
1659442973.596922,10958
1659442973.634813,10989
1659442973.672704,11074
1659442973.714691,11133
1659442973.756678,11200
1659442973.795934,11250
1659442973.83519,11265
1659442973.874446,11188
1659442973.912678,11053
1659442973.950911,10936
1659442973.989143,10863
1659442974.03113,10836
1659442974.073117,10833
1659442974.112373,10874
1659442974.151629,10862
1659442974.190885,10767
1659442974.23236,10650
1659442974.273835,10539
1659442974.31275,10414
1659442974.351665,10238
1659442974.39058,10082
1659442974.432567,9957
1659442974.474554,9866
1659442974.512786,9778
1659442974.551018,9644
1659442974.58925,9432
1659442974.631237,9068
1659442974.673224,8586
1659442974.712139,8182
1659442974.751054,7886
1659442974.789969,7722
1659442974.834004,7680
1659442974.878039,7803
1659442974.922074,8004
1659442974.962525,8080
1659442975.002976,8096
1659442975.042232,8116
1659442975.081488,8181
1659442975.120744,8287
1659442975.16222,8382
1659442975.203695,8504
1659442975.242268,8654
1659442975.280842,8819
1659442975.319415,8978
1659442975.358671,9143
1659442975.397927,9221
1659442975.437183,9223
1659442975.478658,9160
1659442975.520133,9067
1659442975.558366,9009
1659442975.596598,8942
1659442975.63483,8935
1659442975.677329,8958
1659442975.719828,8990
1659442975.758401,9014
1659442975.796975,9051
1659442975.835548,9093
1659442975.874122,9137
1659442975.912695,9177
1659442975.951269,9191
1659442975.992744,9192
1659442976.034219,9174
1659442976.074157,9179
1659442976.114096,9224
1659442976.154035,9265
1659442976.195254,9227
1659442976.236473,9104
1659442976.277692,9020
1659442976.318911,8996
1659442976.36141,9014
1659442976.403909,9053
1659442976.442824,9114
1659442976.481739,9174
1659442976.520654,9213
1659442976.559569,9242
1659442976.598484,9262
1659442976.637398,9278
1659442976.678361,9320
1659442976.719324,9344
1659442976.758239,9390
1659442976.797154,9416
1659442976.836069,9449
1659442976.877544,9493
1659442976.919019,9493
1659442976.957592,9408
1659442976.996166,9310
1659442977.034739,9266
1659442977.079116,9230
1659442977.123492,9237
1659442977.167869,9260
1659442977.209344,9293
1659442977.250819,9319
1659442977.289734,9338
1659442977.328648,9363
1659442977.367563,9390
1659442977.40955,9419
1659442977.451537,9465
1659442977.490452,9518
1659442977.529367,9571
1659442977.568282,9606
1659442977.607197,9660
1659442977.646111,9704
1659442977.685026,9724
1659442977.727013,9665
1659442977.769,9557
1659442977.807915,9510
1659442977.84683,9494
1659442977.885745,9489
1659442977.926196,9509
1659442977.966647,9557
1659442978.005903,9593
1659442978.045159,9615
1659442978.084415,9636
1659442978.122306,9668
1659442978.160197,9716
1659442978.198087,9749
1659442978.240074,9785
1659442978.282061,9831
1659442978.320976,9866
1659442978.359891,9898
1659442978.398806,9941
1659442978.440281,9976
1659442978.481756,9993
1659442978.520671,9935
1659442978.559586,9819
1659442978.5985,9740
1659442978.640999,9701
1659442978.683498,9646
1659442978.727875,9611
1659442978.772252,9631
1659442978.816628,9638
1659442978.84991,9635
1659442978.883193,9610
1659442978.927911,9600
1659442978.972629,9592
1659442979.017347,9595
1659442979.05592,9592
1659442979.094494,9591
1659442979.133067,9603
1659442979.174542,9599
1659442979.216017,9590
1659442979.254932,9570
1659442979.293847,9545
1659442979.332762,9459
1659442979.373724,9333
1659442979.414687,9227
1659442979.453602,9169
1659442979.492517,9153
1659442979.531432,9171
1659442979.570688,9218
1659442979.609944,9272
1659442979.6492,9307
1659442979.6917,9326
1659442979.734199,9346
1659442979.772772,9367
1659442979.811346,9398
1659442979.849919,9433
1659442979.891906,9463
1659442979.933893,9509
1659442979.972466,9550
1659442980.01104,9619
1659442980.049613,9691
1659442980.0916,9736
1659442980.133587,9774
1659442980.172161,9838
1659442980.210734,9916
1659442980.249308,9969
1659442980.290783,10001
1659442980.332258,10031
1659442980.37049,10047
1659442980.408722,10088
1659442980.446954,10109
1659442980.491672,10142
1659442980.53639,10178
1659442980.581108,10198
1659442980.620023,10202
1659442980.658937,10218
1659442980.697852,10246
1659442980.739327,10276
1659442980.780802,10307
1659442980.819717,10314
1659442980.858632,10333
1659442980.897547,10352
1659442980.939022,10377
1659442980.980497,10414
1659442981.018729,10468
1659442981.056961,10521
1659442981.095193,10572
1659442981.134449,10635
1659442981.173705,10677
1659442981.212962,10720
1659442981.253925,10766
1659442981.294888,10782
1659442981.333802,10809
1659442981.372717,10830
1659442981.411632,10852
1659442981.452083,10846
1659442981.492534,10787
1659442981.532131,10644
1659442981.571729,10521
1659442981.611326,10441
1659442981.652802,10387
1659442981.694276,10400
1659442981.73285,10435
1659442981.771423,10459
1659442981.809997,10458
1659442981.850755,10473
1659442981.891513,10491
1659442981.932271,10518
1659442981.973029,10565
1659442982.013788,10622
1659442982.057823,10679
1659442982.101858,10750
1659442982.145893,10782
1659442982.179688,10825
1659442982.213482,10835
1659442982.257859,10822
1659442982.302235,10728
1659442982.346612,10676
1659442982.387575,10661
1659442982.428538,10646
1659442982.467794,10657
1659442982.50705,10683
1659442982.546306,10731
1659442982.585221,10755
1659442982.624136,10801
1659442982.663051,10847
1659442982.703501,10891
1659442982.743953,10927
1659442982.782867,10954
1659442982.821782,10975
1659442982.860697,10993
1659442982.899953,11020
1659442982.939209,11036
1659442982.978465,11045
1659442983.01994,11023
1659442983.061415,10894
1659442983.100672,10810
1659442983.139928,10771
1659442983.179184,10769
1659442983.221171,10786
1659442983.263158,10831
1659442983.301049,10867
1659442983.338939,10897
1659442983.37683,10922
1659442983.419329,10942
1659442983.461828,10976
1659442983.500402,10994
1659442983.538975,11033
1659442983.577549,11049
1659442983.618512,11087
1659442983.659475,11119
1659442983.697707,11127
1659442983.735939,11070
1659442983.774171,10967
1659442983.81923,10938
1659442983.86429,10922
1659442983.909349,10936
1659442983.950824,10972
1659442983.992299,11020
1659442984.030872,11056
1659442984.069446,11088
1659442984.108019,11111
1659442984.150518,11128
1659442984.193017,11169
1659442984.231591,11185
1659442984.270164,11207
1659442984.308738,11243
1659442984.347311,11265
1659442984.385885,11286
1659442984.424458,11250
1659442984.466957,11134
1659442984.509456,11072
1659442984.547688,11052
1659442984.58592,11069
1659442984.624152,11084
1659442984.665116,11136
1659442984.706079,11166
1659442984.744993,11193
1659442984.783908,11211
1659442984.822823,11228
1659442984.862079,11258
1659442984.901335,11289
1659442984.940591,11310
1659442984.981555,11335
1659442985.022517,11366
1659442985.061432,11385
1659442985.100347,11320
1659442985.139262,11197
1659442985.180737,11126
1659442985.222212,11106
1659442985.26693,11098
1659442985.311648,11119
1659442985.356365,11141
1659442985.39016,11185
1659442985.423954,11205
1659442985.469014,11218
1659442985.514073,11241
1659442985.559132,11262
1659442985.591391,11289
1659442985.623649,11316
1659442985.668025,11342
1659442985.712402,11365
1659442985.756778,11356
1659442985.796035,11246
1659442985.835291,11144
1659442985.874547,11090
1659442985.91551,11080
1659442985.956473,11080
1659442985.995046,11109
1659442986.03362,11145
1659442986.072193,11172
1659442986.11418,11180
1659442986.156168,11189
1659442986.195082,11219
1659442986.233997,11245
1659442986.272912,11266
1659442986.311827,11288
1659442986.350742,11331
1659442986.389656,11323
1659442986.431131,11253
1659442986.472606,11142
1659442986.511863,11088
1659442986.551119,11090
1659442986.590375,11095
1659442986.63185,11121
1659442986.673325,11153
1659442986.71224,11178
1659442986.751154,11186
1659442986.790069,11203
1659442986.83052,11215
1659442986.870971,11237
1659442986.908862,11266
1659442986.946753,11281
1659442986.984643,11303
1659442987.027143,11271
1659442987.069642,11161
1659442987.108556,11074
1659442987.147471,11032
1659442987.186386,11038
1659442987.230421,11051
1659442987.274457,11088
1659442987.318491,11109
1659442987.351774,11122
1659442987.385056,11131
1659442987.429774,11140
1659442987.474492,11160
1659442987.51921,11172
1659442987.560685,11199
1659442987.60216,11223
1659442987.641075,11223
1659442987.67999,11142
1659442987.718904,11036
1659442987.758161,10981
1659442987.797417,10965
1659442987.836673,10976
1659442987.877124,11003
1659442987.917575,11025
1659442987.95649,11043
1659442987.995404,11041
1659442988.034319,11054
1659442988.072893,11064
1659442988.111466,11091
1659442988.15004,11112
1659442988.192027,11137
1659442988.234014,11154
1659442988.272929,11100
1659442988.311843,10998
1659442988.350758,10910
1659442988.392745,10885
1659442988.434732,10898
1659442988.472965,10926
1659442988.511197,10972
1659442988.549429,10993
1659442988.591928,11012
1659442988.634427,11018
1659442988.673683,11046
1659442988.712939,11060
1659442988.752195,11073
1659442988.793158,11100
1659442988.834121,11119
1659442988.872695,11080
1659442988.911268,10968
1659442988.949842,10867
1659442988.992341,10816
1659442989.03484,10814
1659442989.078875,10835
1659442989.12291,10862
1659442989.166945,10889
1659442989.205519,10898
1659442989.244092,10904
1659442989.282666,10920
1659442989.324141,10935
1659442989.365616,10954
1659442989.404189,10982
1659442989.442763,11014
1659442989.481336,10992
1659442989.520251,10891
1659442989.559166,10765
1659442989.598081,10699
1659442989.640068,10661
1659442989.682055,10664
1659442989.720628,10682
1659442989.759202,10712
1659442989.797775,10720
1659442989.83669,10710
1659442989.875605,10734
1659442989.91452,10747
1659442989.956506,10775
1659442989.998494,10790
1659442990.037067,10811
1659442990.07564,10825
1659442990.114214,10754
1659442990.154665,10621
1659442990.195116,10519
1659442990.233689,10469
1659442990.272263,10446
1659442990.310836,10482
1659442990.352823,10501
1659442990.39481,10511
1659442990.438845,10534
1659442990.482881,10543
1659442990.526916,10552
1659442990.560198,10573
1659442990.593481,10594
1659442990.63854,10620
1659442990.683599,10640
1659442990.728658,10621
1659442990.767232,10488
1659442990.805805,10363
1659442990.844379,10267
1659442990.886878,10229
1659442990.929377,10221
1659442990.96795,10232
1659442991.006524,10269
1659442991.045097,10284
1659442991.087084,10291
1659442991.129071,10300
1659442991.167645,10318
1659442991.206218,10341
1659442991.244792,10362
1659442991.284048,10396
1659442991.323304,10408
1659442991.36256,10344
1659442991.404035,10196
1659442991.44551,10085
1659442991.484084,10008
1659442991.522657,9984
1659442991.561231,9991
1659442991.602706,10019
1659442991.644181,10045
1659442991.683095,10050
1659442991.72201,10070
1659442991.760925,10090
1659442991.799499,10115
1659442991.838072,10151
1659442991.876646,10176
1659442991.919657,10214
1659442991.962668,10223
1659442992.004143,10135
1659442992.045618,9985
1659442992.08385,9873
1659442992.122082,9829
1659442992.160314,9822
1659442992.204691,9849
1659442992.249067,9881
1659442992.293444,9905
1659442992.332359,9931
1659442992.371273,9945
1659442992.410188,9977
1659442992.448762,10015
1659442992.487335,10055
1659442992.525908,10096
1659442992.564823,10152
1659442992.603738,10169
1659442992.642653,10133
1659442992.683104,10014
1659442992.723555,9901
1659442992.762128,9842
1659442992.800702,9824
1659442992.839275,9835
1659442992.881774,9855
1659442992.924273,9885
1659442992.962847,9897
1659442993.00142,9905
1659442993.039994,9918
1659442993.080957,9938
1659442993.12192,9948
1659442993.161176,9941
1659442993.200432,9934
1659442993.239688,9960
1659442993.283723,9973
1659442993.327759,9899
1659442993.371794,9722
1659442993.410026,9572
1659442993.448258,9478
1659442993.48649,9438
1659442993.529501,9444
1659442993.572512,9462
1659442993.611086,9497
1659442993.649659,9512
1659442993.688233,9531
1659442993.726806,9566
1659442993.76538,9619
1659442993.803953,9696
1659442993.84594,9789
1659442993.887927,9862
1659442993.926842,9925
1659442993.965757,9937
1659442994.004672,9834
1659442994.046659,9718
1659442994.088646,9672
1659442994.127902,9642
1659442994.167158,9674
1659442994.206414,9725
1659442994.247889,9782
1659442994.289364,9809
1659442994.327938,9840
1659442994.366511,9856
1659442994.405085,9891
1659442994.447584,9918
1659442994.490083,9958
1659442994.528656,10015
1659442994.56723,10073
1659442994.605803,10077
1659442994.649838,9940
1659442994.693873,9756
1659442994.737909,9591
1659442994.770679,9428
1659442994.803449,9351
1659442994.847826,9317
1659442994.892203,9366
1659442994.936579,9435
1659442994.978054,9483
1659442995.019529,9510
1659442995.058785,9496
1659442995.098041,9459
1659442995.137298,9453
1659442995.176554,9467
1659442995.21581,9517
1659442995.255066,9580
1659442995.296029,9643
1659442995.336992,9702
1659442995.376248,9707
1659442995.415504,9594
1659442995.454761,9447
1659442995.496747,9330
1659442995.538735,9239
1659442995.576967,9192
1659442995.615199,9185
1659442995.653431,9165
1659442995.692004,9121
1659442995.730578,9087
1659442995.769151,9039
1659442995.810626,9009
1659442995.852101,8999
1659442995.891016,8972
1659442995.929931,8953
1659442995.968846,8952
1659442996.009297,8964
1659442996.049748,8956
1659442996.088662,8835
1659442996.127577,8588
1659442996.166492,8360
1659442996.208991,8218
1659442996.25149,8131
1659442996.289722,8113
1659442996.327955,8148
1659442996.366187,8169
1659442996.408174,8158
1659442996.450161,8153
1659442996.494879,8156
1659442996.539596,8175
1659442996.584314,8203
1659442996.622888,8240
1659442996.661461,8285
1659442996.700035,8326
1659442996.742022,8363
1659442996.784009,8288
1659442996.822924,8104
1659442996.861838,7934
1659442996.900753,7835
1659442996.941716,7794
1659442996.982679,7803
1659442997.021253,7839
1659442997.059826,7878
1659442997.0984,7900
1659442997.137997,7921
1659442997.177595,7950
1659442997.217192,7987
1659442997.258667,8040
1659442997.300142,8101
1659442997.339057,8161
1659442997.377972,8243
1659442997.416887,8300
1659442997.456143,8315
1659442997.495399,8246
1659442997.534655,8160
1659442997.57613,8160
1659442997.617605,8187
1659442997.65908,8272
1659442997.700555,8387
1659442997.743054,8514
1659442997.785553,8601
1659442997.824127,8701
1659442997.8627,8776
1659442997.901274,8863
1659442997.939847,8942
1659442997.97842,9002
1659442998.016994,9048
1659442998.059493,9162
1659442998.101992,9273
1659442998.140566,9351
1659442998.179139,9356
1659442998.217713,9313
1659442998.258163,9287
1659442998.298615,9318
1659442998.337871,9342
1659442998.377127,9394
1659442998.416383,9450
1659442998.457858,9498
1659442998.499333,9515
1659442998.537906,9504
1659442998.57648,9480
1659442998.615053,9466
1659442998.656528,9463
1659442998.698003,9443
1659442998.742721,9417
1659442998.787439,9405
1659442998.832157,9376
1659442998.870048,9335
1659442998.907938,9201
1659442998.945829,8978
1659442998.988328,8774
1659442999.030828,8663
1659442999.069401,8564
1659442999.107974,8519
1659442999.146548,8518
1659442999.18478,8519
1659442999.223012,8507
1659442999.261244,8481
1659442999.302719,8487
1659442999.344194,8491
1659442999.38345,8507
1659442999.422706,8534
1659442999.461963,8553
1659442999.503438,8598
1659442999.544913,8623
1659442999.584169,8584
1659442999.623425,8454
1659442999.662681,8307
1659442999.701596,8232
1659442999.740511,8204
1659442999.779426,8207
1659442999.821413,8237
1659442999.8634,8279
1659442999.902656,8287
1659442999.941912,8309
1659442999.981168,8326
1659443000.022643,8350
1659443000.064118,8397
1659443000.104569,8426
1659443000.14502,8473
1659443000.183594,8519
1659443000.222167,8565
1659443000.260741,8512
1659443000.305458,8380
1659443000.350176,8262
1659443000.394894,8198
1659443000.428689,8174
1659443000.462483,8177
1659443000.50686,8200
1659443000.551236,8238
1659443000.595613,8246
1659443000.628895,8254
1659443000.662178,8270
1659443000.706895,8305
1659443000.751613,8333
1659443000.796331,8369
1659443000.835588,8395
1659443000.874844,8432
1659443000.9141,8479
1659443000.956087,8467
1659443000.998074,8358
1659443001.03733,8226
1659443001.076586,8138
1659443001.115842,8095
1659443001.156293,8071
1659443001.196744,8088
1659443001.236,8118
1659443001.275257,8154
1659443001.314513,8152
1659443001.353428,8173
1659443001.392342,8202
1659443001.431257,8235
1659443001.471708,8270
1659443001.512159,8309
1659443001.550391,8353
1659443001.588623,8398
1659443001.626855,8437
1659443001.669354,8382
1659443001.711854,8247
1659443001.750427,8155
1659443001.789001,8109
1659443001.827574,8088
1659443001.868537,8094
1659443001.9095,8127
1659443001.949097,8169
1659443001.988695,8194
1659443002.028292,8206
1659443002.072328,8235
1659443002.116363,8276
1659443002.160398,8316
1659443002.19368,8349
1659443002.226963,8411
1659443002.272022,8450
1659443002.317081,8493
1659443002.362141,8459
1659443002.403104,8331
1659443002.444067,8231
1659443002.482299,8182
1659443002.520531,8164
1659443002.558763,8178
1659443002.597678,8216
1659443002.636592,8249
1659443002.675507,8268
1659443002.717494,8297
1659443002.759481,8315
1659443002.797116,8361
1659443002.834751,8400
1659443002.872386,8436
1659443002.91002,8474
1659443002.952007,8533
1659443002.993994,8568
1659443003.032568,8507
1659443003.071141,8381
1659443003.109715,8269
1659443003.151702,8221
1659443003.193689,8179
1659443003.238407,8173
1659443003.283125,8212
1659443003.327842,8229
1659443003.366757,8247
1659443003.405672,8253
1659443003.444587,8285
1659443003.48555,8314
1659443003.526513,8371
1659443003.565769,8400
1659443003.605025,8432
1659443003.644281,8488
1659443003.685244,8526
1659443003.726207,8522
1659443003.765464,8406
1659443003.80472,8278
1659443003.843976,8202
1659443003.883232,8172
1659443003.922488,8166
1659443003.961744,8194
1659443004.003219,8255
1659443004.044694,8290
1659443004.083268,8306
1659443004.121841,8339
1659443004.160415,8374
1659443004.202914,8420
1659443004.245413,8465
1659443004.283645,8518
1659443004.321877,8568
1659443004.360109,8623
1659443004.399024,8678
1659443004.437939,8639
1659443004.476854,8503
1659443004.517817,8384
1659443004.55878,8342
1659443004.600767,8319
1659443004.642754,8341
1659443004.680986,8390
1659443004.719218,8445
1659443004.75745,8485
1659443004.801826,8513
1659443004.846203,8560
1659443004.89058,8605
1659443004.922838,8652
1659443004.955096,8683
1659443004.999473,8719
1659443005.043849,8783
1659443005.088226,8789
1659443005.12202,8704
1659443005.155815,8561
1659443005.200874,8468
1659443005.245933,8424
1659443005.290993,8418
1659443005.329566,8437
1659443005.36814,8478
1659443005.406713,8523
1659443005.4487,8544
1659443005.490687,8563
1659443005.529261,8609
1659443005.567834,8659
1659443005.606407,8715
1659443005.648906,8767
1659443005.691406,8798
1659443005.729638,8832
1659443005.76787,8843
1659443005.806102,8728
1659443005.845358,8573
1659443005.884614,8480
1659443005.92387,8434
1659443005.964321,8423
1659443006.004772,8456
1659443006.043346,8506
1659443006.081919,8541
1659443006.120493,8571
1659443006.162992,8599
1659443006.205491,8629
1659443006.244747,8661
1659443006.284003,8693
1659443006.323259,8747
1659443006.364734,8798
1659443006.406209,8856
1659443006.445466,8822
1659443006.484722,8689
1659443006.523978,8555
1659443006.566477,8487
1659443006.608976,8461
1659443006.646867,8445
1659443006.684757,8471
1659443006.722648,8488
1659443006.767366,8503
1659443006.812084,8517
1659443006.856802,8531
1659443006.898277,8561
1659443006.939752,8596
1659443006.977984,8647
1659443007.016216,8705
1659443007.054448,8760
1659443007.096435,8765
1659443007.138422,8659
1659443007.177679,8478
1659443007.216935,8320
1659443007.256191,8224
1659443007.294423,8165
1659443007.332655,8149
1659443007.370887,8181
1659443007.412362,8224
1659443007.453837,8227
1659443007.493435,8245
1659443007.533032,8282
1659443007.57263,8316
1659443007.613593,8360
1659443007.654556,8401
1659443007.69347,8442
1659443007.732385,8468
1659443007.7713,8485
1659443007.809874,8397
1659443007.848447,8255
1659443007.887021,8165
1659443007.928496,8121
1659443007.96997,8118
1659443008.011446,8128
1659443008.052921,8169
1659443008.094396,8191
1659443008.13587,8219
1659443008.17837,8238
1659443008.220869,8276
1659443008.258759,8316
1659443008.29665,8356
1659443008.334541,8403
1659443008.373456,8452
1659443008.412371,8483
1659443008.451285,8444
1659443008.49276,8305
1659443008.534235,8204
1659443008.572809,8156
1659443008.611382,8146
1659443008.649956,8169
1659443008.692455,8219
1659443008.734954,8256
1659443008.77421,8281
1659443008.813466,8309
1659443008.852722,8348
1659443008.890954,8389
1659443008.929187,8424
1659443008.967419,8467
1659443009.008894,8505
1659443009.050369,8558
1659443009.092868,8558
1659443009.135367,8454
1659443009.17394,8317
1659443009.212514,8232
1659443009.251087,8191
1659443009.295464,8180
1659443009.33984,8197
1659443009.384217,8239
1659443009.417499,8272
1659443009.450782,8302
1659443009.495158,8315
1659443009.539535,8357
1659443009.583911,8397
1659443009.617706,8442
1659443009.6515,8468
1659443009.696559,8514
1659443009.741619,8575
1659443009.786678,8593
1659443009.825252,8518
1659443009.863825,8371
1659443009.902398,8267
1659443009.943362,8204
1659443009.984324,8186
1659443010.023581,8178
1659443010.062837,8206
1659443010.102093,8248
1659443010.140325,8275
1659443010.178557,8285
1659443010.216789,8317
1659443010.257752,8357
1659443010.298715,8403
1659443010.336947,8457
1659443010.375179,8504
1659443010.413411,8550
1659443010.45591,8611
1659443010.49841,8640
1659443010.536983,8565
1659443010.575557,8417
1659443010.61413,8335
1659443010.655605,8282
1659443010.69708,8288
1659443010.736336,8318
1659443010.775592,8358
1659443010.814848,8377
1659443010.856323,8368
1659443010.897799,8363
1659443010.936372,8367
1659443010.974945,8382
1659443011.013519,8413
1659443011.058237,8457
1659443011.102955,8493
1659443011.147673,8530
1659443011.180443,8543
1659443011.213213,8444
1659443011.257249,8301
1659443011.301284,8189
1659443011.345319,8120
1659443011.387306,8087
1659443011.429293,8084
1659443011.468208,8096
1659443011.507123,8093
1659443011.546037,8105
1659443011.58427,8098
1659443011.622502,8125
1659443011.660734,8132
1659443011.702721,8160
1659443011.744708,8191
1659443011.786695,8208
1659443011.828682,8233
1659443011.86094,8256
1659443011.893198,8268
1659443011.938258,8159
1659443011.983317,7983
1659443012.028376,7806
1659443012.070363,7689
1659443012.11235,7622
1659443012.151607,7588
1659443012.190863,7615
1659443012.230119,7650
1659443012.269034,7675
1659443012.307949,7685
1659443012.346864,7697
1659443012.388338,7724
1659443012.429813,7748
1659443012.467704,7796
1659443012.505595,7839
1659443012.543486,7897
1659443012.582742,7943
1659443012.621998,7994
1659443012.661254,8001
1659443012.703753,7886
1659443012.746252,7734
1659443012.784484,7650
1659443012.822716,7633
1659443012.860949,7639
1659443012.902936,7693
1659443012.944923,7740
1659443012.983838,7781
1659443013.022752,7808
1659443013.061667,7822
1659443013.103142,7841
1659443013.144617,7876
1659443013.183532,7923
1659443013.222447,7966
1659443013.261362,8007
1659443013.302325,8047
1659443013.343287,8089
1659443013.38152,8131
1659443013.419752,8091
1659443013.457984,7937
1659443013.50236,7778
1659443013.546737,7694
1659443013.591114,7672
1659443013.633613,7689
1659443013.676112,7725
1659443013.714002,7783
1659443013.751893,7819
1659443013.789784,7846
1659443013.831259,7861
1659443013.872734,7909
1659443013.91199,7929
1659443013.951246,7972
1659443013.990502,8024
1659443014.029076,8072
1659443014.067649,8129
1659443014.106223,8172
1659443014.14821,8226
1659443014.190197,8255
1659443014.229112,8182
1659443014.268027,8034
1659443014.306941,7920
1659443014.348416,7876
1659443014.389891,7862
1659443014.428123,7871
1659443014.466356,7912
1659443014.504588,7942
1659443014.544185,7970
1659443014.583783,7998
1659443014.62338,8035
1659443014.664343,8087
1659443014.705306,8154
1659443014.74388,8201
1659443014.782453,8260
1659443014.821027,8289
1659443014.862502,8333
1659443014.903976,8380
1659443014.948694,8402
1659443014.993412,8320
1659443015.03813,8161
1659443015.071925,8045
1659443015.105719,7985
1659443015.150437,7989
1659443015.195155,8009
1659443015.239873,8054
1659443015.273155,8090
1659443015.306438,8097
1659443015.350814,8105
1659443015.395191,8121
1659443015.439567,8159
1659443015.479165,8192
1659443015.518762,8250
1659443015.55836,8284
1659443015.599835,8323
1659443015.64131,8381
1659443015.679542,8383
1659443015.717774,8270
1659443015.756006,8097
1659443015.796969,7973
1659443015.837932,7920
1659443015.876847,7914
1659443015.915762,7949
1659443015.954677,7979
1659443015.99325,8015
1659443016.031823,8034
1659443016.070397,8052
1659443016.111872,8078
1659443016.153347,8108
1659443016.192603,8152
1659443016.231859,8203
1659443016.271116,8252
1659443016.309689,8294
1659443016.348262,8357
1659443016.386836,8371
1659443016.428311,8289
1659443016.469786,8106
1659443016.511773,7959
1659443016.55376,7893
1659443016.592333,7853
1659443016.630907,7857
1659443016.66948,7904
1659443016.710955,7944
1659443016.75243,7971
1659443016.791345,8000
1659443016.83026,8023
1659443016.869175,8048
1659443016.913551,8102
1659443016.957928,8148
1659443017.002304,8198
1659443017.034051,8240
1659443017.065797,8295
1659443017.110515,8330
1659443017.155233,8310
1659443017.199951,8166
1659443017.239207,7996
1659443017.278463,7907
1659443017.317719,7867
1659443017.359194,7863
1659443017.400669,7901
1659443017.439925,7944
1659443017.479182,7980
1659443017.518438,8008
1659443017.559913,8024
1659443017.601388,8057
1659443017.63962,8094
1659443017.677852,8139
1659443017.716084,8189
1659443017.75534,8232
1659443017.794596,8300
1659443017.833853,8366
1659443017.87584,8348
1659443017.917827,8222
1659443017.9564,8085
1659443017.994974,8030
1659443018.033547,7993
1659443018.075022,8017
1659443018.116497,8058
1659443018.155412,8105
1659443018.194327,8153
1659443018.233242,8177
1659443018.274717,8211
1659443018.316191,8267
1659443018.355448,8323
1659443018.394704,8373
1659443018.43396,8427
1659443018.475947,8461
1659443018.517934,8504
1659443018.559409,8528
1659443018.600884,8431
1659443018.642359,8265
1659443018.683834,8126
1659443018.72309,8063
1659443018.762347,8032
1659443018.801603,8066
1659443018.840176,8116
1659443018.87875,8168
1659443018.917323,8195
1659443018.95931,8211
1659443019.001297,8234
1659443019.039871,8284
1659443019.078444,8310
1659443019.117018,8349
1659443019.158493,8373
1659443019.199968,8415
1659443019.2382,8452
1659443019.276432,8488
1659443019.314664,8427
1659443019.356651,8252
1659443019.398638,8075
1659443019.443356,7962
1659443019.488074,7916
1659443019.532792,7895
1659443019.565562,7906
1659443019.598332,7914
1659443019.642709,7910
1659443019.687085,7920
1659443019.731462,7965
1659443019.770718,8017
1659443019.809974,8072
1659443019.849231,8128
1659443019.890706,8187
1659443019.93218,8240
1659443019.970754,8278
1659443020.009327,8294
1659443020.047901,8275
1659443020.088864,8114
1659443020.129827,7838
1659443020.1684,7625
1659443020.206974,7585
1659443020.245547,7582
1659443020.283779,7621
1659443020.322011,7731
1659443020.360244,7828
1659443020.402743,7902
1659443020.445242,7959
1659443020.484498,8017
1659443020.523754,8098
1659443020.56301,8180
1659443020.601584,8265
1659443020.640157,8310
1659443020.67873,8359
1659443020.720718,8374
1659443020.762705,8392
1659443020.805204,8394
1659443020.847703,8279
1659443020.886618,8179
1659443020.925532,8203
1659443020.964447,8270
1659443021.00541,8315
1659443021.046373,8377
1659443021.085629,8414
1659443021.124886,8432
1659443021.164142,8419
1659443021.207835,8391
1659443021.251529,8381
1659443021.295223,8355
1659443021.329018,8343
1659443021.362812,8336
1659443021.407871,8334
1659443021.452931,8345
1659443021.49799,8328
1659443021.530248,8203
1659443021.562506,7989
1659443021.606883,7818
1659443021.65126,7727
1659443021.695636,7694
1659443021.735234,7718
1659443021.774831,7759
1659443021.814429,7796
1659443021.855392,7820
1659443021.896355,7841
1659443021.934928,7865
1659443021.973502,7924
1659443022.012075,7955
1659443022.054574,7995
1659443022.097073,8054
1659443022.135988,8100
1659443022.174903,8142
1659443022.213818,8117
1659443022.252391,7986
1659443022.290965,7807
1659443022.329538,7709
1659443022.371013,7657
1659443022.412488,7650
1659443022.450379,7681
1659443022.48827,7719
1659443022.52616,7756
1659443022.568147,7810
1659443022.610134,7869
1659443022.649049,7927
1659443022.687964,8001
1659443022.726879,8044
1659443022.768354,8080
1659443022.809829,8123
1659443022.848402,8162
1659443022.886976,8197
1659443022.925549,8156
1659443022.968048,8016
1659443023.010547,7928
1659443023.055265,7882
1659443023.099983,7882
1659443023.144701,7922
1659443023.182933,7973
1659443023.221165,8026
1659443023.259397,8054
1659443023.301384,8084
1659443023.343371,8120
1659443023.381603,8149
1659443023.419836,8200
1659443023.458068,8237
1659443023.496641,8287
1659443023.535215,8332
1659443023.573788,8377
1659443023.616287,8341
1659443023.658786,8232
1659443023.69736,8124
1659443023.735933,8067
1659443023.774507,8036
1659443023.813421,8047
1659443023.852336,8099
1659443023.891251,8124
1659443023.933238,8140
1659443023.975225,8164
1659443024.01414,8184
1659443024.053055,8218
1659443024.09197,8243
1659443024.133957,8297
1659443024.175944,8320
1659443024.2152,8385
1659443024.254456,8408
1659443024.293712,8339
1659443024.335187,8219
1659443024.376662,8111
1659443024.415236,8038
1659443024.453809,8007
1659443024.492383,8010
1659443024.53437,8027
1659443024.576357,8046
1659443024.621075,8051
1659443024.665792,8056
1659443024.71051,8076
1659443024.742769,8098
1659443024.775027,8137
1659443024.816502,8174
1659443024.857977,8213
1659443024.899452,8253
1659443024.940927,8306
1659443024.982914,8304
1659443025.024901,8176
1659443025.063816,8041
1659443025.102731,7939
1659443025.141646,7892
1659443025.183121,7866
1659443025.224596,7881
1659443025.26351,7917
1659443025.302425,7945
1659443025.34134,7965
1659443025.380255,7979
1659443025.41917,8017
1659443025.458085,8049
1659443025.500072,8096
1659443025.542059,8147
1659443025.580973,8187
1659443025.619888,8238
1659443025.658803,8291
1659443025.699766,8309
1659443025.740729,8231
1659443025.77862,8080
1659443025.81651,7968
1659443025.854401,7921
1659443025.896388,7922
1659443025.938375,7944
1659443025.97729,7983
1659443026.016205,8017
1659443026.05512,8034
1659443026.096083,8058
1659443026.137046,8071
1659443026.181764,8108
1659443026.226481,8152
1659443026.271199,8193
1659443026.310456,8233
1659443026.349712,8285
1659443026.388968,8326
1659443026.430443,8297
1659443026.471918,8194
1659443026.511174,8065
1659443026.55043,8007
1659443026.589686,7993
1659443026.631161,8018
1659443026.672637,8056
1659443026.710869,8098
1659443026.749101,8130
1659443026.787333,8158
1659443026.826248,8182
1659443026.865162,8200
1659443026.904077,8208
1659443026.946576,8223
1659443026.989075,8236
1659443027.026966,8276
1659443027.064857,8297
1659443027.102748,8241
1659443027.144735,8078
1659443027.186722,7925
1659443027.226319,7865
1659443027.265917,7857
1659443027.305514,7898
1659443027.344088,7961
1659443027.382661,8047
1659443027.421235,8077
1659443027.463734,8094
1659443027.506233,8120
1659443027.550951,8135
1659443027.595669,8162
1659443027.640387,8183
1659443027.672645,8235
1659443027.704903,8271
1659443027.748938,8326
1659443027.792974,8319
1659443027.837009,8183
1659443027.871315,8016
1659443027.905622,7903
1659443027.949657,7861
1659443027.993692,7849
1659443028.037727,7889
1659443028.076301,7949
1659443028.114874,8000
1659443028.153448,8027
1659443028.194923,8050
1659443028.236398,8097
1659443028.27463,8142
1659443028.312862,8195
1659443028.351094,8247
1659443028.393081,8291
1659443028.435068,8349
1659443028.474324,8405
1659443028.51358,8395
1659443028.552837,8270
1659443028.59141,8125
1659443028.629983,8051
1659443028.668557,8021
1659443028.710032,8039
1659443028.751507,8090
1659443028.791105,8154
1659443028.830702,8209
1659443028.8703,8236
1659443028.911263,8261
1659443028.952225,8291
1659443028.991755,8338
1659443029.031284,8384
1659443029.070813,8441
1659443029.110343,8492
1659443029.149872,8551
1659443029.191859,8612
1659443029.233846,8651
1659443029.272078,8588
1659443029.31031,8454
1659443029.348542,8348
1659443029.387457,8313
1659443029.426372,8304
1659443029.465287,8325
1659443029.506762,8373
1659443029.548237,8407
1659443029.587834,8416
1659443029.627432,8437
1659443029.667029,8450
1659443029.707992,8489
1659443029.748955,8556
1659443029.790942,8612
1659443029.832929,8678
1659443029.871844,8741
1659443029.910759,8806
1659443029.949674,8830
1659443029.993709,8725
1659443030.037744,8557
1659443030.081779,8450
1659443030.115574,8412
1659443030.149368,8420
1659443030.193745,8461
1659443030.238121,8513
1659443030.282498,8561
1659443030.321071,8576
1659443030.359645,8623
1659443030.398218,8638
1659443030.440205,8663
1659443030.482192,8693
1659443030.521448,8693
1659443030.560704,8729
1659443030.599961,8782
1659443030.638875,8834
1659443030.67779,8805
1659443030.716705,8658
1659443030.75818,8464
1659443030.799655,8346
1659443030.838911,8316
1659443030.878168,8340
1659443030.917424,8413
1659443030.958899,8467
1659443031.000374,8524
1659443031.039289,8569
1659443031.078203,8631
1659443031.117118,8714
1659443031.155692,8779
1659443031.194265,8840
1659443031.232839,8867
1659443031.273289,8870
1659443031.31374,8857
1659443031.355727,8854
1659443031.397715,8803
1659443031.436971,8641
1659443031.476227,8454
1659443031.515483,8328
1659443031.559177,8255
1659443031.602871,8232
1659443031.646564,8254
1659443031.679847,8287
1659443031.713129,8310
1659443031.757506,8356
1659443031.801883,8403
1659443031.846259,8450
1659443031.879541,8515
1659443031.912824,8551
1659443031.956859,8601
1659443032.000894,8651
1659443032.044929,8712
1659443032.084527,8723
1659443032.124125,8624
1659443032.163722,8466
1659443032.204173,8364
1659443032.244624,8317
1659443032.282856,8301
1659443032.321088,8329
1659443032.35932,8381
1659443032.398235,8425
1659443032.43715,8452
1659443032.476065,8504
1659443032.518052,8545
1659443032.560039,8592
1659443032.598612,8657
1659443032.637186,8703
1659443032.675759,8772
1659443032.717746,8826
1659443032.759733,8808
1659443032.798306,8678
1659443032.83688,8554
1659443032.875453,8510
1659443032.917953,8512
1659443032.960452,8564
1659443032.999708,8627
1659443033.038964,8692
1659443033.07822,8739
1659443033.120207,8778
1659443033.162194,8824
1659443033.200426,8863
1659443033.238658,8909
1659443033.276891,8953
1659443033.31939,9010
1659443033.361889,9079
1659443033.400121,9091
1659443033.438353,9017
1659443033.476585,8873
1659443033.52062,8788
1659443033.564655,8755
1659443033.608691,8757
1659443033.650166,8789
1659443033.691641,8814
1659443033.730555,8830
1659443033.76947,8847
1659443033.808385,8859
1659443033.84986,8887
1659443033.891335,8940
1659443033.930591,8971
1659443033.969847,9026
1659443034.009104,9079
1659443034.047677,9103
1659443034.086251,9001
1659443034.124824,8804
1659443034.166299,8640
1659443034.207774,8532
1659443034.24703,8470
1659443034.286286,8476
1659443034.325542,8511
1659443034.364457,8555
1659443034.403372,8587
1659443034.442287,8620
1659443034.486322,8669
1659443034.530357,8730
1659443034.574393,8780
1659443034.607163,8832
1659443034.639933,8882
1659443034.68431,8912
1659443034.728686,8916
1659443034.773063,8776
1659443034.811295,8577
1659443034.849527,8407
1659443034.887759,8332
1659443034.929746,8340
1659443034.971733,8395
1659443035.010307,8496
1659443035.04888,8565
1659443035.087454,8638
1659443035.126369,8691
1659443035.165283,8750
1659443035.204198,8781
1659443035.245673,8803
1659443035.287148,8818
1659443035.326404,8807
1659443035.36566,8833
1659443035.404917,8846
1659443035.446904,8778
1659443035.488891,8614
1659443035.527123,8503
1659443035.565355,8451
1659443035.603587,8427
1659443035.645062,8465
1659443035.686537,8513
1659443035.725111,8533
1659443035.763684,8511
1659443035.802257,8486
1659443035.844244,8438
1659443035.886231,8439
1659443035.925488,8464
1659443035.964744,8536
1659443036.004,8627
1659443036.048377,8722
1659443036.092753,8772
1659443036.13713,8711
1659443036.1699,8550
1659443036.20267,8426
1659443036.24773,8356
1659443036.292789,8346
1659443036.337848,8394
1659443036.371643,8468
1659443036.405437,8520
1659443036.449814,8563
1659443036.49419,8612
1659443036.538567,8655
1659443036.57953,8694
1659443036.620493,8736
1659443036.659407,8754
1659443036.698322,8787
1659443036.737237,8829
1659443036.77581,8873
1659443036.814384,8851
1659443036.852957,8722
1659443036.894432,8552
1659443036.935907,8470
1659443036.974481,8446
1659443037.013054,8445
1659443037.051628,8487
1659443037.090201,8526
1659443037.128775,8565
1659443037.167348,8598
1659443037.209847,8623
1659443037.252346,8657
1659443037.291261,8704
1659443037.330176,8763
1659443037.369091,8791
1659443037.410054,8841
1659443037.451017,8883
1659443037.490273,8928
1659443037.529529,8884
1659443037.568785,8736
1659443037.610772,8591
1659443037.652759,8494
1659443037.691333,8469
1659443037.729906,8480
1659443037.76848,8532
1659443037.809443,8555
1659443037.850406,8559
1659443037.895123,8578
1659443037.939842,8588
1659443037.984559,8612
1659443038.02245,8635
1659443038.060341,8671
1659443038.098232,8713
1659443038.140218,8761
1659443038.182206,8799
1659443038.22112,8745
1659443038.260035,8603
1659443038.29895,8459
1659443038.340425,8382
1659443038.3819,8360
1659443038.420815,8376
1659443038.45973,8422
1659443038.498645,8456
1659443038.537901,8480
1659443038.577157,8506
1659443038.616413,8546
1659443038.657888,8597
1659443038.699363,8635
1659443038.738619,8696
1659443038.777875,8754
1659443038.817132,8808
1659443038.858607,8813
1659443038.900082,8681
1659443038.938655,8521
1659443038.977229,8439
1659443039.015802,8403
1659443039.054375,8434
1659443039.092949,8476
1659443039.131522,8512
1659443039.173509,8521
1659443039.215497,8543
1659443039.25407,8557
1659443039.292643,8610
1659443039.331217,8666
1659443039.372692,8723
1659443039.414167,8830
1659443039.456154,8947
1659443039.498141,9058
1659443039.540128,9009
1659443039.582115,8892
1659443039.62359,8808
1659443039.665065,8762
1659443039.704321,8765
1659443039.743577,8788
1659443039.782834,8822
1659443039.82209,8840
1659443039.861346,8825
1659443039.900602,8821
1659443039.941565,8826
1659443039.982528,8856
1659443040.021101,8894
1659443040.059675,8943
1659443040.098248,8986
1659443040.140235,9027
1659443040.182222,9036
1659443040.221137,8917
1659443040.260052,8742
1659443040.298967,8609
1659443040.339418,8538
1659443040.379869,8520
1659443040.418784,8532
1659443040.457698,8561
1659443040.496613,8556
1659443040.539112,8558
1659443040.581611,8563
1659443040.620185,8610
1659443040.658758,8653
1659443040.697332,8705
1659443040.741708,8782
1659443040.786085,8843
1659443040.830461,8916
1659443040.863744,8942
1659443040.897026,8868
1659443040.94072,8717
1659443040.984414,8615
1659443041.028108,8560
1659443041.066681,8546
1659443041.105255,8602
1659443041.143828,8678
1659443041.186327,8735
1659443041.228826,8779
1659443041.267058,8805
1659443041.30529,8824
1659443041.343523,8848
1659443041.384485,8857
1659443041.425448,8867
1659443041.464705,8907
1659443041.503961,8955
1659443041.543217,8932
1659443041.581449,8768
1659443041.619681,8580
1659443041.657913,8466
1659443041.700412,8383
1659443041.742911,8368
1659443041.782509,8397
1659443041.822106,8450
1659443041.861704,8468
1659443041.903179,8475
1659443041.944654,8485
1659443041.983569,8510
1659443042.022484,8566
1659443042.061399,8609
1659443042.103898,8662
1659443042.146397,8724
1659443042.18497,8778
1659443042.223544,8737
1659443042.262117,8591
1659443042.30308,8457
1659443042.344043,8383
1659443042.388761,8366
1659443042.433479,8370
1659443042.478197,8428
1659443042.516429,8488
1659443042.554661,8536
1659443042.592893,8567
1659443042.634368,8627
1659443042.675843,8688
1659443042.715441,8759
1659443042.755038,8854
1659443042.794636,8939
1659443042.836111,9017
1659443042.877586,9089
1659443042.916159,9140
1659443042.954732,9105
1659443042.993306,8964
1659443043.035805,8824
1659443043.078304,8732
1659443043.117219,8686
1659443043.156134,8665
1659443043.195049,8690
1659443043.233281,8728
1659443043.271513,8758
1659443043.309745,8789
1659443043.35122,8812
1659443043.392695,8856
1659443043.431951,8903
1659443043.471207,8966
1659443043.510463,9024
1659443043.548696,9081
1659443043.586928,9141
1659443043.62516,9191
1659443043.666123,9209
1659443043.707086,9084
1659443043.746001,8923
1659443043.784915,8818
1659443043.82383,8774
1659443043.865817,8766
1659443043.907804,8805
1659443043.949279,8866
1659443043.990754,8917
1659443044.029669,8954
1659443044.068584,8989
1659443044.107499,9038
1659443044.151875,9089
1659443044.196252,9141
1659443044.240628,9211
1659443044.274423,9269
1659443044.308217,9330
1659443044.352935,9380
1659443044.397653,9431
1659443044.442371,9363
1659443044.480603,9217
1659443044.518835,9100
1659443044.557067,9042
1659443044.598542,9051
1659443044.640017,9068
1659443044.678932,9118
1659443044.717847,9148
1659443044.756762,9180
1659443044.798237,9191
1659443044.839712,9235
1659443044.881186,9265
1659443044.922662,9300
1659443044.961576,9353
1659443045.000491,9405
1659443045.039406,9453
1659443045.080881,9485
1659443045.122356,9473
1659443045.161954,9318
1659443045.201551,9166
1659443045.241149,9056
1659443045.280063,9002
1659443045.318978,8994
1659443045.357893,9021
1659443045.400392,9074
1659443045.442891,9105
1659443045.481123,9126
1659443045.519356,9155
1659443045.557588,9194
1659443045.596161,9253
1659443045.634734,9298
1659443045.673308,9362
1659443045.716319,9403
1659443045.75933,9458
1659443045.797221,9504
1659443045.835112,9494
1659443045.873002,9378
1659443045.913965,9198
1659443045.954928,9080
1659443045.994526,9007
1659443046.034123,8992
1659443046.073721,9004
1659443046.115196,9047
1659443046.156671,9081
1659443046.201047,9102
1659443046.245424,9119
1659443046.289801,9141
1659443046.323595,9185
1659443046.357389,9224
1659443046.401766,9275
1659443046.446142,9319
1659443046.490519,9383
1659443046.52841,9421
1659443046.566301,9362
1659443046.604191,9212
1659443046.647202,9072
1659443046.690213,9015
1659443046.728104,8990
1659443046.765995,9019
1659443046.803886,9058
1659443046.844337,9099
1659443046.884788,9125
1659443046.924044,9143
1659443046.9633,9182
1659443047.002556,9216
1659443047.04113,9262
1659443047.079703,9319
1659443047.118277,9362
1659443047.158625,9423
1659443047.198974,9491
1659443047.239322,9455
1659443047.279671,9306
1659443047.320019,9155
1659443047.361494,9067
1659443047.402969,9035
1659443047.441543,9026
1659443047.480116,9060
1659443047.51869,9118
1659443047.561189,9149
1659443047.603688,9176
1659443047.642602,9197
1659443047.681517,9243
1659443047.720432,9292
1659443047.760883,9345
1659443047.801334,9394
1659443047.840249,9423
1659443047.879164,9489
1659443047.918078,9518
1659443047.960577,9455
1659443048.003077,9273
1659443048.04165,9101
1659443048.080224,9006
1659443048.118797,8968
1659443048.163173,8956
1659443048.20755,8994
1659443048.251927,9060
1659443048.293914,9087
1659443048.335901,9117
1659443048.374133,9136
1659443048.412365,9181
1659443048.450597,9218
1659443048.493096,9271
1659443048.535595,9316
1659443048.574851,9363
1659443048.614107,9424
1659443048.653364,9474
1659443048.691937,9464
1659443048.73051,9312
1659443048.769084,9129
1659443048.810047,9020
1659443048.85101,8976
1659443048.890608,8961
1659443048.930205,8988
1659443048.969803,9045
1659443049.010253,9091
1659443049.050704,9127
1659443049.089278,9138
1659443049.127851,9168
1659443049.166425,9220
1659443049.204998,9260
1659443049.243572,9317
1659443049.282145,9365
1659443049.324644,9416
1659443049.367143,9472
1659443049.405717,9533
1659443049.44429,9485
1659443049.482864,9330
1659443049.524339,9184
1659443049.565814,9104
1659443049.60507,9075
1659443049.644326,9076
1659443049.683582,9102
1659443049.725057,9104
1659443049.766532,9114
1659443049.81125,9112
1659443049.855968,9124
1659443049.900686,9175
1659443049.93926,9213
1659443049.977833,9262
1659443050.016406,9303
1659443050.056857,9349
1659443050.097308,9392
1659443050.135882,9446
1659443050.174455,9392
1659443050.213029,9231
1659443050.251943,9080
1659443050.290858,9003
1659443050.329773,8976
1659443050.371248,8961
1659443050.412723,9010
1659443050.451638,9057
1659443050.490553,9091
1659443050.529468,9114
1659443050.571967,9142
1659443050.614466,9180
1659443050.653039,9220
1659443050.691612,9268
1659443050.730186,9301
1659443050.769442,9346
1659443050.808698,9390
1659443050.847955,9436
1659443050.889941,9422
1659443050.931929,9311
1659443050.970161,9154
1659443051.008393,9077
1659443051.046625,9052
1659443051.087588,9071
1659443051.128551,9126
1659443051.17361,9206
1659443051.218669,9262
1659443051.263729,9300
1659443051.297011,9338
1659443051.330293,9370
1659443051.374329,9380
1659443051.418364,9412
1659443051.462399,9442
1659443051.495682,9471
1659443051.528964,9521
1659443051.57334,9559
1659443051.617717,9593
1659443051.662093,9525
1659443051.700667,9364
1659443051.73924,9230
1659443051.777814,9181
1659443051.820825,9151
1659443051.863836,9155
1659443051.90241,9202
1659443051.940983,9237
1659443051.979557,9277
1659443052.020519,9286
1659443052.061482,9322
1659443052.100739,9362
1659443052.139995,9416
1659443052.179251,9465
1659443052.218166,9520
1659443052.257081,9577
1659443052.295995,9629
1659443052.336446,9704
1659443052.376897,9695
1659443052.415812,9588
1659443052.454727,9473
1659443052.493642,9420
1659443052.531533,9413
1659443052.569423,9437
1659443052.607314,9488
1659443052.649301,9531
1659443052.691288,9580
1659443052.732763,9603
1659443052.774238,9641
1659443052.813153,9684
1659443052.852068,9725
1659443052.890982,9775
1659443052.935018,9817
1659443052.979053,9865
1659443053.023088,9913
1659443053.056882,9952
1659443053.090677,9893
1659443053.135395,9746
1659443053.180113,9661
1659443053.224831,9614
1659443053.257089,9608
1659443053.289347,9596
1659443053.333724,9620
1659443053.3781,9649
1659443053.422477,9649
1659443053.461392,9657
1659443053.500307,9671
1659443053.539221,9682
1659443053.580696,9696
1659443053.622171,9710
1659443053.661086,9704
1659443053.700001,9708
1659443053.738916,9731
1659443053.780903,9744
1659443053.82289,9693
1659443053.861805,9508
1659443053.90072,9330
1659443053.939634,9217
1659443053.978549,9177
1659443054.017464,9157
1659443054.056379,9189
1659443054.098878,9245
1659443054.141377,9278
1659443054.17995,9302
1659443054.218524,9335
1659443054.257097,9366
1659443054.298572,9411
1659443054.340047,9460
1659443054.378962,9509
1659443054.417877,9565
1659443054.456792,9626
1659443054.498779,9679
1659443054.540766,9674
1659443054.579339,9511
1659443054.617913,9340
1659443054.656486,9224
1659443054.697449,9172
1659443054.738412,9145
1659443054.777327,9165
1659443054.816242,9194
1659443054.855157,9234
1659443054.899192,9265
1659443054.943227,9285
1659443054.987262,9323
1659443055.029761,9374
1659443055.07226,9420
1659443055.111516,9460
1659443055.150773,9503
1659443055.190029,9538
1659443055.230992,9573
1659443055.271955,9578
1659443055.31087,9426
1659443055.349784,9253
1659443055.388699,9134
1659443055.427614,9059
1659443055.466529,9010
1659443055.505444,9016
1659443055.546919,9047
1659443055.588394,9068
1659443055.626626,9084
1659443055.664858,9094
1659443055.70309,9116
1659443055.742005,9134
1659443055.78092,9166
1659443055.819834,9203
1659443055.860285,9251
1659443055.900736,9310
1659443055.939992,9364
1659443055.979249,9423
1659443056.018505,9381
1659443056.060492,9224
1659443056.102479,9065
1659443056.140711,8955
1659443056.178943,8901
1659443056.217175,8869
1659443056.25865,8913
1659443056.300125,8967
1659443056.345526,8987
1659443056.390926,8986
1659443056.436327,9023
1659443056.469609,9091
1659443056.502892,9178
1659443056.546927,9266
1659443056.590962,9329
1659443056.634997,9390
1659443056.673912,9438
1659443056.712827,9486
1659443056.751742,9511
1659443056.792705,9434
1659443056.833668,9255
1659443056.872583,9105
1659443056.911498,9023
1659443056.950412,8943
1659443056.992399,8933
1659443057.034386,8954
1659443057.073301,8972
1659443057.112216,8975
1659443057.151131,8980
1659443057.190046,9001
1659443057.228961,9053
1659443057.267875,9122
1659443057.310374,9192
1659443057.352873,9248
1659443057.391447,9312
1659443057.43002,9369
1659443057.468594,9438
1659443057.510069,9407
1659443057.551544,9268
1659443057.5908,9105
1659443057.630056,9008
1659443057.669312,8949
1659443057.707886,8932
1659443057.746459,8952
1659443057.785033,8996
1659443057.82702,9017
1659443057.869007,9018
1659443057.910482,9028
1659443057.951957,9053
1659443057.990872,9092
1659443058.029786,9143
1659443058.068701,9179
1659443058.112395,9219
1659443058.156089,9272
1659443058.199783,9327
1659443058.233577,9313
1659443058.267372,9145
1659443058.311748,8953
1659443058.356125,8811
1659443058.400501,8717
1659443058.439075,8656
1659443058.477648,8661
1659443058.516222,8683
1659443058.557697,8696
1659443058.599172,8701
1659443058.638087,8700
1659443058.677001,8720
1659443058.715916,8745
1659443058.754148,8771
1659443058.79238,8799
1659443058.830612,8834
1659443058.872599,8873
1659443058.914587,8927
1659443058.95316,8916
1659443058.991733,8766
1659443059.030307,8593
1659443059.06888,8469
1659443059.107454,8417
1659443059.146027,8367
1659443059.18699,8379
1659443059.227953,8442
1659443059.270452,8492
1659443059.312951,8536
1659443059.352207,8572
1659443059.391464,8616
1659443059.43072,8672
1659443059.471683,8738
1659443059.512646,8797
1659443059.551902,8855
1659443059.591158,8920
1659443059.630414,8973
1659443059.675132,9026
1659443059.71985,9048
1659443059.764568,8942
1659443059.798362,8741
1659443059.832157,8603
1659443059.876534,8511
1659443059.92091,8469
1659443059.965286,8474
1659443060.005738,8509
1659443060.046188,8547
1659443060.084762,8558
1659443060.123335,8572
1659443060.161909,8592
1659443060.201506,8629
1659443060.241104,8671
1659443060.280701,8706
1659443060.322176,8745
1659443060.363651,8771
1659443060.402566,8809
1659443060.441481,8843
1659443060.480396,8867
1659443060.519652,8863
1659443060.558908,8750
1659443060.598164,8588
1659443060.637079,8482
1659443060.675994,8446
1659443060.714909,8442
1659443060.759285,8487
1659443060.803662,8536
1659443060.848038,8579
1659443060.890538,8611
1659443060.933037,8637
1659443060.972293,8673
1659443061.011549,8712
1659443061.050805,8764
1659443061.091256,8810
1659443061.131707,8867
1659443061.170622,8917
1659443061.209537,8975
1659443061.248451,9042
1659443061.286684,9059
1659443061.324916,8944
1659443061.363148,8801
1659443061.404623,8707
1659443061.446098,8679
1659443061.485013,8710
1659443061.523927,8769
1659443061.562842,8847
1659443061.604317,8925
1659443061.645792,8996
1659443061.684024,9040
1659443061.722256,9064
1659443061.760489,9077
1659443061.800086,9095
1659443061.839684,9124
1659443061.879281,9145
1659443061.920756,9175
1659443061.962231,9211
1659443062.000805,9177
1659443062.039378,9029
1659443062.077951,8843
1659443062.119426,8726
1659443062.160902,8709
1659443062.205619,8723
1659443062.250337,8763
1659443062.295055,8807
1659443062.333629,8858
1659443062.372202,8865
1659443062.410776,8858
1659443062.452763,8870
1659443062.49475,8901
1659443062.532982,8947
1659443062.571214,8987
1659443062.609446,9020
1659443062.648019,9043
1659443062.686593,9073
1659443062.725166,9097
1659443062.767665,8991
1659443062.810164,8760
1659443062.849421,8558
1659443062.888677,8469
1659443062.927933,8404
1659443062.968896,8391
1659443063.009859,8421
1659443063.049115,8448
1659443063.088371,8471
1659443063.127627,8483
1659443063.166201,8508
1659443063.204774,8553
1659443063.243348,8612
1659443063.285847,8672
1659443063.328346,8733
1659443063.36692,8788
1659443063.405493,8823
1659443063.444066,8874
1659443063.485541,8855
1659443063.527016,8703
1659443063.56559,8508
1659443063.604163,8412
1659443063.642737,8376
1659443063.684724,8382
1659443063.726711,8444
1659443063.77177,8505
1659443063.816829,8581
1659443063.861889,8610
1659443063.895171,8637
1659443063.928453,8673
1659443063.972489,8717
1659443064.016524,8782
1659443064.060559,8851
1659443064.099474,8927
1659443064.138389,8996
1659443064.177304,9059
1659443064.218778,9107
1659443064.260253,9107
1659443064.299168,8979
1659443064.338083,8823
1659443064.376998,8740
1659443064.41523,8719
1659443064.453462,8736
1659443064.491694,8789
1659443064.533169,8858
1659443064.574644,8900
1659443064.612876,8910
1659443064.651109,8925
1659443064.689341,8929
1659443064.731328,8948
1659443064.773315,8974
1659443064.812229,8987
1659443064.851144,9005
1659443064.890059,9029
1659443064.928291,9070
1659443064.966523,9115
1659443065.004755,9080
1659443065.046742,8936
1659443065.088729,8801
1659443065.131741,8733
1659443065.174752,8715
1659443065.213325,8732
1659443065.251899,8785
1659443065.290472,8804
1659443065.331947,8790
1659443065.373422,8790
1659443065.412678,8814
1659443065.451934,8865
1659443065.491191,8926
1659443065.535226,8982
1659443065.579261,9015
1659443065.623296,9063
1659443065.656066,9135
1659443065.688837,9205
1659443065.728571,9211
1659443065.768305,9071
1659443065.808039,8888
1659443065.847773,8761
1659443065.887507,8721
1659443065.929238,8728
1659443065.970969,8756
1659443066.0127,8795
1659443066.054431,8828
1659443066.093688,8851
1659443066.132944,8867
1659443066.1722,8891
1659443066.214187,8940
1659443066.256174,8965
1659443066.29543,9026
1659443066.334686,9074
1659443066.373942,9137
1659443066.41593,9207
1659443066.457916,9274
1659443066.496149,9243
1659443066.534381,9149
1659443066.572613,9107
1659443066.615112,9095
1659443066.657611,9115
1659443066.702329,9138
1659443066.747047,9165
1659443066.791765,9191
1659443066.829997,9186
1659443066.868229,9206
1659443066.906461,9220
1659443066.946912,9243
1659443066.987363,9260
1659443067.02696,9298
1659443067.066558,9332
1659443067.106155,9371
1659443067.14763,9423
1659443067.189106,9415
1659443067.227679,9289
1659443067.266253,9124
1659443067.304826,9044
1659443067.343741,9046
1659443067.382655,9076
1659443067.42157,9148
1659443067.463045,9213
1659443067.50452,9272
1659443067.542753,9304
1659443067.580985,9336
1659443067.619217,9365
1659443067.661716,9411
1659443067.704215,9466
1659443067.742447,9513
1659443067.780679,9567
1659443067.818911,9616
1659443067.857485,9640
1659443067.896058,9550
1659443067.934631,9434
1659443067.975595,9372
1659443068.016557,9369
1659443068.055814,9412
1659443068.09507,9457
1659443068.134326,9483
1659443068.175289,9472
1659443068.216252,9396
1659443068.260628,9289
1659443068.305005,9211
1659443068.349381,9157
1659443068.388296,9136
1659443068.427211,9140
1659443068.466126,9147
1659443068.507089,9131
1659443068.548052,9057
1659443068.587649,8825
1659443068.627247,8621
1659443068.666844,8518
1659443068.708832,8464
1659443068.750818,8467
1659443068.789051,8512
1659443068.827283,8572
1659443068.865515,8617
1659443068.90443,8676
1659443068.943344,8750
1659443068.982259,8822
1659443069.024246,8873
1659443069.066233,8876
1659443069.105148,8879
1659443069.144063,8901
1659443069.182978,8900
1659443069.223941,8788
1659443069.264904,8594
1659443069.30416,8428
1659443069.343416,8325
1659443069.382672,8264
1659443069.421587,8227
1659443069.460502,8225
1659443069.499417,8257
1659443069.541404,8265
1659443069.583391,8286
1659443069.625378,8314
1659443069.667365,8347
1659443069.706621,8390
1659443069.745877,8456
1659443069.785133,8527
1659443069.828827,8615
1659443069.872521,8622
1659443069.916215,8500
1659443069.950521,8385
1659443069.984828,8330
1659443070.02818,8314
1659443070.071533,8346
1659443070.114885,8393
1659443070.147144,8454
1659443070.179402,8492
1659443070.223778,8503
1659443070.268155,8499
1659443070.312531,8488
1659443070.351788,8529
1659443070.391044,8583
1659443070.4303,8671
1659443070.471775,8745
1659443070.51325,8791
1659443070.552165,8739
1659443070.59108,8603
1659443070.629995,8523
1659443070.671982,8503
1659443070.713969,8506
1659443070.752201,8540
1659443070.790433,8616
1659443070.828665,8645
1659443070.86758,8653
1659443070.906495,8665
1659443070.945409,8660
1659443070.987908,8665
1659443071.030408,8685
1659443071.068298,8723
1659443071.106189,8763
1659443071.14408,8805
1659443071.185555,8765
1659443071.22703,8599
1659443071.265603,8452
1659443071.304177,8373
1659443071.34275,8359
1659443071.384737,8384
1659443071.426724,8447
1659443071.465298,8516
1659443071.503871,8572
1659443071.542445,8609
1659443071.587162,8642
1659443071.631881,8682
1659443071.676598,8714
1659443071.708857,8762
1659443071.741115,8789
1659443071.785833,8831
1659443071.830551,8849
1659443071.875269,8737
1659443071.91828,8579
1659443071.961291,8471
1659443071.999864,8428
1659443072.038438,8407
1659443072.077011,8438
1659443072.115926,8483
1659443072.154841,8523
1659443072.193756,8552
1659443072.235231,8584
1659443072.276706,8610
1659443072.315621,8660
1659443072.354535,8718
1659443072.39345,8763
1659443072.434925,8833
1659443072.4764,8881
1659443072.515315,8881
1659443072.55423,8780
1659443072.593145,8616
1659443072.631718,8510
1659443072.670292,8473
1659443072.708865,8453
1659443072.750852,8478
1659443072.792839,8534
1659443072.832095,8571
1659443072.871351,8597
1659443072.910608,8633
1659443072.952083,8672
1659443072.993558,8722
1659443073.032472,8762
1659443073.071387,8793
1659443073.110302,8836
1659443073.152289,8892
1659443073.194276,8930
1659443073.233191,8893
1659443073.272106,8749
1659443073.311021,8603
1659443073.351472,8531
1659443073.391922,8497
1659443073.436299,8506
1659443073.480676,8573
1659443073.525052,8625
1659443073.563284,8665
1659443073.601516,8699
1659443073.639748,8736
1659443073.681736,8769
1659443073.723722,8828
1659443073.762637,8869
1659443073.801552,8923
1659443073.840467,9001
1659443073.882454,9064
1659443073.924441,9123
1659443073.963015,9115
1659443074.001588,8995
1659443074.040161,8843
1659443074.078735,8747
1659443074.117308,8684
1659443074.155882,8659
1659443074.197869,8681
1659443074.239856,8712
1659443074.279112,8751
1659443074.318368,8776
1659443074.357625,8795
1659443074.395857,8834
1659443074.434089,8881
1659443074.472321,8923
1659443074.514308,8963
1659443074.556295,9021
1659443074.594527,9061
1659443074.632759,9127
1659443074.670991,9164
1659443074.712978,9148
1659443074.754965,9016
1659443074.79644,8870
1659443074.837915,8765
1659443074.877171,8715
1659443074.916428,8708
1659443074.955684,8735
1659443075.00006,8792
1659443075.044437,8823
1659443075.088813,8842
1659443075.12312,8875
1659443075.157426,8922
1659443075.201803,8964
1659443075.246179,9016
1659443075.290556,9072
1659443075.323326,9068
1659443075.356097,9035
1659443075.400815,9037
1659443075.445533,9097
1659443075.49025,9132
1659443075.529507,9065
1659443075.568763,8930
1659443075.608019,8864
1659443075.649494,8846
1659443075.690969,8846
1659443075.729884,8882
1659443075.768799,8909
1659443075.807714,8932
1659443075.848676,8927
1659443075.889639,8938
1659443075.927871,8958
1659443075.966104,8976
1659443076.004336,9009
1659443076.043933,9038
1659443076.083531,9084
1659443076.123128,9121
1659443076.162043,9167
1659443076.200958,9207
1659443076.239873,9134
1659443076.281348,8984
1659443076.322823,8850
1659443076.364298,8776
1659443076.405773,8744
1659443076.445029,8750
1659443076.484285,8781
1659443076.523541,8813
1659443076.567235,8824
1659443076.610929,8830
1659443076.654623,8847
1659443076.687393,8867
1659443076.720163,8905
1659443076.764881,8950
1659443076.809599,8998
1659443076.854317,9046
1659443076.892208,9100
1659443076.930099,9138
1659443076.967989,9078
1659443077.010489,8928
1659443077.052988,8776
1659443077.091902,8698
1659443077.130817,8643
1659443077.169732,8633
1659443077.211207,8666
1659443077.252682,8723
1659443077.291597,8753
1659443077.330512,8782
1659443077.369426,8814
1659443077.408341,8837
1659443077.447256,8889
1659443077.486171,8924
1659443077.527646,8971
1659443077.569121,9041
1659443077.608377,9090
1659443077.647633,9151
1659443077.686889,9204
1659443077.728364,9165
1659443077.76984,9026
1659443077.808413,8891
1659443077.846986,8826
1659443077.88556,8774
1659443077.927547,8771
1659443077.969534,8795
1659443078.008449,8829
1659443078.047364,8869
1659443078.086278,8889
1659443078.127241,8915
1659443078.168204,8956
1659443078.207119,9006
1659443078.246034,9047
1659443078.284949,9113
1659443078.330008,9158
1659443078.375067,9212
1659443078.420126,9278
1659443078.462626,9330
1659443078.505125,9323
1659443078.543698,9223
1659443078.582272,9101
1659443078.620845,9036
1659443078.662832,9011
1659443078.704819,9015
1659443078.743392,9047
1659443078.781966,9090
1659443078.820539,9117
1659443078.859113,9143
1659443078.897686,9170
1659443078.93626,9205
1659443078.978247,9246
1659443079.020234,9297
1659443079.059149,9345
1659443079.098063,9388
1659443079.136978,9442
1659443079.177429,9485
1659443079.21788,9530
1659443079.256795,9475
1659443079.29571,9350
1659443079.334625,9234
1659443079.374222,9180
1659443079.41382,9168
1659443079.453417,9180
1659443079.49438,9214
1659443079.535343,9236
1659443079.573917,9265
1659443079.61249,9273
1659443079.651064,9293
1659443079.693563,9336
1659443079.736062,9367
1659443079.774976,9417
1659443079.813891,9453
1659443079.852806,9503
1659443079.893257,9535
1659443079.933708,9588
1659443079.977743,9617
1659443080.021778,9564
1659443080.065814,9408
1659443080.099096,9276
1659443080.132378,9215
1659443080.176072,9199
1659443080.219766,9202
1659443080.26346,9212
1659443080.303399,9239
1659443080.343338,9247
1659443080.383277,9242
1659443080.424752,9258
1659443080.466227,9290
1659443080.504459,9329
1659443080.542691,9355
1659443080.580923,9394
1659443080.62291,9445
1659443080.664897,9497
1659443080.704494,9542
1659443080.744092,9570
1659443080.783689,9491
1659443080.821922,9350
1659443080.860154,9264
1659443080.898386,9221
1659443080.940373,9230
1659443080.98236,9258
1659443081.020933,9304
1659443081.059507,9345
1659443081.09808,9370
1659443081.136654,9390
1659443081.175227,9412
1659443081.213801,9454
1659443081.2563,9475
1659443081.298799,9501
1659443081.340274,9540
1659443081.381749,9570
1659443081.419981,9610
1659443081.458213,9624
1659443081.496445,9549
1659443081.538432,9389
1659443081.580419,9308
1659443081.622406,9285
1659443081.664393,9288
1659443081.702967,9331
1659443081.74154,9357
1659443081.780114,9388
1659443081.821589,9383
1659443081.863064,9380
1659443081.902661,9395
1659443081.942259,9431
1659443081.981856,9470
1659443082.02043,9508
1659443082.059003,9560
1659443082.097577,9605
1659443082.13854,9653
1659443082.179503,9611
1659443082.221234,9487
1659443082.262965,9384
1659443082.304696,9355
1659443082.346427,9368
1659443082.384659,9409
1659443082.422891,9464
1659443082.461123,9501
1659443082.499696,9540
1659443082.53827,9559
1659443082.576844,9590
1659443082.61883,9632
1659443082.660817,9666
1659443082.699732,9693
1659443082.738647,9742
1659443082.777562,9784
1659443082.819037,9774
1659443082.860512,9668
1659443082.90523,9528
1659443082.949948,9461
1659443082.994666,9442
1659443083.033239,9452
1659443083.071813,9486
1659443083.110386,9521
1659443083.151349,9542
1659443083.192312,9552
1659443083.231568,9583
1659443083.270824,9610
1659443083.310081,9641
1659443083.350531,9681
1659443083.390982,9727
1659443083.429556,9763
1659443083.468129,9780
1659443083.506703,9688
1659443083.545276,9512
1659443083.58385,9394
1659443083.622423,9335
1659443083.664922,9309
1659443083.707421,9339
1659443083.745995,9377
1659443083.784568,9425
1659443083.823142,9437
1659443083.862398,9456
1659443083.901654,9493
1659443083.94091,9521
1659443083.982897,9560
1659443084.024884,9602
1659443084.063458,9652
1659443084.102031,9709
1659443084.140605,9714
1659443084.183104,9582
1659443084.225603,9417
1659443084.268102,9331
1659443084.310601,9274
1659443084.348833,9252
1659443084.387065,9265
1659443084.425297,9312
1659443084.469674,9324
1659443084.51405,9343
1659443084.558427,9365
1659443084.592733,9382
1659443084.62704,9427
1659443084.670734,9465
1659443084.714427,9517
1659443084.758121,9540
1659443084.796695,9591
1659443084.835268,9560
1659443084.873842,9424
1659443084.915829,9266
1659443084.957816,9158
1659443084.996389,9104
1659443085.034963,9075
1659443085.073536,9113
1659443085.115523,9144
1659443085.15751,9177
1659443085.196766,9204
1659443085.236022,9231
1659443085.275279,9260
1659443085.313511,9299
1659443085.351743,9345
1659443085.389975,9372
1659443085.430938,9438
1659443085.471901,9483
1659443085.511157,9538
1659443085.550413,9543
1659443085.589669,9404
1659443085.631145,9255
1659443085.67262,9160
1659443085.711193,9124
1659443085.749766,9100
1659443085.78834,9128
1659443085.829815,9182
1659443085.87129,9209
1659443085.909863,9236
1659443085.948437,9264
1659443085.98701,9295
1659443086.031045,9345
1659443086.075081,9381
1659443086.119116,9420
1659443086.153422,9467
1659443086.187729,9506
1659443086.232105,9549
1659443086.276482,9533
1659443086.320858,9414
1659443086.353629,9313
1659443086.386399,9262
1659443086.431117,9261
1659443086.475835,9305
1659443086.520553,9354
1659443086.56254,9389
1659443086.604527,9403
1659443086.642418,9429
1659443086.680309,9453
1659443086.718199,9508
1659443086.756943,9544
1659443086.795687,9592
1659443086.834432,9651
1659443086.873176,9689
1659443086.91192,9740
1659443086.950664,9698
1659443086.993163,9526
1659443087.035662,9357
1659443087.074918,9274
1659443087.114175,9200
1659443087.153431,9166
1659443087.195418,9191
1659443087.237405,9233
1659443087.275978,9244
1659443087.314552,9254
1659443087.353125,9268
1659443087.395624,9304
1659443087.438123,9360
1659443087.476697,9406
1659443087.51527,9449
1659443087.553844,9513
1659443087.597879,9557
1659443087.641914,9589
1659443087.685949,9468
1659443087.71872,9275
1659443087.75149,9141
1659443087.795866,9075
1659443087.840243,9021
1659443087.88462,9025
1659443087.917902,9064
1659443087.951185,9088
1659443087.995561,9111
1659443088.039937,9124
1659443088.084314,9159
1659443088.122888,9222
1659443088.161461,9266
1659443088.200034,9317
1659443088.241509,9362
1659443088.282984,9423
1659443088.321899,9475
1659443088.360814,9496
1659443088.399729,9354
1659443088.442228,9165
1659443088.484727,9049
1659443088.523301,8980
1659443088.561874,8949
1659443088.600447,8975
1659443088.639362,9031
1659443088.678277,9072
1659443088.717192,9106
1659443088.758155,9136
1659443088.799118,9170
1659443088.838033,9214
1659443088.876947,9267
1659443088.915862,9318
1659443088.957337,9373
1659443088.998812,9423
1659443089.037727,9488
1659443089.076642,9547
1659443089.115557,9554
1659443089.156008,9421
1659443089.196459,9244
1659443089.234691,9136
1659443089.272923,9107
1659443089.311155,9096
1659443089.355873,9122
1659443089.400591,9189
1659443089.445309,9230
1659443089.487808,9266
1659443089.530307,9296
1659443089.56888,9336
1659443089.607454,9381
1659443089.646027,9433
1659443089.685283,9473
1659443089.72454,9527
1659443089.763796,9572
1659443089.805271,9636
1659443089.846746,9696
1659443089.88566,9734
1659443089.924575,9667
1659443089.96349,9498
1659443090.004965,9375
1659443090.04644,9322
1659443090.085696,9314
1659443090.124953,9341
1659443090.164209,9387
1659443090.202099,9436
1659443090.23999,9461
1659443090.277881,9485
1659443090.320892,9515
1659443090.363903,9571
1659443090.402818,9623
1659443090.441733,9677
1659443090.480648,9732
1659443090.52161,9786
1659443090.562573,9857
1659443090.60183,9907
1659443090.641086,9956
1659443090.680342,9957
1659443090.722841,9822
1659443090.76534,9676
1659443090.803572,9625
1659443090.841805,9623
1659443090.880037,9655
1659443090.921511,9713
1659443090.962986,9761
1659443091.007704,9804
1659443091.052422,9827
1659443091.09714,9856
1659443091.135031,9888
1659443091.172922,9945
1659443091.210812,9979
1659443091.2528,10040
1659443091.294786,10085
1659443091.334043,10120
1659443091.373299,10160
1659443091.412555,10197
1659443091.450446,10180
1659443091.488337,10046
1659443091.526227,9925
1659443091.568214,9889
1659443091.610201,9900
1659443091.649116,9942
1659443091.688031,9991
1659443091.726946,10032
1659443091.765519,10064
1659443091.804093,10093
1659443091.842666,10130
1659443091.884653,10175
1659443091.92664,10209
1659443091.966374,10247
1659443092.006109,10296
1659443092.045842,10344
1659443092.085577,10388
1659443092.125311,10424
1659443092.163884,10463
1659443092.202458,10459
1659443092.241031,10336
1659443092.28353,10202
1659443092.326029,10166
1659443092.366992,10168
1659443092.407955,10189
1659443092.446187,10226
1659443092.484419,10258
1659443092.522651,10289
1659443092.567711,10322
1659443092.61277,10364
1659443092.657829,10422
1659443092.691112,10471
1659443092.724394,10512
1659443092.769112,10534
1659443092.81383,10549
1659443092.858548,10558
1659443092.89183,10577
1659443092.925112,10588
1659443092.970172,10507
1659443093.015231,10333
1659443093.06029,10206
1659443093.098522,10170
1659443093.136755,10166
1659443093.174987,10202
1659443093.217486,10244
1659443093.259985,10283
1659443093.298217,10265
1659443093.336449,10230
1659443093.374681,10184
1659443093.416156,10154
1659443093.457631,10159
1659443093.496205,10183
1659443093.534778,10222
1659443093.573351,10253
1659443093.61329,10305
1659443093.653229,10301
1659443093.693168,10178
1659443093.734131,10046
1659443093.775094,9976
1659443093.814009,9982
1659443093.852924,10013
1659443093.891839,10065
1659443093.933825,10110
1659443093.975813,10134
1659443094.015069,10142
1659443094.054325,10163
1659443094.093581,10204
1659443094.135056,10236
1659443094.176531,10291
1659443094.215446,10330
1659443094.254361,10377
1659443094.293276,10409
1659443094.334239,10364
1659443094.375201,10210
1659443094.413775,10105
1659443094.452348,10078
1659443094.490922,10094
1659443094.535298,10139
1659443094.579675,10181
1659443094.624052,10224
1659443094.665527,10252
1659443094.707001,10270
1659443094.745234,10299
1659443094.783466,10337
1659443094.821698,10379
1659443094.863173,10414
1659443094.904648,10471
1659443094.943904,10511
1659443094.98316,10499
1659443095.022416,10371
1659443095.060648,10247
1659443095.098881,10212
1659443095.137113,10235
1659443095.1791,10276
1659443095.221087,10325
1659443095.260343,10388
1659443095.299599,10430
1659443095.338855,10448
1659443095.38033,10480
1659443095.421805,10511
1659443095.46072,10549
1659443095.499635,10583
1659443095.53855,10628
1659443095.577123,10668
1659443095.615697,10711
1659443095.65427,10672
1659443095.694721,10508
1659443095.735172,10369
1659443095.774087,10307
1659443095.813002,10295
1659443095.851916,10296
1659443095.894415,10332
1659443095.936914,10372
1659443095.981291,10400
1659443096.025668,10422
1659443096.070044,10447
1659443096.103327,10488
1659443096.136609,10524
1659443096.181668,10571
1659443096.226727,10610
1659443096.271787,10657
1659443096.305069,10666
1659443096.338352,10545
1659443096.382728,10391
1659443096.427105,10305
1659443096.471481,10275
1659443096.510737,10259
1659443096.549994,10293
1659443096.58925,10329
1659443096.629701,10372
1659443096.670152,10402
1659443096.708725,10419
1659443096.747298,10437
1659443096.785872,10482
1659443096.828371,10516
1659443096.87087,10557
1659443096.909102,10601
1659443096.947334,10647
1659443096.985566,10677
1659443097.024481,10616
1659443097.063396,10445
1659443097.102311,10344
1659443097.144298,10284
1659443097.186285,10264
1659443097.22776,10253
1659443097.269235,10291
1659443097.31071,10338
1659443097.352185,10363
1659443097.385979,10379
1659443097.419774,10404
1659443097.464492,10443
1659443097.50921,10466
1659443097.553928,10509
1659443097.592501,10557
1659443097.631074,10584
1659443097.669648,10634
1659443097.710611,10652
1659443097.751574,10614
1659443097.790489,10443
1659443097.829404,10303
1659443097.868318,10222
1659443097.90655,10167
1659443097.944782,10176
1659443097.983015,10209
1659443098.025002,10262
1659443098.066989,10288
1659443098.105562,10284
1659443098.144136,10274
1659443098.182709,10287
1659443098.224696,10300
1659443098.266683,10340
1659443098.305257,10389
1659443098.34383,10411
1659443098.382404,10436
1659443098.424391,10467
1659443098.466378,10496
1659443098.505634,10474
1659443098.54489,10329
1659443098.584146,10174
1659443098.625109,10101
1659443098.666072,10064
1659443098.704646,10037
1659443098.743219,10067
1659443098.781792,10093
1659443098.826169,10122
1659443098.870546,10148
1659443098.914922,10151
1659443098.956909,10181
1659443098.998896,10214
1659443099.03747,10263
1659443099.076043,10306
1659443099.114617,10360
1659443099.15558,10395
1659443099.196543,10429
1659443099.235799,10475
1659443099.275055,10506
1659443099.314311,10435
1659443099.353226,10291
1659443099.392141,10234
1659443099.431056,10220
1659443099.474067,10251
1659443099.517078,10272
1659443099.555651,10314
1659443099.594225,10345
1659443099.632798,10342
1659443099.674273,10350
1659443099.715748,10371
1659443099.755004,10418
1659443099.794261,10452
1659443099.833517,10508
1659443099.87209,10545
1659443099.910664,10574
1659443099.949237,10632
1659443099.9902,10636
1659443100.031163,10540
1659443100.070419,10373
1659443100.109675,10317
1659443100.148932,10312
1659443100.189382,10346
1659443100.229833,10397
1659443100.269089,10438
1659443100.308346,10474
1659443100.347602,10492
1659443100.389589,10520
1659443100.431576,10529
1659443100.475952,10554
1659443100.520329,10605
1659443100.564706,10632
1659443100.596964,10670
1659443100.629222,10712
1659443100.674282,10753
1659443100.719341,10805
1659443100.7644,10828
1659443100.802974,10710
1659443100.841547,10565
1659443100.880121,10492
1659443100.921083,10459
1659443100.962046,10452
1659443101.000961,10457
1659443101.039876,10504
1659443101.078791,10538
1659443101.119754,10565
1659443101.160717,10585
1659443101.19929,10599
1659443101.237864,10637
1659443101.276437,10673
1659443101.315352,10709
1659443101.354267,10755
1659443101.393182,10789
1659443101.434144,10827
1659443101.475107,10879
1659443101.513681,10902
1659443101.552254,10839
1659443101.590828,10692
1659443101.630084,10581
1659443101.66934,10554
1659443101.708596,10543
1659443101.751096,10569
1659443101.793595,10619
1659443101.834558,10664
1659443101.87552,10692
1659443101.914777,10711
1659443101.954033,10743
1659443101.993289,10765
1659443102.035788,10816
1659443102.078287,10841
1659443102.116861,10878
1659443102.155434,10924
1659443102.194008,10948
1659443102.238384,10976
1659443102.282761,11000
1659443102.327137,11001
1659443102.359908,10890
1659443102.392678,10752
1659443102.433897,10674
1659443102.475116,10674
1659443102.516335,10688
1659443102.557554,10716
1659443102.599541,10762
1659443102.641528,10793
1659443102.680443,10809
1659443102.719357,10814
1659443102.758272,10832
1659443102.797529,10835
1659443102.836785,10844
1659443102.876041,10877
1659443102.917516,10912
1659443102.958991,10934
1659443102.997906,10940
1659443103.03682,10937
1659443103.075735,10929
1659443103.116698,10863
1659443103.157661,10688
1659443103.196918,10567
1659443103.236174,10554
1659443103.27543,10570
1659443103.316905,10602
1659443103.35838,10641
1659443103.402415,10658
1659443103.44645,10685
1659443103.490485,10695
1659443103.523256,10716
1659443103.556026,10749
1659443103.600744,10783
1659443103.645462,10812
1659443103.69018,10859
1659443103.729095,10880
1659443103.768009,10912
1659443103.806924,10974
1659443103.848399,10972
1659443103.889874,10878
1659443103.928448,10753
1659443103.967021,10699
1659443104.005595,10713
1659443104.047582,10739
1659443104.089569,10791
1659443104.128484,10835
1659443104.167398,10866
1659443104.206313,10887
1659443104.244887,10908
1659443104.28346,10931
1659443104.322034,10964
1659443104.363508,10989
1659443104.404984,11022
1659443104.442874,11052
1659443104.480765,11069
1659443104.518656,11083
1659443104.557912,10998
1659443104.597168,10889
1659443104.636424,10824
1659443104.678923,10838
1659443104.721422,10884
1659443104.761873,10930
1659443104.802324,10978
1659443104.841581,10993
1659443104.880837,11026
1659443104.920093,11048
1659443104.96208,11079
1659443105.004067,11097
1659443105.04264,11112
1659443105.081214,11145
1659443105.119787,11176
1659443105.164505,11194
1659443105.209223,11149
1659443105.253941,11026
1659443105.287735,10912
1659443105.32153,10895
1659443105.365565,10885
1659443105.4096,10892
1659443105.453635,10930
1659443105.492209,10971
1659443105.530782,10991
1659443105.569356,11003
1659443105.612367,11027
1659443105.655378,11045
1659443105.69361,11079
1659443105.731842,11109
1659443105.770074,11136
1659443105.811037,11173
1659443105.852,11167
1659443105.891598,11078
1659443105.931195,10936
1659443105.970793,10859
1659443106.009366,10839
1659443106.04794,10851
1659443106.086513,10880
1659443106.129012,10913
1659443106.171511,10949
1659443106.210768,10960
1659443106.250024,10982
1659443106.28928,10991
1659443106.330755,11017
1659443106.37223,11047
1659443106.410462,11073
1659443106.448694,11106
1659443106.486926,11118
1659443106.529425,11031
1659443106.571924,10889
1659443106.609815,10816
1659443106.647706,10771
1659443106.685597,10765
1659443106.72656,10792
1659443106.767523,10823
1659443106.806096,10853
1659443106.84467,10875
1659443106.883243,10893
1659443106.927619,10921
1659443106.971996,10944
1659443107.016373,10976
1659443107.057847,11005
1659443107.099323,11043
1659443107.138579,11074
1659443107.177835,11050
1659443107.217091,10933
1659443107.258566,10802
1659443107.300041,10762
1659443107.338615,10744
1659443107.377188,10763
1659443107.415761,10793
1659443107.455359,10837
1659443107.494956,10860
1659443107.534554,10871
1659443107.576029,10912
1659443107.617504,10931
1659443107.658979,10963
1659443107.700454,10991
1659443107.741929,11027
1659443107.783404,11054
1659443107.822319,11090
1659443107.861234,11054
1659443107.900149,10924
1659443107.941112,10823
1659443107.982074,10798
1659443108.020648,10793
1659443108.059222,10806
1659443108.097795,10856
1659443108.140294,10897
1659443108.182793,10915
1659443108.221366,10936
1659443108.25994,10955
1659443108.298513,10980
1659443108.337428,10993
1659443108.376343,11021
1659443108.415258,11044
1659443108.457245,11063
1659443108.499232,11093
1659443108.538488,11057
1659443108.577744,10929
1659443108.617001,10785
1659443108.658988,10725
1659443108.700974,10682
1659443108.739548,10681
1659443108.778121,10711
1659443108.816695,10754
1659443108.855951,10779
1659443108.895207,10786
1659443108.934464,10788
1659443108.974914,10817
1659443109.015365,10828
1659443109.054621,10856
1659443109.093878,10894
1659443109.133134,10910
1659443109.175121,10956
1659443109.217108,10981
1659443109.258583,10982
1659443109.300058,10912
1659443109.33829,10722
1659443109.376522,10596
1659443109.414754,10521
1659443109.459472,10472
1659443109.50419,10459
1659443109.548908,10507
1659443109.582702,10532
1659443109.616497,10561
1659443109.660873,10575
1659443109.70525,10596
1659443109.749626,10627
1659443109.7882,10664
1659443109.826773,10707
1659443109.865347,10744
1659443109.90631,10776
1659443109.947273,10823
1659443109.985846,10855
1659443110.02442,10889
1659443110.062993,10874
1659443110.104468,10754
1659443110.145943,10624
1659443110.184517,10565
1659443110.22309,10563
1659443110.261663,10560
1659443110.300237,10607
1659443110.33881,10659
1659443110.377384,10704
1659443110.420395,10735
1659443110.463406,10766
1659443110.502321,10798
1659443110.541236,10828
1659443110.580151,10876
1659443110.621114,10913
1659443110.662076,10950
1659443110.700991,10989
1659443110.739906,11023
1659443110.778821,11062
1659443110.820808,11094
1659443110.862795,11025
1659443110.901369,10916
1659443110.939942,10870
1659443110.978515,10861
1659443111.01999,10881
1659443111.061466,10927
1659443111.10038,10965
1659443111.139295,10989
1659443111.17821,11011
1659443111.221904,11025
1659443111.265598,11047
1659443111.309291,11088
1659443111.343598,11117
1659443111.377904,11142
1659443111.422281,11178
1659443111.466657,11196
1659443111.511034,11219
1659443111.552509,11169
1659443111.593984,11063
1659443111.63324,10984
1659443111.672496,10973
1659443111.711752,10986
1659443111.751009,11014
1659443111.790265,11072
1659443111.829521,11100
1659443111.870996,11121
1659443111.912471,11142
1659443111.951727,11169
1659443111.990983,11199
1659443112.03024,11232
1659443112.071715,11259
1659443112.113189,11289
1659443112.151422,11313
1659443112.189654,11345
1659443112.227886,11377
1659443112.266459,11328
1659443112.305033,11205
1659443112.343606,11104
1659443112.385593,11055
1659443112.42758,11043
1659443112.465812,11044
1659443112.504045,11080
1659443112.542277,11126
1659443112.583752,11158
1659443112.625227,11176
1659443112.6638,11189
1659443112.702374,11211
1659443112.740947,11242
1659443112.783446,11270
1659443112.825945,11305
1659443112.86998,11326
1659443112.914016,11359
1659443112.958051,11399
1659443112.995686,11405
1659443113.03332,11337
1659443113.070955,11212
1659443113.10859,11114
1659443113.147163,11086
1659443113.185737,11091
1659443113.22431,11102
1659443113.265273,11145
1659443113.306236,11195
1659443113.345151,11205
1659443113.384066,11216
1659443113.42298,11245
1659443113.466674,11256
1659443113.510368,11283
1659443113.554062,11312
1659443113.596049,11332
1659443113.638036,11363
1659443113.676951,11398
1659443113.715866,11429
1659443113.754781,11390
1659443113.796767,11265
1659443113.838754,11147
1659443113.877328,11106
1659443113.915901,11090
1659443113.954475,11090
1659443113.996974,11126
1659443114.039473,11169
1659443114.078388,11198
1659443114.117303,11214
1659443114.156218,11240
1659443114.194791,11267
1659443114.233364,11299
1659443114.271938,11337
1659443114.313413,11362
1659443114.354888,11390
1659443114.393803,11407
1659443114.432718,11433
1659443114.471632,11466
1659443114.510547,11442
1659443114.549462,11338
1659443114.588377,11228
1659443114.630364,11182
1659443114.672351,11176
1659443114.710924,11201
1659443114.749498,11230
1659443114.788071,11253
1659443114.829034,11270
1659443114.869997,11282
1659443114.909936,11289
1659443114.949875,11307
1659443114.989814,11336
1659443115.031801,11361
1659443115.073788,11399
1659443115.117823,11422
1659443115.161858,11431
1659443115.205894,11461
1659443115.239176,11476
1659443115.272458,11422
1659443115.316835,11280
1659443115.361211,11158
1659443115.405588,11113
1659443115.444161,11119
1659443115.482735,11137
1659443115.521308,11166
1659443115.562271,11217
1659443115.603234,11229
1659443115.642149,11244
1659443115.681064,11268
1659443115.719979,11286
1659443115.757869,11330
1659443115.79576,11345
1659443115.833651,11371
1659443115.87615,11383
1659443115.918649,11408
1659443115.957564,11430
1659443115.996479,11450
1659443116.035393,11417
1659443116.076356,11287
1659443116.117319,11137
1659443116.156234,11067
1659443116.195149,11027
1659443116.234064,11002
1659443116.27332,11006
1659443116.312576,11021
1659443116.351832,11033
1659443116.393307,11027
1659443116.434783,11041
1659443116.475745,11073
1659443116.516708,11091
1659443116.555282,11129
1659443116.593855,11152
1659443116.632429,11178
1659443116.676464,11195
1659443116.720499,11213
1659443116.764534,11206
1659443116.797817,11092
1659443116.831099,10935
1659443116.875817,10851
1659443116.920535,10865
1659443116.965253,10883
1659443116.998023,10935
1659443117.030794,10982
1659443117.075511,11003
1659443117.120229,10992
1659443117.164947,10947
1659443117.204203,10908
1659443117.24346,10884
1659443117.282716,10896
1659443117.324703,10914
1659443117.36669,10937
1659443117.405605,10978
1659443117.44452,10996
1659443117.483434,10908
1659443117.524909,10739
1659443117.566384,10630
1659443117.604958,10573
1659443117.643531,10559
1659443117.682105,10557
1659443117.720678,10577
1659443117.759252,10609
1659443117.797825,10615
1659443117.837423,10618
1659443117.87702,10632
1659443117.916618,10669
1659443117.958093,10684
1659443117.999568,10732
1659443118.043262,10766
1659443118.086955,10797
1659443118.130649,10841
1659443118.169564,10833
1659443118.208479,10712
1659443118.247394,10525
1659443118.286309,10430
1659443118.325223,10400
1659443118.364138,10409
1659443118.403053,10429
1659443118.441968,10464
1659443118.480883,10492
1659443118.520139,10487
1659443118.559395,10503
1659443118.598651,10531
1659443118.640638,10577
1659443118.682625,10648
1659443118.723076,10697
1659443118.763527,10743
1659443118.8021,10765
1659443118.840674,10778
1659443118.879247,10715
1659443118.923283,10537
1659443118.967318,10203
1659443119.011353,9890
1659443119.044635,9654
1659443119.077918,9502
1659443119.122294,9391
1659443119.166671,9250
