LocalTimestamp,PG
1659433500.319003,10620
1659433500.319003,10639
1659433500.319003,10279
1659433500.319003,10286
1659433500.319003,10298
1659433500.357959,10332
1659433500.396915,10391
1659433500.435871,10431
1659433500.480294,10475
1659433500.524718,10511
1659433500.569141,10536
1659433500.607755,10561
1659433500.646369,10578
1659433500.684983,10574
1659433500.726502,10485
1659433500.768021,10345
1659433500.806635,10256
1659433500.845249,10221
1659433500.883864,10181
1659433500.925895,10171
1659433500.967926,10196
1659433501.006199,10214
1659433501.044471,10218
1659433501.082744,10231
1659433501.1217,10255
1659433501.160655,10296
1659433501.199611,10337
1659433501.240105,10379
1659433501.280599,10432
1659433501.320238,10466
1659433501.359877,10511
1659433501.399517,10553
1659433501.440523,10588
1659433501.481529,10604
1659433501.519802,10645
1659433501.558074,10626
1659433501.596346,10514
1659433501.637865,10402
1659433501.679384,10332
1659433501.719365,10289
1659433501.759346,10268
1659433501.799327,10279
1659433501.843409,10297
1659433501.887491,10311
1659433501.931572,10331
1659433501.973091,10322
1659433502.01461,10332
1659433502.053566,10343
1659433502.092521,10375
1659433502.131477,10427
1659433502.172484,10450
1659433502.21349,10482
1659433502.252446,10513
1659433502.291402,10562
1659433502.330358,10599
1659433502.369313,10658
1659433502.408269,10688
1659433502.447225,10630
1659433502.487719,10526
1659433502.528212,10437
1659433502.56751,10407
1659433502.606808,10400
1659433502.646105,10408
1659433502.688649,10442
1659433502.731193,10476
1659433502.769807,10491
1659433502.808421,10518
1659433502.847036,10546
1659433502.886333,10583
1659433502.925631,10620
1659433502.964928,10664
1659433503.00696,10707
1659433503.048991,10745
1659433503.087264,10791
1659433503.125536,10821
1659433503.163809,10856
1659433503.206352,10906
1659433503.248896,10940
1659433503.287852,10923
1659433503.326808,10854
1659433503.365764,10776
1659433503.406258,10746
1659433503.446751,10729
1659433503.490491,10737
1659433503.534231,10772
1659433503.577971,10797
1659433503.612314,10826
1659433503.646657,10845
1659433503.69108,10866
1659433503.735503,10890
1659433503.779927,10931
1659433503.818883,10960
1659433503.857838,11002
1659433503.896794,11047
1659433503.938313,11082
1659433503.979832,11121
1659433504.018788,11166
1659433504.057744,11215
1659433504.0967,11243
1659433504.138218,11218
1659433504.179737,11146
1659433504.219513,11088
1659433504.259289,11062
1659433504.299065,11053
1659433504.338841,11061
1659433504.378617,11078
1659433504.41689,11093
1659433504.455162,11104
1659433504.493435,11123
1659433504.532049,11128
1659433504.570663,11155
1659433504.609277,11180
1659433504.648575,11207
1659433504.687872,11253
1659433504.72717,11273
1659433504.77091,11303
1659433504.81465,11342
1659433504.85839,11368
1659433504.899909,11373
1659433504.941427,11316
1659433504.980042,11244
1659433505.018656,11191
1659433505.05727,11166
1659433505.098789,11149
1659433505.140307,11152
1659433505.179605,11165
1659433505.218903,11176
1659433505.2582,11183
1659433505.297156,11198
1659433505.336112,11220
1659433505.375068,11234
1659433505.416074,11274
1659433505.45708,11289
1659433505.496036,11320
1659433505.534992,11354
1659433505.573948,11374
1659433505.612904,11393
1659433505.65186,11414
1659433505.690816,11402
1659433505.732847,11317
1659433505.774879,11240
1659433505.813493,11181
1659433505.852107,11140
1659433505.890721,11116
1659433505.933265,11100
1659433505.975809,11101
1659433506.014423,11094
1659433506.053037,11092
1659433506.091651,11086
1659433506.133683,11095
1659433506.175714,11112
1659433506.215353,11116
1659433506.254993,11146
1659433506.294632,11164
1659433506.335638,11185
1659433506.376644,11196
1659433506.420384,11215
1659433506.464124,11225
1659433506.507864,11187
1659433506.542207,11111
1659433506.57655,11047
1659433506.62029,11001
1659433506.66403,10962
1659433506.70777,10958
1659433506.746384,10951
1659433506.784998,10960
1659433506.823612,10961
1659433506.864618,10954
1659433506.905624,10964
1659433506.944922,10963
1659433506.98422,10992
1659433507.023517,10998
1659433507.06179,11018
1659433507.100062,11040
1659433507.138335,11049
1659433507.181391,11085
1659433507.224448,11094
1659433507.263062,11106
1659433507.301676,11078
1659433507.34029,10985
1659433507.381296,10935
1659433507.422303,10908
1659433507.461258,10884
1659433507.500214,10877
1659433507.53917,10892
1659433507.578126,10886
1659433507.617082,10903
1659433507.656038,10892
1659433507.696532,10893
1659433507.737025,10912
1659433507.778544,10929
1659433507.820063,10938
1659433507.858677,10955
1659433507.897291,10990
1659433507.935905,10998
1659433507.979987,11026
1659433508.024069,11042
1659433508.06815,11047
1659433508.10198,11053
1659433508.135811,10988
1659433508.180576,10927
1659433508.225341,10896
1659433508.270106,10872
1659433508.302398,10874
1659433508.334691,10889
1659433508.379797,10884
1659433508.424904,10887
1659433508.470011,10890
1659433508.509309,10899
1659433508.548606,10915
1659433508.587904,10927
1659433508.629423,10951
1659433508.670941,10970
1659433508.709897,10989
1659433508.748853,11007
1659433508.787809,11028
1659433508.829328,11051
1659433508.870847,11072
1659433508.908009,11089
1659433508.94517,11054
1659433508.982332,10990
1659433509.019494,10938
1659433509.062038,10911
1659433509.104582,10895
1659433509.143538,10893
1659433509.182494,10896
1659433509.22145,10899
1659433509.265873,10908
1659433509.310297,10898
1659433509.35472,10908
1659433509.396751,10925
1659433509.438783,10951
1659433509.47808,10955
1659433509.517378,10977
1659433509.556675,11007
1659433509.59529,11015
1659433509.633904,11041
1659433509.672518,11063
1659433509.714549,11071
1659433509.756581,11030
1659433509.795537,10955
1659433509.834492,10900
1659433509.873448,10865
1659433509.911721,10840
1659433509.949993,10832
1659433509.988266,10834
1659433510.029272,10841
1659433510.070278,10841
1659433510.109576,10844
1659433510.148873,10853
1659433510.188171,10861
1659433510.229177,10887
1659433510.270183,10906
1659433510.309139,10921
1659433510.348095,10954
1659433510.387051,10967
1659433510.431816,10994
1659433510.476581,11020
1659433510.521346,11029
1659433510.555176,10983
1659433510.589007,10903
1659433510.633088,10825
1659433510.67717,10777
1659433510.721251,10742
1659433510.76277,10717
1659433510.804289,10716
1659433510.842561,10711
1659433510.880834,10708
1659433510.919106,10705
1659433510.957379,10704
1659433510.995651,10719
1659433511.033924,10734
1659433511.076468,10765
1659433511.119012,10785
1659433511.155917,10818
1659433511.192823,10821
1659433511.229728,10842
1659433511.266634,10864
1659433511.311058,10893
1659433511.355481,10880
1659433511.399904,10798
1659433511.439543,10712
1659433511.479183,10635
1659433511.518822,10590
1659433511.560341,10551
1659433511.60186,10538
1659433511.640474,10546
1659433511.679088,10550
1659433511.717702,10542
1659433511.760246,10545
1659433511.80279,10566
1659433511.841746,10575
1659433511.880702,10614
1659433511.919658,10637
1659433511.958614,10667
1659433511.99757,10698
1659433512.036525,10722
1659433512.078557,10755
1659433512.120588,10781
1659433512.159202,10818
1659433512.197817,10817
1659433512.236431,10732
1659433512.27795,10636
1659433512.319468,10564
1659433512.358424,10515
1659433512.39738,10487
1659433512.436336,10475
1659433512.477342,10478
1659433512.518348,10482
1659433512.557304,10478
1659433512.59626,10488
1659433512.635216,10500
1659433512.677248,10514
1659433512.719279,10556
1659433512.758235,10570
1659433512.797191,10614
1659433512.836146,10630
1659433512.880228,10649
1659433512.92431,10670
1659433512.968391,10701
1659433513.010935,10725
1659433513.053479,10716
1659433513.091752,10636
1659433513.130024,10516
1659433513.168297,10439
1659433513.206569,10388
1659433513.244842,10345
1659433513.283114,10336
1659433513.325658,10340
1659433513.368202,10332
1659433513.406474,10334
1659433513.444747,10347
1659433513.483019,10349
1659433513.523513,10390
1659433513.564007,10406
1659433513.603304,10431
1659433513.642602,10466
1659433513.681899,10488
1659433513.720855,10526
1659433513.759811,10552
1659433513.798767,10578
1659433513.840798,10614
1659433513.88283,10636
1659433513.921786,10595
1659433513.960742,10481
1659433513.999697,10376
1659433514.041216,10314
1659433514.082735,10270
1659433514.121349,10233
1659433514.159963,10233
1659433514.198577,10243
1659433514.240609,10247
1659433514.28264,10249
1659433514.321254,10254
1659433514.359869,10286
1659433514.398483,10311
1659433514.440001,10342
1659433514.48152,10371
1659433514.525602,10402
1659433514.569684,10439
1659433514.613765,10471
1659433514.652721,10501
1659433514.691677,10529
1659433514.730633,10567
1659433514.772152,10600
1659433514.813671,10596
1659433514.852968,10498
1659433514.892266,10388
1659433514.931563,10323
1659433514.973595,10271
1659433515.015626,10249
1659433515.054582,10232
1659433515.093538,10251
1659433515.132494,10256
1659433515.17145,10263
1659433515.210406,10286
1659433515.249362,10300
1659433515.291393,10332
1659433515.333424,10372
1659433515.372038,10404
1659433515.410652,10443
1659433515.449267,10474
1659433515.490273,10518
1659433515.531279,10548
1659433515.570577,10582
1659433515.609874,10619
1659433515.649172,10666
1659433515.688128,10701
1659433515.727084,10673
1659433515.76604,10581
1659433515.806533,10470
1659433515.847027,10413
1659433515.888802,10368
1659433515.930577,10336
1659433515.972352,10336
1659433516.014127,10355
1659433516.055646,10359
1659433516.097165,10359
1659433516.136121,10381
1659433516.175076,10392
1659433516.214032,10421
1659433516.252988,10458
1659433516.291944,10488
1659433516.3309,10527
1659433516.372931,10547
1659433516.414963,10581
1659433516.452893,10613
1659433516.490824,10654
1659433516.528755,10690
1659433516.567711,10720
1659433516.606667,10728
1659433516.645623,10622
1659433516.686116,10523
1659433516.72661,10453
1659433516.768129,10405
1659433516.809648,10390
1659433516.848262,10382
1659433516.886876,10396
1659433516.92549,10395
1659433516.970255,10410
1659433517.01502,10413
1659433517.059785,10444
1659433517.092078,10458
1659433517.12437,10487
1659433517.169135,10532
1659433517.2139,10558
1659433517.258665,10598
1659433517.292495,10629
1659433517.326326,10664
1659433517.370749,10687
1659433517.415172,10732
1659433517.459596,10764
1659433517.498552,10801
1659433517.537508,10785
1659433517.576463,10672
1659433517.617982,10554
1659433517.659501,10489
1659433517.698115,10431
1659433517.736729,10397
1659433517.775343,10401
1659433517.816862,10411
1659433517.858381,10419
1659433517.897679,10425
1659433517.936976,10432
1659433517.976274,10463
1659433518.014546,10478
1659433518.052819,10510
1659433518.091091,10557
1659433518.133635,10588
1659433518.176179,10621
1659433518.215135,10658
1659433518.254091,10687
1659433518.293047,10720
1659433518.334053,10761
1659433518.375059,10788
1659433518.414015,10825
1659433518.452971,10845
1659433518.491927,10756
1659433518.534471,10630
1659433518.577015,10545
1659433518.615629,10491
1659433518.654243,10450
1659433518.692857,10452
1659433518.733864,10441
1659433518.77487,10464
1659433518.819635,10483
1659433518.8644,10491
1659433518.909165,10511
1659433518.947096,10524
1659433518.985026,10562
1659433519.022957,10603
1659433519.064989,10642
1659433519.10702,10684
1659433519.145634,10720
1659433519.184248,10758
1659433519.222862,10792
1659433519.261477,10839
1659433519.300091,10870
1659433519.338705,10901
1659433519.380224,10929
1659433519.421742,10892
1659433519.46104,10773
1659433519.500338,10672
1659433519.539635,10613
1659433519.581154,10568
1659433519.622673,10553
1659433519.661287,10540
1659433519.699901,10550
1659433519.738515,10566
1659433519.77713,10556
1659433519.815744,10568
1659433519.854358,10580
1659433519.894852,10616
1659433519.935345,10646
1659433519.973959,10692
1659433520.012573,10716
1659433520.051188,10751
1659433520.093219,10791
1659433520.13525,10821
1659433520.174206,10853
1659433520.213162,10889
1659433520.252118,10929
1659433520.293637,10915
1659433520.335156,10827
1659433520.379579,10701
1659433520.424002,10627
1659433520.468426,10586
1659433520.50761,10545
1659433520.546793,10543
1659433520.585977,10553
1659433520.625161,10553
1659433520.664344,10556
1659433520.703528,10563
1659433520.742712,10574
1659433520.781895,10598
1659433520.821079,10636
1659433520.862598,10665
1659433520.904117,10701
1659433520.945636,10741
1659433520.987154,10766
1659433521.028673,10801
1659433521.070192,10831
1659433521.108123,10866
1659433521.146053,10900
1659433521.183984,10925
1659433521.221915,10856
1659433521.265655,10723
1659433521.309395,10591
1659433521.353135,10521
1659433521.385427,10475
1659433521.417719,10440
1659433521.462826,10434
1659433521.507933,10442
1659433521.55304,10441
1659433521.591654,10425
1659433521.630268,10443
1659433521.668882,10450
1659433521.710914,10456
1659433521.752945,10491
1659433521.792584,10531
1659433521.832224,10564
1659433521.871863,10591
1659433521.912869,10617
1659433521.953876,10636
1659433521.992148,10655
1659433522.030421,10686
1659433522.068693,10710
1659433522.107991,10657
1659433522.147288,10529
1659433522.186586,10437
1659433522.228105,10352
1659433522.269623,10299
1659433522.308238,10259
1659433522.346852,10264
1659433522.385466,10272
1659433522.42408,10280
1659433522.462694,10291
1659433522.501308,10310
1659433522.542315,10330
1659433522.583321,10362
1659433522.62484,10392
1659433522.666358,10443
1659433522.705656,10469
1659433522.744953,10498
1659433522.784251,10522
1659433522.82577,10548
1659433522.867289,10581
1659433522.905903,10622
1659433522.944517,10637
1659433522.983131,10597
1659433523.027896,10481
1659433523.072661,10359
1659433523.117426,10294
1659433523.150744,10241
1659433523.184062,10197
1659433523.227802,10192
1659433523.271542,10204
1659433523.315281,10206
1659433523.354579,10208
1659433523.393877,10218
1659433523.433174,10247
1659433523.47418,10279
1659433523.515187,10319
1659433523.554484,10352
1659433523.593782,10390
1659433523.63308,10424
1659433523.675111,10451
1659433523.717142,10494
1659433523.756098,10525
1659433523.795054,10563
1659433523.83401,10607
1659433523.872624,10636
1659433523.911238,10573
1659433523.949852,10461
1659433523.992396,10385
1659433524.03494,10333
1659433524.073555,10303
1659433524.112169,10304
1659433524.150783,10317
1659433524.191789,10335
1659433524.232795,10352
1659433524.271409,10356
1659433524.310024,10385
1659433524.348638,10405
1659433524.391182,10448
1659433524.433726,10495
1659433524.47234,10526
1659433524.510954,10570
1659433524.549568,10608
1659433524.590574,10645
1659433524.631581,10684
1659433524.670537,10717
1659433524.709492,10764
1659433524.748448,10806
1659433524.792871,10816
1659433524.837295,10728
1659433524.881718,10620
1659433524.92375,10567
1659433524.965781,10545
1659433525.005079,10525
1659433525.044376,10535
1659433525.083674,10564
1659433525.12468,10578
1659433525.165686,10600
1659433525.204642,10610
1659433525.243598,10630
1659433525.282554,10668
1659433525.321168,10700
1659433525.359782,10734
1659433525.398396,10771
1659433525.440428,10810
1659433525.482459,10845
1659433525.520732,10885
1659433525.559004,10915
1659433525.597277,10960
1659433525.638539,11004
1659433525.679801,10990
1659433525.721064,10889
1659433525.762326,10802
1659433525.800941,10735
1659433525.839555,10699
1659433525.878169,10689
1659433525.917125,10692
1659433525.956081,10698
1659433525.995037,10716
1659433526.037068,10727
1659433526.079099,10740
1659433526.117714,10750
1659433526.156328,10781
1659433526.194942,10810
1659433526.236973,10844
1659433526.279005,10878
1659433526.318644,10897
1659433526.358283,10940
1659433526.397923,10963
1659433526.438416,11000
1659433526.47891,11034
1659433526.517524,11066
1659433526.556138,11072
1659433526.594753,10987
1659433526.637809,10855
1659433526.680866,10763
1659433526.71948,10706
1659433526.758094,10657
1659433526.796708,10638
1659433526.84079,10634
1659433526.884871,10639
1659433526.928953,10647
1659433526.970984,10644
1659433527.013016,10656
1659433527.051972,10668
1659433527.090928,10698
1659433527.129883,10728
1659433527.171915,10748
1659433527.213946,10775
1659433527.253244,10801
1659433527.292541,10835
1659433527.331839,10855
1659433527.370453,10892
1659433527.409067,10919
1659433527.447681,10944
1659433527.488175,10937
1659433527.528669,10840
1659433527.567966,10711
1659433527.607264,10615
1659433527.646562,10558
1659433527.688593,10509
1659433527.730624,10483
1659433527.768897,10489
1659433527.807169,10501
1659433527.845442,10502
1659433527.884398,10502
1659433527.923353,10519
1659433527.962309,10537
1659433528.003315,10574
1659433528.044322,10609
1659433528.083278,10648
1659433528.122233,10685
1659433528.161189,10723
1659433528.203221,10759
1659433528.245252,10786
1659433528.283866,10818
1659433528.32248,10859
1659433528.361095,10871
1659433528.402613,10854
1659433528.444132,10738
1659433528.488556,10612
1659433528.532979,10538
1659433528.577402,10489
1659433528.611233,10457
1659433528.645062,10450
1659433528.688802,10464
1659433528.732543,10458
1659433528.776282,10464
1659433528.815238,10475
1659433528.854194,10496
1659433528.89315,10525
1659433528.934156,10549
1659433528.975163,10584
1659433529.014118,10618
1659433529.053074,10671
1659433529.09203,10696
1659433529.130986,10728
1659433529.169942,10764
1659433529.208898,10798
1659433529.250929,10835
1659433529.292961,10851
1659433529.331575,10770
1659433529.370189,10653
1659433529.408803,10570
1659433529.450835,10508
1659433529.492866,10464
1659433529.531822,10441
1659433529.570778,10447
1659433529.609734,10466
1659433529.649031,10460
1659433529.688329,10467
1659433529.727626,10473
1659433529.76812,10500
1659433529.808614,10538
1659433529.847228,10573
1659433529.885842,10607
1659433529.924456,10642
1659433529.967,10685
1659433530.009544,10715
1659433530.053284,10736
1659433530.097024,10776
1659433530.140764,10816
1659433530.173569,10849
1659433530.206374,10883
1659433530.251139,10840
1659433530.295904,10721
1659433530.340669,10622
1659433530.374499,10543
1659433530.408329,10493
1659433530.453094,10454
1659433530.497859,10457
1659433530.542624,10462
1659433530.58158,10470
1659433530.620536,10480
1659433530.659492,10486
1659433530.701011,10505
1659433530.74253,10544
1659433530.781144,10575
1659433530.819758,10606
1659433530.858372,10649
1659433530.897328,10687
1659433530.936284,10726
1659433530.97524,10761
1659433531.016759,10794
1659433531.058278,10827
1659433531.096892,10868
1659433531.135506,10910
1659433531.17412,10910
1659433531.215639,10823
1659433531.257158,10711
1659433531.295088,10624
1659433531.333019,10568
1659433531.37095,10530
1659433531.412469,10511
1659433531.453987,10523
1659433531.493285,10526
1659433531.532583,10520
1659433531.57188,10516
1659433531.612886,10541
1659433531.653893,10551
1659433531.692848,10579
1659433531.731804,10613
1659433531.77076,10643
1659433531.815526,10672
1659433531.860291,10701
1659433531.905056,10736
1659433531.938373,10763
1659433531.971691,10809
1659433532.015431,10836
1659433532.059171,10859
1659433532.102911,10826
1659433532.142208,10703
1659433532.181506,10619
1659433532.220803,10551
1659433532.261297,10503
1659433532.301791,10484
1659433532.340747,10489
1659433532.379702,10499
1659433532.418658,10500
1659433532.46069,10512
1659433532.502721,10527
1659433532.541335,10542
1659433532.579949,10566
1659433532.618564,10594
1659433532.657519,10625
1659433532.696475,10667
1659433532.735431,10691
1659433532.777975,10724
1659433532.820519,10768
1659433532.859133,10794
1659433532.897748,10836
1659433532.936362,10867
1659433532.978393,10902
1659433533.020424,10951
1659433533.059038,10977
1659433533.097653,10937
1659433533.136267,10826
1659433533.178298,10729
1659433533.22033,10665
1659433533.258602,10618
1659433533.296875,10579
1659433533.335147,10568
1659433533.376666,10565
1659433533.418185,10567
1659433533.456799,10580
1659433533.495413,10583
1659433533.534027,10601
1659433533.57845,10619
1659433533.622874,10651
1659433533.667297,10679
1659433533.709841,10707
1659433533.752385,10736
1659433533.791341,10755
1659433533.830297,10788
1659433533.869253,10812
1659433533.910259,10838
1659433533.951265,10867
1659433533.990563,10902
1659433534.02986,10942
1659433534.069158,10981
1659433534.10743,11009
1659433534.145703,10983
1659433534.183975,10898
1659433534.226007,10779
1659433534.268038,10710
1659433534.30631,10666
1659433534.344583,10627
1659433534.382855,10624
1659433534.42147,10636
1659433534.460084,10647
1659433534.498698,10650
1659433534.539704,10659
1659433534.58071,10665
1659433534.619324,10684
1659433534.657939,10718
1659433534.696553,10750
1659433534.738072,10783
1659433534.77959,10822
1659433534.818888,10854
1659433534.858186,10865
1659433534.897483,10899
1659433534.938489,10933
1659433534.979496,10961
1659433535.024261,10998
1659433535.069026,11019
1659433535.113791,10989
1659433535.147621,10891
1659433535.181451,10805
1659433535.225533,10747
1659433535.269614,10714
1659433535.313696,10699
1659433535.352652,10706
1659433535.391608,10703
1659433535.430564,10693
1659433535.472083,10697
1659433535.513602,10703
1659433535.551874,10722
1659433535.590146,10754
1659433535.628419,10797
1659433535.67045,10828
1659433535.712481,10855
1659433535.751437,10899
1659433535.790393,10921
1659433535.829349,10949
1659433535.868305,10959
1659433535.907261,10993
1659433535.946217,11032
1659433535.987736,11060
1659433536.029254,11062
1659433536.069236,10972
1659433536.109216,10851
1659433536.149198,10760
1659433536.18747,10730
1659433536.225743,10687
1659433536.264015,10671
1659433536.309122,10678
1659433536.354228,10683
1659433536.399335,10692
1659433536.43795,10696
1659433536.476564,10716
1659433536.515178,10718
1659433536.556184,10750
1659433536.59719,10779
1659433536.636146,10818
1659433536.675102,10853
1659433536.714058,10878
1659433536.756089,10916
1659433536.798121,10939
1659433536.836051,10966
1659433536.873982,11001
1659433536.911913,11004
1659433536.951552,10941
1659433536.991192,10834
1659433537.030831,10769
1659433537.071837,10737
1659433537.112843,10712
1659433537.151116,10700
1659433537.189388,10711
1659433537.227661,10727
1659433537.270205,10739
1659433537.312749,10748
1659433537.351363,10761
1659433537.389977,10798
1659433537.428591,10811
1659433537.469085,10852
1659433537.509578,10879
1659433537.548193,10906
1659433537.586807,10943
1659433537.625421,10973
1659433537.667452,11001
1659433537.709484,11043
1659433537.747756,11053
1659433537.786028,10998
1659433537.824301,10920
1659433537.868724,10857
1659433537.913148,10820
1659433537.957571,10802
1659433537.990376,10806
1659433538.023181,10806
1659433538.067263,10820
1659433538.111344,10812
1659433538.155426,10810
1659433538.195065,10824
1659433538.234705,10833
1659433538.274344,10855
1659433538.315863,10881
1659433538.357382,10909
1659433538.395996,10931
1659433538.43461,10970
1659433538.473224,10991
1659433538.515255,11012
1659433538.557287,10994
1659433538.596926,10921
1659433538.636565,10846
1659433538.676205,10801
1659433538.714477,10782
1659433538.75275,10763
1659433538.791022,10763
1659433538.832028,10774
1659433538.873034,10781
1659433538.91199,10787
1659433538.950946,10798
1659433538.989902,10813
1659433539.031421,10840
1659433539.07294,10865
1659433539.111554,10887
1659433539.150168,10913
1659433539.188782,10945
1659433539.230814,10968
1659433539.272845,11019
1659433539.311801,11029
1659433539.350757,11015
1659433539.389713,10931
1659433539.431744,10863
1659433539.473775,10823
1659433539.518541,10781
1659433539.563306,10772
1659433539.608071,10769
1659433539.647027,10782
1659433539.685982,10790
1659433539.724938,10804
1659433539.765945,10819
1659433539.806951,10843
1659433539.845907,10872
1659433539.884863,10897
1659433539.923819,10934
1659433539.96585,10966
1659433540.007881,10988
1659433540.046154,11017
1659433540.084426,11051
1659433540.122699,11078
1659433540.161313,11074
1659433540.199927,11025
1659433540.238541,10944
1659433540.28006,10899
1659433540.321579,10864
1659433540.360534,10830
1659433540.39949,10835
1659433540.438446,10845
1659433540.480478,10844
1659433540.522509,10844
1659433540.561465,10860
1659433540.600421,10870
1659433540.639377,10893
1659433540.677991,10926
1659433540.716605,10949
1659433540.755219,10978
1659433540.795713,11002
1659433540.836206,11042
1659433540.875504,11065
1659433540.914802,11100
1659433540.954099,11129
1659433540.995618,11159
1659433541.037137,11155
1659433541.081218,11100
1659433541.1253,11034
1659433541.169382,10991
1659433541.202699,10964
1659433541.236017,10942
1659433541.276584,10933
1659433541.317151,10948
1659433541.357718,10955
1659433541.398284,10961
1659433541.438851,10966
1659433541.479418,10973
1659433541.519985,10991
1659433541.558599,11010
1659433541.597213,11041
1659433541.635828,11057
1659433541.680593,11077
1659433541.725358,11101
1659433541.770123,11115
1659433541.812154,11143
1659433541.854185,11170
1659433541.893825,11189
1659433541.933464,11159
1659433541.973104,11094
1659433542.013597,11014
1659433542.054091,10971
1659433542.093047,10954
1659433542.132003,10933
1659433542.170958,10938
1659433542.209573,10940
1659433542.248187,10939
1659433542.286801,10942
1659433542.328832,10964
1659433542.370864,10972
1659433542.40982,11001
1659433542.448775,11042
1659433542.487731,11064
1659433542.527029,11093
1659433542.566327,11130
1659433542.605624,11157
1659433542.64663,11175
1659433542.687637,11208
1659433542.727276,11227
1659433542.766915,11227
1659433542.806555,11179
1659433542.848586,11097
1659433542.890617,11036
1659433542.929231,10978
1659433542.967846,10948
1659433543.00646,10937
1659433543.046953,10930
1659433543.087447,10928
1659433543.126745,10931
1659433543.166042,10927
1659433543.20534,10929
1659433543.245833,10948
1659433543.286327,10959
1659433543.33075,10980
1659433543.375174,11009
1659433543.419597,11020
1659433543.45787,11048
1659433543.496142,11069
1659433543.534415,11092
1659433543.571833,11117
1659433543.609251,11142
1659433543.646669,11094
1659433543.684087,11004
1659433543.725606,10939
1659433543.767125,10892
1659433543.806081,10854
1659433543.845037,10841
1659433543.883992,10839
1659433543.926024,10835
1659433543.968055,10836
1659433544.01282,10834
1659433544.057585,10824
1659433544.10235,10839
1659433544.135155,10855
1659433544.16796,10873
1659433544.212042,10893
1659433544.256124,10912
1659433544.300205,10924
1659433544.334036,10957
1659433544.367866,10988
1659433544.412631,10993
1659433544.457396,10966
1659433544.502161,10870
1659433544.540433,10789
1659433544.578706,10733
1659433544.616978,10688
1659433544.657472,10677
1659433544.697966,10677
1659433544.737263,10685
1659433544.776561,10687
1659433544.815858,10701
1659433544.857377,10710
1659433544.898896,10729
1659433544.937852,10745
1659433544.976808,10777
1659433545.015764,10820
1659433545.055061,10842
1659433545.094359,10881
1659433545.133657,10907
1659433545.175688,10949
1659433545.217719,10986
1659433545.257017,11036
1659433545.296314,11051
1659433545.335612,10991
1659433545.376618,10897
1659433545.417624,10803
1659433545.456922,10745
1659433545.49622,10709
1659433545.535517,10699
1659433545.576011,10705
1659433545.616504,10720
1659433545.655802,10721
1659433545.6951,10714
1659433545.734397,10737
1659433545.776429,10748
1659433545.81846,10777
1659433545.859979,10795
1659433545.901498,10830
1659433545.943016,10853
1659433545.984535,10886
1659433546.023833,10918
1659433546.06313,10951
1659433546.102428,10980
1659433546.143947,10931
1659433546.185466,10849
1659433546.223738,10760
1659433546.262011,10714
1659433546.300283,10696
1659433546.339239,10687
1659433546.378195,10701
1659433546.41715,10712
1659433546.459182,10737
1659433546.501213,10741
1659433546.539144,10774
1659433546.577075,10787
1659433546.615005,10821
1659433546.656524,10853
1659433546.698043,10888
1659433546.736657,10921
1659433546.775271,10955
1659433546.813886,10992
1659433546.855404,11030
1659433546.896923,11071
1659433546.941688,11100
1659433546.986453,11053
1659433547.031219,10961
1659433547.070858,10859
1659433547.110497,10788
1659433547.150136,10740
1659433547.188409,10711
1659433547.226681,10707
1659433547.264954,10717
1659433547.306985,10742
1659433547.349017,10755
1659433547.387972,10781
1659433547.426928,10800
1659433547.465884,10843
1659433547.506378,10863
1659433547.546871,10888
1659433547.585486,10920
1659433547.6241,10947
1659433547.662714,10988
1659433547.70167,11033
1659433547.740626,11081
1659433547.779582,11115
1659433547.8211,11152
1659433547.862619,11103
1659433547.901575,10993
1659433547.940531,10907
1659433547.979487,10845
1659433548.021006,10799
1659433548.062525,10780
1659433548.10148,10791
1659433548.140436,10808
1659433548.179392,10843
1659433548.224157,10850
1659433548.268922,10865
1659433548.313688,10890
1659433548.352985,10917
1659433548.392283,10950
1659433548.43158,10992
1659433548.470195,11036
1659433548.508809,11069
1659433548.547423,11093
1659433548.589967,11129
1659433548.632511,11159
1659433548.671467,11188
1659433548.710423,11221
1659433548.749378,11234
1659433548.790385,11164
1659433548.831391,11079
1659433548.869663,11005
1659433548.907936,10969
1659433548.946208,10941
1659433548.985164,10916
1659433549.02412,10945
1659433549.063076,10953
1659433549.104082,10956
1659433549.145088,10965
1659433549.186607,10984
1659433549.228126,11027
1659433549.26674,11052
1659433549.305354,11076
1659433549.343968,11100
1659433549.388392,11132
1659433549.432815,11146
1659433549.477238,11194
1659433549.511069,11205
1659433549.544899,11235
1659433549.589664,11273
1659433549.634429,11311
1659433549.679194,11315
1659433549.711999,11272
1659433549.744804,11187
1659433549.788544,11106
1659433549.832284,11063
1659433549.876024,11037
1659433549.91498,11006
1659433549.953936,11018
1659433549.992892,11013
1659433550.03441,11019
1659433550.075929,11019
1659433550.114202,11032
1659433550.152474,11047
1659433550.190746,11083
1659433550.229702,11113
1659433550.268658,11138
1659433550.307614,11185
1659433550.350158,11225
1659433550.392702,11275
1659433550.431316,11310
1659433550.46993,11338
1659433550.508544,11386
1659433550.553309,11430
1659433550.598075,11422
1659433550.64284,11363
1659433550.681796,11298
1659433550.720752,11236
1659433550.759707,11208
1659433550.800201,11185
1659433550.840695,11170
1659433550.879651,11178
1659433550.918607,11184
1659433550.957562,11195
1659433550.996518,11197
1659433551.035474,11218
1659433551.07443,11237
1659433551.116461,11273
1659433551.158493,11303
1659433551.197449,11331
1659433551.236404,11373
1659433551.27536,11396
1659433551.316879,11430
1659433551.358398,11453
1659433551.39667,11481
1659433551.434943,11482
1659433551.473215,11427
1659433551.513196,11331
1659433551.553177,11263
1659433551.593158,11225
1659433551.634677,11194
1659433551.676196,11190
1659433551.714468,11184
1659433551.752741,11180
1659433551.791013,11186
1659433551.833045,11196
1659433551.875076,11194
1659433551.914374,11206
1659433551.953671,11237
1659433551.992969,11255
1659433552.033463,11278
1659433552.073956,11302
1659433552.118038,11313
1659433552.16212,11355
1659433552.206201,11373
1659433552.239519,11396
1659433552.272836,11409
1659433552.316918,11375
1659433552.361,11282
1659433552.405081,11199
1659433552.444379,11124
1659433552.483676,11070
1659433552.522974,11047
1659433552.565006,11022
1659433552.607037,11012
1659433552.645309,10998
1659433552.683582,10985
1659433552.721854,10965
1659433552.76081,10977
1659433552.799766,10982
1659433552.838722,10978
1659433552.881266,10994
1659433552.92381,11005
1659433552.962424,11018
1659433553.001038,11040
1659433553.039652,11054
1659433553.080658,11069
1659433553.121665,11094
1659433553.160279,11079
1659433553.198893,10994
1659433553.237507,10889
1659433553.27578,10800
1659433553.314052,10750
1659433553.352324,10705
1659433553.393843,10688
1659433553.435362,10680
1659433553.476881,10681
1659433553.5184,10675
1659433553.557356,10674
1659433553.596312,10685
1659433553.635267,10701
1659433553.680032,10717
1659433553.724797,10741
1659433553.769563,10765
1659433553.803393,10804
1659433553.837223,10840
1659433553.881988,10861
1659433553.926753,10886
1659433553.971518,10923
1659433554.004836,10909
1659433554.038153,10861
1659433554.082577,10754
1659433554.127,10678
1659433554.171423,10645
1659433554.210038,10617
1659433554.248652,10608
1659433554.287266,10604
1659433554.329297,10618
1659433554.371329,10621
1659433554.410285,10628
1659433554.44924,10641
1659433554.488196,10649
1659433554.529202,10682
1659433554.570209,10706
1659433554.608481,10749
1659433554.646754,10767
1659433554.685026,10792
1659433554.723982,10827
1659433554.762938,10867
1659433554.801894,10868
1659433554.843925,10803
1659433554.885957,10715
1659433554.924912,10625
1659433554.963868,10583
1659433555.002824,10567
1659433555.044599,10557
1659433555.086374,10573
1659433555.12815,10594
1659433555.169924,10605
1659433555.209222,10623
1659433555.24852,10641
1659433555.287817,10664
1659433555.328311,10702
1659433555.368804,10721
1659433555.40776,10750
1659433555.446716,10798
1659433555.485672,10825
1659433555.527704,10855
1659433555.569735,10896
1659433555.607666,10874
1659433555.645597,10778
1659433555.683527,10681
1659433555.724533,10617
1659433555.76554,10574
1659433555.805179,10564
1659433555.844818,10567
1659433555.884458,10588
1659433555.925976,10603
1659433555.967495,10621
1659433556.006451,10642
1659433556.045407,10659
1659433556.084363,10678
1659433556.129128,10702
1659433556.173893,10731
1659433556.218658,10753
1659433556.250951,10780
1659433556.283243,10813
1659433556.327325,10845
1659433556.371406,10855
1659433556.415488,10809
1659433556.458544,10717
1659433556.501601,10649
1659433556.539532,10616
1659433556.577462,10607
1659433556.615393,10611
1659433556.654349,10617
1659433556.693305,10630
1659433556.732261,10638
1659433556.77378,10642
1659433556.815298,10647
1659433556.853913,10665
1659433556.892527,10680
1659433556.931141,10699
1659433556.973172,10725
1659433557.015203,10750
1659433557.054843,10772
1659433557.094482,10802
1659433557.134122,10796
1659433557.172736,10713
1659433557.21135,10616
1659433557.249964,10557
1659433557.294729,10518
1659433557.339494,10513
1659433557.384259,10516
1659433557.423215,10538
1659433557.462171,10557
1659433557.501127,10571
1659433557.540083,10579
1659433557.579039,10592
1659433557.617995,10606
1659433557.656951,10625
1659433557.695907,10662
1659433557.734862,10687
1659433557.775136,10717
1659433557.81541,10755
1659433557.855684,10795
1659433557.895958,10788
1659433557.936232,10703
1659433557.976506,10602
1659433558.01678,10538
1659433558.056966,10502
1659433558.097152,10483
1659433558.137338,10487
1659433558.177524,10506
1659433558.21771,10518
1659433558.259229,10543
1659433558.300748,10543
1659433558.340046,10559
1659433558.379343,10587
1659433558.418641,10613
1659433558.457255,10644
1659433558.495869,10676
1659433558.534483,10705
1659433558.576515,10739
1659433558.618546,10766
1659433558.659552,10723
1659433558.700558,10625
1659433558.739173,10558
1659433558.777787,10502
1659433558.816401,10480
1659433558.860141,10474
1659433558.903881,10492
1659433558.947621,10511
1659433558.980938,10528
1659433559.014256,10538
1659433559.058679,10559
1659433559.103103,10585
1659433559.147526,10613
1659433559.180844,10647
1659433559.214161,10668
1659433559.258584,10701
1659433559.303008,10749
1659433559.347431,10736
1659433559.386387,10666
1659433559.425343,10584
1659433559.464299,10535
1659433559.50633,10508
1659433559.548362,10513
1659433559.587659,10516
1659433559.626957,10533
1659433559.666255,10561
1659433559.707261,10577
1659433559.748267,10602
1659433559.787223,10626
1659433559.826179,10662
1659433559.865135,10688
1659433559.90409,10737
1659433559.943046,10769
1659433559.982002,10808
1659433560.024034,10843
1659433560.066065,10824
1659433560.104337,10741
1659433560.14261,10664
1659433560.180882,10631
1659433560.222401,10611
1659433560.26392,10602
1659433560.303901,10622
1659433560.343882,10646
1659433560.383863,10666
1659433560.425382,10682
1659433560.466901,10710
1659433560.505173,10730
1659433560.543446,10765
1659433560.581718,10793
1659433560.624262,10838
1659433560.666806,10879
1659433560.705762,10906
1659433560.744718,10958
1659433560.783674,10984
1659433560.827755,10992
1659433560.871837,10928
1659433560.915919,10847
1659433560.956925,10796
1659433560.997931,10772
1659433561.036887,10755
1659433561.075843,10767
1659433561.114799,10788
1659433561.152729,10794
1659433561.19066,10813
1659433561.228591,10824
1659433561.271647,10839
1659433561.314704,10871
1659433561.352976,10903
1659433561.391249,10928
1659433561.429521,10959
1659433561.470527,10990
1659433561.511534,11013
1659433561.550831,11048
1659433561.590129,11068
1659433561.629426,11009
1659433561.668041,10929
1659433561.706655,10872
1659433561.745269,10831
1659433561.786788,10813
1659433561.828307,10801
1659433561.867604,10814
1659433561.906902,10821
1659433561.946199,10825
1659433561.987206,10832
1659433562.028212,10851
1659433562.066484,10868
1659433562.104757,10884
1659433562.143029,10921
1659433562.184548,10931
1659433562.226067,10962
1659433562.27049,10990
1659433562.314914,11021
1659433562.359337,11031
1659433562.391117,11014
1659433562.422896,10937
1659433562.463288,10852
1659433562.503679,10798
1659433562.54407,10762
1659433562.584461,10747
1659433562.624852,10746
1659433562.666371,10755
1659433562.70789,10763
1659433562.746504,10766
1659433562.785118,10766
1659433562.823732,10780
1659433562.868839,10800
1659433562.913946,10835
1659433562.959053,10850
1659433562.99237,10888
1659433563.025688,10905
1659433563.070111,10937
1659433563.114534,10962
1659433563.158958,10984
1659433563.200477,10969
1659433563.241995,10890
1659433563.28061,10797
1659433563.319224,10741
1659433563.357838,10701
1659433563.39611,10677
1659433563.434383,10683
1659433563.472655,10692
1659433563.515199,10693
1659433563.557743,10702
1659433563.596699,10717
1659433563.635655,10727
1659433563.674611,10757
1659433563.713567,10781
1659433563.752523,10804
1659433563.791478,10834
1659433563.832997,10867
1659433563.874516,10898
1659433563.913814,10928
1659433563.953111,10963
1659433563.992409,10966
1659433564.033928,10903
1659433564.075446,10813
1659433564.114061,10754
1659433564.152675,10717
1659433564.191289,10701
1659433564.232295,10705
1659433564.273301,10721
1659433564.311916,10726
1659433564.35053,10744
1659433564.389144,10750
1659433564.431175,10762
1659433564.473207,10787
1659433564.517288,10809
1659433564.56137,10843
1659433564.605452,10865
1659433564.643724,10913
1659433564.681997,10937
1659433564.720269,10982
1659433564.761788,11004
1659433564.803307,11003
1659433564.841921,10940
1659433564.880535,10857
1659433564.919149,10794
1659433564.96118,10762
1659433565.003212,10749
1659433565.041826,10752
1659433565.08044,10768
1659433565.119054,10769
1659433565.158352,10782
1659433565.197649,10793
1659433565.236947,10797
1659433565.277953,10817
1659433565.318959,10841
1659433565.357574,10873
1659433565.396188,10898
1659433565.434802,10928
1659433565.4741,10964
1659433565.513397,10991
1659433565.552695,11003
1659433565.593701,10962
1659433565.634707,10864
1659433565.672638,10780
1659433565.710569,10729
1659433565.748499,10702
1659433565.791556,10687
1659433565.834613,10693
1659433565.873568,10698
1659433565.912524,10708
1659433565.95148,10707
1659433565.992486,10723
1659433566.033493,10734
1659433566.078599,10760
1659433566.123706,10787
1659433566.168813,10816
1659433566.202643,10836
1659433566.236473,10876
1659433566.280897,10897
1659433566.32532,10923
1659433566.369743,10939
1659433566.402548,10865
1659433566.435353,10746
1659433566.479777,10668
1659433566.5242,10612
1659433566.568624,10575
1659433566.606554,10556
1659433566.644485,10565
1659433566.682416,10566
1659433566.724447,10567
1659433566.766479,10567
1659433566.805776,10584
1659433566.845074,10601
1659433566.884371,10622
1659433566.922644,10656
1659433566.960916,10685
1659433566.999189,10710
1659433567.04122,10741
1659433567.083251,10766
1659433567.122207,10794
1659433567.161163,10814
1659433567.200119,10746
1659433567.241638,10634
1659433567.283157,10552
1659433567.322113,10492
1659433567.361068,10462
1659433567.400024,10454
1659433567.441543,10460
1659433567.483062,10468
1659433567.521334,10476
1659433567.559607,10486
1659433567.597879,10499
1659433567.63991,10525
1659433567.681942,10550
1659433567.721513,10585
1659433567.761084,10626
1659433567.800655,10651
1659433567.840226,10681
1659433567.879797,10719
1659433567.918069,10747
1659433567.956342,10781
1659433567.994614,10761
1659433568.039379,10642
1659433568.084144,10553
1659433568.12891,10506
1659433568.167182,10465
1659433568.205454,10449
1659433568.243727,10459
1659433568.285758,10468
1659433568.32779,10475
1659433568.367087,10479
1659433568.406385,10498
1659433568.445683,10516
1659433568.484638,10537
1659433568.523594,10569
1659433568.56255,10597
1659433568.603044,10629
1659433568.643537,10656
1659433568.683177,10701
1659433568.722816,10729
1659433568.762455,10742
1659433568.803462,10707
1659433568.844468,10611
1659433568.883082,10528
1659433568.921696,10493
1659433568.96031,10468
1659433569.001829,10462
1659433569.043348,10480
1659433569.082987,10498
1659433569.122627,10498
1659433569.162266,10527
1659433569.203272,10538
1659433569.244278,10574
1659433569.283234,10600
1659433569.32219,10633
1659433569.361146,10653
1659433569.405911,10685
1659433569.450676,10716
1659433569.495441,10742
1659433569.529271,10784
1659433569.563102,10809
1659433569.607525,10794
1659433569.651948,10714
1659433569.696372,10609
1659433569.73789,10562
1659433569.779409,10523
1659433569.817682,10503
1659433569.855954,10507
1659433569.894227,10537
1659433569.932841,10545
1659433569.971455,10567
1659433570.010069,10570
1659433570.052613,10587
1659433570.095157,10620
1659433570.133771,10644
1659433570.172385,10682
1659433570.210999,10709
1659433570.252518,10754
1659433570.294037,10776
1659433570.333335,10816
1659433570.372632,10851
1659433570.41193,10878
1659433570.450544,10857
1659433570.489158,10748
1659433570.527772,10662
1659433570.569291,10616
1659433570.61081,10582
1659433570.650449,10567
1659433570.690089,10592
1659433570.729728,10605
1659433570.770221,10610
1659433570.810715,10628
1659433570.848646,10641
1659433570.886577,10667
1659433570.924507,10689
1659433570.967051,10721
1659433571.009595,10756
1659433571.054019,10779
1659433571.098442,10815
1659433571.142865,10842
1659433571.180796,10881
1659433571.218727,10911
1659433571.256658,10944
1659433571.298176,10893
1659433571.339695,10792
1659433571.378993,10725
1659433571.41829,10682
1659433571.457588,10657
1659433571.499107,10647
1659433571.540626,10665
1659433571.579923,10678
1659433571.619221,10712
1659433571.658518,10704
1659433571.70055,10722
1659433571.742581,10751
1659433571.780854,10781
1659433571.819126,10807
1659433571.857399,10839
1659433571.896696,10874
1659433571.935994,10901
1659433571.975291,10930
1659433572.017323,10972
1659433572.059354,10993
1659433572.097626,11025
1659433572.135899,10972
1659433572.174171,10872
1659433572.213127,10795
1659433572.252083,10757
1659433572.291039,10723
1659433572.332045,10725
1659433572.373051,10746
1659433572.412007,10757
1659433572.450963,10777
1659433572.489919,10780
1659433572.531438,10801
1659433572.572957,10832
1659433572.618063,10849
1659433572.66317,10887
1659433572.708277,10916
1659433572.741082,10954
1659433572.773887,10982
1659433572.818652,11017
1659433572.863417,11048
1659433572.908182,11091
1659433572.947822,11114
1659433572.987461,11123
1659433573.0271,11049
1659433573.067594,10928
1659433573.108088,10841
1659433573.146702,10780
1659433573.185316,10743
1659433573.22393,10715
1659433573.265449,10714
1659433573.306968,10726
1659433573.345924,10715
1659433573.38488,10728
1659433573.423835,10733
1659433573.46245,10749
1659433573.501064,10776
1659433573.539678,10801
1659433573.581709,10835
1659433573.623741,10861
1659433573.662355,10888
1659433573.700969,10915
1659433573.739583,10948
1659433573.778197,10966
1659433573.816812,11003
1659433573.855426,11006
1659433573.897457,10930
1659433573.939488,10813
1659433573.98357,10734
1659433574.027652,10698
1659433574.071733,10658
1659433574.104538,10662
1659433574.137343,10672
1659433574.181767,10695
1659433574.22619,10703
1659433574.270613,10703
1659433574.309228,10720
1659433574.347842,10738
1659433574.386456,10769
1659433574.424728,10794
1659433574.463001,10832
1659433574.501273,10860
1659433574.543817,10912
1659433574.586361,10928
1659433574.625317,10961
1659433574.664273,11001
1659433574.703229,11026
1659433574.744235,11065
1659433574.785241,11047
1659433574.824197,10946
1659433574.863153,10836
1659433574.902109,10778
1659433574.941748,10745
1659433574.981388,10725
1659433575.021027,10736
1659433575.062033,10752
1659433575.103039,10778
1659433575.142337,10777
1659433575.181635,10791
1659433575.220932,10812
1659433575.262451,10841
1659433575.30397,10886
1659433575.342584,10915
1659433575.381198,10959
1659433575.419812,11001
1659433575.460819,11037
1659433575.501825,11067
1659433575.546932,11099
1659433575.592038,11139
1659433575.637145,11168
1659433575.675076,11196
1659433575.713007,11150
1659433575.750937,11031
1659433575.792456,10940
1659433575.833975,10904
1659433575.873956,10867
1659433575.913937,10853
1659433575.953918,10870
1659433575.992191,10879
1659433576.030463,10886
1659433576.068735,10884
1659433576.110254,10895
1659433576.151773,10909
1659433576.191412,10938
1659433576.231052,10959
1659433576.270691,10987
1659433576.31221,11020
1659433576.353729,11037
1659433576.392343,11061
1659433576.430957,11084
1659433576.469571,11112
1659433576.508185,11145
1659433576.546799,11165
1659433576.585414,11109
1659433576.625907,10977
1659433576.666401,10887
1659433576.704673,10819
1659433576.742946,10794
1659433576.781218,10760
1659433576.823762,10760
1659433576.866306,10780
1659433576.910729,10784
1659433576.955153,10773
1659433576.999576,10771
1659433577.032381,10780
1659433577.065186,10799
1659433577.110293,10821
1659433577.1554,10845
1659433577.200507,10886
1659433577.233824,10920
1659433577.267142,10956
1659433577.311223,10985
1659433577.355305,11018
1659433577.399387,11045
1659433577.438684,11044
1659433577.477982,10946
1659433577.51728,10815
1659433577.558286,10739
1659433577.599292,10685
1659433577.637564,10661
1659433577.675837,10650
1659433577.714109,10660
1659433577.756653,10677
1659433577.799197,10671
1659433577.837811,10688
1659433577.876426,10695
1659433577.91504,10713
1659433577.953312,10755
1659433577.991585,10785
1659433578.029857,10831
1659433578.068813,10856
1659433578.107769,10882
1659433578.146725,10911
1659433578.191148,10940
1659433578.235571,10970
1659433578.279995,11005
1659433578.318951,10978
1659433578.357907,10851
1659433578.396863,10742
1659433578.439406,10649
1659433578.481951,10601
1659433578.520906,10586
1659433578.559862,10583
1659433578.598818,10597
1659433578.639824,10612
1659433578.68083,10631
1659433578.719786,10634
1659433578.758742,10672
1659433578.797698,10682
1659433578.836312,10716
1659433578.874927,10752
1659433578.913541,10772
1659433578.955572,10809
1659433578.997603,10843
1659433579.036218,10881
1659433579.074832,10897
1659433579.113446,10934
1659433579.155477,10950
1659433579.197509,10914
1659433579.236123,10808
1659433579.274737,10699
1659433579.313351,10647
1659433579.355382,10612
1659433579.397414,10593
1659433579.436712,10599
1659433579.476009,10615
1659433579.515307,10618
1659433579.556313,10615
1659433579.597319,10635
1659433579.63525,10664
1659433579.673181,10702
1659433579.711111,10721
1659433579.755193,10748
1659433579.799275,10789
1659433579.843356,10815
1659433579.885388,10835
1659433579.927419,10859
1659433579.966033,10896
1659433580.004647,10926
1659433580.043262,10937
1659433580.081876,10851
1659433580.12049,10717
1659433580.159104,10640
1659433580.200623,10591
1659433580.242142,10579
1659433580.280414,10572
1659433580.318686,10582
1659433580.356959,10591
1659433580.400016,10624
1659433580.443072,10622
1659433580.481686,10638
1659433580.5203,10668
1659433580.558915,10699
1659433580.597529,10735
1659433580.636143,10773
1659433580.674757,10810
1659433580.716789,10837
1659433580.75882,10888
1659433580.797776,10910
1659433580.836732,10947
1659433580.875688,10990
1659433580.916181,10979
1659433580.956675,10900
1659433580.995972,10788
1659433581.03527,10715
1659433581.074568,10680
1659433581.115574,10682
1659433581.15658,10691
1659433581.195878,10698
1659433581.235175,10706
1659433581.274473,10700
1659433581.315479,10713
1659433581.356485,10724
1659433581.40125,10744
1659433581.446015,10777
1659433581.490781,10807
1659433581.529053,10836
1659433581.567325,10861
1659433581.605598,10898
1659433581.648142,10919
1659433581.690686,10969
1659433581.729983,10959
1659433581.769281,10876
1659433581.808578,10771
1659433581.847193,10693
1659433581.885807,10649
1659433581.924421,10645
1659433581.96594,10635
1659433582.007459,10645
1659433582.046073,10646
1659433582.084687,10646
1659433582.123301,10656
1659433582.16482,10666
1659433582.206339,10680
1659433582.245295,10699
1659433582.28425,10724
1659433582.323206,10753
1659433582.361821,10779
1659433582.400435,10804
1659433582.439049,10828
1659433582.480568,10864
1659433582.522087,10864
1659433582.560701,10795
1659433582.599315,10676
1659433582.637929,10590
1659433582.680473,10536
1659433582.723017,10494
1659433582.767099,10480
1659433582.81118,10478
1659433582.855262,10488
1659433582.888579,10486
1659433582.921897,10487
1659433582.965979,10490
1659433583.01006,10510
1659433583.054142,10532
1659433583.087972,10549
1659433583.121802,10582
1659433583.165542,10596
1659433583.209282,10635
1659433583.253022,10649
1659433583.291978,10690
1659433583.330934,10703
1659433583.36989,10651
1659433583.410383,10550
1659433583.450877,10458
1659433583.489833,10395
1659433583.528789,10363
1659433583.567745,10347
1659433583.606701,10336
1659433583.645656,10365
1659433583.684612,10359
1659433583.724252,10363
1659433583.763891,10383
1659433583.80353,10390
1659433583.844537,10418
1659433583.885543,10443
1659433583.924499,10484
1659433583.963454,10519
1659433584.00241,10555
1659433584.046492,10582
1659433584.090574,10621
1659433584.134655,10653
1659433584.175662,10638
1659433584.216668,10555
1659433584.256307,10478
1659433584.295946,10429
1659433584.335586,10390
1659433584.376592,10378
1659433584.417598,10389
1659433584.456212,10398
1659433584.494827,10408
1659433584.533441,10412
1659433584.572397,10433
1659433584.611352,10447
1659433584.650308,10467
1659433584.69234,10502
1659433584.734371,10541
1659433584.773327,10561
1659433584.812283,10597
1659433584.851239,10622
1659433584.892758,10655
1659433584.934276,10687
1659433584.973916,10677
1659433585.013555,10613
1659433585.053194,10554
1659433585.091467,10514
1659433585.129739,10482
1659433585.168012,10476
1659433585.210556,10478
1659433585.2531,10484
1659433585.292055,10501
1659433585.331011,10505
1659433585.369967,10526
1659433585.410461,10552
1659433585.450954,10576
1659433585.489569,10592
1659433585.528183,10627
1659433585.566797,10647
1659433585.608828,10682
1659433585.65086,10705
1659433585.6946,10732
1659433585.73834,10772
1659433585.78208,10796
1659433585.820694,10790
1659433585.859308,10727
1659433585.897922,10672
1659433585.939954,10624
1659433585.981985,10593
1659433586.020599,10581
1659433586.059213,10582
1659433586.097827,10586
1659433586.139346,10591
1659433586.180865,10590
1659433586.220504,10597
1659433586.260144,10617
1659433586.299783,10636
1659433586.337714,10655
1659433586.375644,10683
1659433586.413575,10708
1659433586.454581,10742
1659433586.495588,10762
1659433586.534544,10787
1659433586.573499,10820
1659433586.612455,10848
1659433586.651411,10858
1659433586.690367,10815
1659433586.729323,10743
1659433586.770842,10691
1659433586.812361,10651
1659433586.851658,10627
1659433586.890956,10627
1659433586.930253,10615
1659433586.971259,10625
1659433587.012266,10637
1659433587.05481,10629
1659433587.097353,10646
1659433587.136309,10663
1659433587.175265,10686
1659433587.214221,10711
1659433587.258645,10738
1659433587.303068,10757
1659433587.347491,10772
1659433587.379784,10813
1659433587.412076,10831
1659433587.456841,10854
1659433587.501606,10865
1659433587.546371,10833
1659433587.579689,10751
1659433587.613007,10697
1659433587.65743,10647
1659433587.701853,10614
1659433587.746277,10606
1659433587.785233,10601
1659433587.824188,10613
1659433587.863144,10613
1659433587.904663,10613
1659433587.946182,10618
1659433587.985138,10625
1659433588.024094,10648
1659433588.06305,10680
1659433588.105081,10699
1659433588.147112,10723
1659433588.186068,10754
1659433588.225024,10762
1659433588.26398,10785
1659433588.302594,10802
1659433588.341208,10813
1659433588.379822,10761
1659433588.421854,10678
1659433588.463885,10622
1659433588.502841,10580
1659433588.541797,10560
1659433588.580753,10537
1659433588.621759,10543
1659433588.662765,10548
1659433588.70138,10550
1659433588.739994,10554
1659433588.778608,10558
1659433588.820127,10572
1659433588.861645,10590
1659433588.903164,10623
1659433588.944683,10635
1659433588.985177,10660
1659433589.02567,10694
1659433589.064626,10714
1659433589.103582,10743
1659433589.142538,10766
1659433589.182177,10796
1659433589.221817,10792
1659433589.261456,10717
1659433589.302462,10637
1659433589.343468,10579
1659433589.382424,10541
1659433589.42138,10521
1659433589.460336,10519
1659433589.502367,10530
1659433589.544399,10529
1659433589.583354,10529
1659433589.62231,10542
1659433589.661266,10554
1659433589.702272,10581
1659433589.743279,10603
1659433589.782235,10626
1659433589.821191,10662
1659433589.860146,10681
1659433589.903886,10709
1659433589.947626,10747
1659433589.991366,10772
1659433590.03186,10805
1659433590.072354,10845
1659433590.112334,10842
1659433590.152316,10785
1659433590.192297,10713
1659433590.233815,10641
1659433590.275334,10607
1659433590.313948,10592
1659433590.352562,10586
1659433590.391177,10588
1659433590.433208,10611
1659433590.47524,10607
1659433590.514879,10618
1659433590.554518,10650
1659433590.594157,10660
1659433590.632771,10689
1659433590.671386,10716
1659433590.71,10745
1659433590.752031,10771
1659433590.794063,10806
1659433590.832677,10828
1659433590.871291,10869
1659433590.909905,10882
1659433590.948519,10905
1659433590.987134,10910
1659433591.025748,10833
1659433591.068292,10761
1659433591.110836,10720
1659433591.149108,10695
1659433591.187381,10671
1659433591.225653,10673
1659433591.266147,10686
1659433591.30664,10690
1659433591.349184,10702
1659433591.391728,10710
1659433591.430342,10723
1659433591.468956,10736
1659433591.507571,10765
1659433591.551652,10780
1659433591.595734,10817
1659433591.639816,10839
1659433591.673133,10862
1659433591.706451,10895
1659433591.751216,10916
1659433591.795981,10952
1659433591.840746,10956
1659433591.878677,10905
1659433591.916607,10822
1659433591.954538,10759
1659433591.997082,10712
1659433592.039626,10684
1659433592.07824,10681
1659433592.116854,10684
1659433592.155468,10689
1659433592.195962,10685
1659433592.236456,10692
1659433592.275412,10700
1659433592.314368,10707
1659433592.353323,10730
1659433592.392279,10745
1659433592.431235,10770
1659433592.470191,10793
1659433592.51171,10822
1659433592.553229,10836
1659433592.592185,10859
1659433592.63114,10887
1659433592.670096,10909
1659433592.709052,10911
1659433592.748008,10848
1659433592.786964,10760
1659433592.828483,10685
1659433592.870002,10641
1659433592.91152,10602
1659433592.953039,10586
1659433592.991995,10595
1659433593.030951,10592
1659433593.069907,10592
1659433593.113647,10591
1659433593.157387,10598
1659433593.201127,10611
1659433593.233932,10633
1659433593.266737,10661
1659433593.311502,10686
1659433593.356267,10711
1659433593.401032,10742
1659433593.434862,10777
1659433593.468692,10795
1659433593.513116,10826
1659433593.557539,10860
1659433593.601962,10867
1659433593.643994,10811
1659433593.686025,10719
1659433593.724981,10668
1659433593.763937,10624
1659433593.802893,10614
1659433593.84219,10601
1659433593.881488,10601
1659433593.920786,10625
1659433593.962817,10626
1659433594.004848,10626
1659433594.043463,10640
1659433594.082077,10661
1659433594.120691,10686
1659433594.158963,10706
1659433594.197236,10736
1659433594.235508,10768
1659433594.274464,10784
1659433594.31342,10818
1659433594.352376,10846
1659433594.394407,10869
1659433594.436439,10900
1659433594.480179,10893
1659433594.523918,10822
1659433594.567658,10752
1659433594.599951,10702
1659433594.632243,10678
1659433594.677008,10665
1659433594.721773,10664
1659433594.766538,10679
1659433594.799856,10671
1659433594.833174,10683
1659433594.877597,10693
1659433594.92202,10698
1659433594.966444,10719
1659433595.005741,10742
1659433595.045039,10766
1659433595.084337,10786
1659433595.125343,10821
1659433595.166349,10841
1659433595.204621,10859
1659433595.242894,10899
1659433595.281166,10920
1659433595.32371,10925
1659433595.366254,10876
1659433595.404527,10803
1659433595.442799,10752
1659433595.481071,10716
1659433595.519686,10693
1659433595.5583,10678
1659433595.596914,10687
1659433595.63792,10687
1659433595.678926,10692
1659433595.717199,10687
1659433595.755471,10691
1659433595.793744,10706
1659433595.835263,10722
1659433595.876781,10741
1659433595.916421,10762
1659433595.95606,10789
1659433595.995699,10814
1659433596.037218,10841
1659433596.078737,10853
1659433596.117693,10869
1659433596.156649,10900
1659433596.195605,10896
1659433596.24037,10842
1659433596.285135,10763
1659433596.3299,10698
1659433596.363218,10655
1659433596.396535,10628
1659433596.440617,10614
1659433596.484698,10613
1659433596.52878,10608
1659433596.570811,10601
1659433596.612843,10603
1659433596.651457,10603
1659433596.690071,10619
1659433596.728685,10634
1659433596.767983,10651
1659433596.807281,10668
1659433596.846578,10705
1659433596.888609,10719
1659433596.930641,10744
1659433596.969255,10777
1659433597.007869,10802
1659433597.046483,10824
1659433597.085098,10830
1659433597.123712,10790
1659433597.162326,10719
1659433597.20487,10654
1659433597.247414,10619
1659433597.285686,10587
1659433597.323959,10585
1659433597.362231,10577
1659433597.403237,10577
1659433597.444243,10585
1659433597.482858,10584
1659433597.521472,10588
1659433597.560086,10610
1659433597.60263,10620
1659433597.645174,10646
1659433597.683446,10677
1659433597.721719,10679
1659433597.759991,10706
1659433597.800997,10728
1659433597.842004,10744
1659433597.880618,10763
1659433597.919232,10782
1659433597.957846,10778
1659433598.00227,10719
1659433598.046693,10648
1659433598.091116,10604
1659433598.133148,10571
1659433598.175179,10545
1659433598.214135,10547
1659433598.253091,10547
1659433598.292047,10556
1659433598.333053,10555
1659433598.374059,10560
1659433598.413015,10579
1659433598.451971,10591
1659433598.490927,10615
1659433598.529541,10643
1659433598.568155,10659
1659433598.606769,10678
1659433598.648801,10709
1659433598.690832,10730
1659433598.729105,10755
1659433598.767377,10788
1659433598.80565,10780
1659433598.844947,10718
1659433598.884245,10646
1659433598.923542,10585
1659433598.964036,10549
1659433599.004529,10509
1659433599.043144,10507
1659433599.081758,10511
1659433599.120372,10516
1659433599.162916,10519
1659433599.20546,10525
1659433599.244757,10534
1659433599.284055,10554
1659433599.323353,10584
1659433599.367776,10604
1659433599.412199,10627
1659433599.456623,10658
1659433599.498654,10688
1659433599.540686,10705
1659433599.5793,10725
1659433599.617914,10762
1659433599.656528,10778
1659433599.69856,10770
1659433599.740591,10702
1659433599.779547,10610
1659433599.818503,10563
1659433599.857459,10534
1659433599.896073,10509
1659433599.934687,10496
1659433599.973301,10501
1659433600.013795,10503
1659433600.054288,10507
1659433600.093928,10516
1659433600.133567,10519
1659433600.173206,10552
1659433600.212162,10572
1659433600.251118,10619
1659433600.290074,10636
1659433600.33108,10660
1659433600.372086,10695
1659433600.411384,10717
1659433600.450681,10750
1659433600.489979,10777
1659433600.532523,10814
1659433600.575067,10763
1659433600.613339,10687
1659433600.651612,10620
1659433600.689884,10580
1659433600.731403,10558
1659433600.772922,10545
1659433600.811536,10546
1659433600.85015,10556
1659433600.888764,10567
1659433600.932504,10561
1659433600.976244,10576
1659433601.019984,10602
1659433601.062016,10617
1659433601.104047,10659
1659433601.143345,10681
1659433601.182642,10703
1659433601.22194,10733
1659433601.262434,10751
1659433601.302927,10772
1659433601.341883,10804
1659433601.380839,10801
1659433601.419795,10721
1659433601.458409,10630
1659433601.497023,10568
1659433601.535637,10537
1659433601.574251,10505
1659433601.612866,10495
1659433601.65148,10496
1659433601.693511,10492
1659433601.735543,10500
1659433601.77484,10486
1659433601.814138,10510
1659433601.853435,10520
1659433601.893929,10541
1659433601.934423,10559
1659433601.973378,10584
1659433602.012334,10598
1659433602.05129,10630
1659433602.093834,10649
1659433602.136378,10676
1659433602.174992,10685
1659433602.213607,10624
1659433602.252221,10523
1659433602.293227,10458
1659433602.334233,10411
1659433602.37934,10387
1659433602.424447,10369
1659433602.469553,10377
1659433602.508168,10384
1659433602.546782,10387
1659433602.585396,10390
1659433602.62794,10404
1659433602.670484,10425
1659433602.709782,10445
1659433602.749079,10472
1659433602.788377,10500
1659433602.829895,10530
1659433602.871414,10560
1659433602.909687,10579
1659433602.947959,10622
1659433602.986232,10644
1659433603.028776,10616
1659433603.07132,10547
1659433603.109592,10468
1659433603.147865,10419
1659433603.186137,10399
1659433603.224751,10373
1659433603.263365,10382
1659433603.30198,10397
1659433603.342986,10398
1659433603.383992,10406
1659433603.423631,10415
1659433603.463271,10437
1659433603.50291,10451
1659433603.541524,10469
1659433603.580138,10491
1659433603.618752,10502
1659433603.660271,10529
1659433603.70179,10544
1659433603.741088,10566
1659433603.780385,10590
1659433603.819683,10548
1659433603.861202,10468
1659433603.90272,10399
1659433603.944239,10348
1659433603.985758,10327
1659433604.024372,10321
1659433604.062986,10323
1659433604.1016,10340
1659433604.14534,10351
1659433604.18908,10350
1659433604.23282,10356
1659433604.266138,10391
1659433604.299455,10402
1659433604.343879,10424
1659433604.388302,10448
1659433604.432725,10474
1659433604.47134,10491
1659433604.509954,10522
1659433604.548568,10548
1659433604.589831,10566
1659433604.631093,10506
1659433604.672355,10422
1659433604.713618,10361
1659433604.752916,10332
1659433604.792213,10298
1659433604.831511,10294
1659433604.872517,10300
1659433604.913523,10312
1659433604.952821,10322
1659433604.992118,10333
1659433605.031416,10355
1659433605.073447,10377
1659433605.115479,10413
1659433605.154435,10441
1659433605.193391,10469
1659433605.232347,10493
1659433605.271302,10523
1659433605.310258,10556
1659433605.349214,10582
1659433605.390733,10576
1659433605.432252,10507
1659433605.470182,10431
1659433605.508113,10390
1659433605.546044,10361
1659433605.588588,10346
1659433605.631132,10348
1659433605.670088,10367
1659433605.709044,10387
1659433605.747999,10385
1659433605.786614,10406
1659433605.825228,10419
1659433605.863842,10458
1659433605.905873,10486
1659433605.947905,10520
1659433605.987202,10552
1659433606.0265,10579
1659433606.065798,10607
1659433606.107316,10645
1659433606.148835,10660
1659433606.193259,10620
1659433606.237682,10563
1659433606.282105,10512
1659433606.315423,10492
1659433606.34874,10481
1659433606.392822,10492
1659433606.436904,10513
1659433606.480985,10532
1659433606.519599,10549
1659433606.558214,10556
1659433606.596828,10586
1659433606.639372,10612
1659433606.681916,10645
1659433606.719846,10677
1659433606.757777,10706
1659433606.795708,10731
1659433606.837227,10770
1659433606.878746,10801
1659433606.917701,10830
1659433606.956657,10838
1659433606.995613,10789
1659433607.034227,10731
1659433607.072841,10707
1659433607.111456,10685
1659433607.153487,10680
1659433607.195518,10706
1659433607.234474,10715
1659433607.27343,10725
1659433607.312386,10740
1659433607.35288,10757
1659433607.393373,10781
1659433607.431646,10811
1659433607.469918,10837
1659433607.508191,10870
1659433607.550222,10894
1659433607.592253,10924
1659433607.630867,10945
1659433607.669482,10975
1659433607.708096,10962
1659433607.749102,10914
1659433607.790108,10871
1659433607.828722,10842
1659433607.867337,10844
1659433607.905951,10853
1659433607.950716,10853
1659433607.995481,10871
1659433608.040246,10878
1659433608.074076,10887
1659433608.107906,10910
1659433608.15233,10927
1659433608.196753,10953
1659433608.241177,10982
1659433608.283208,11017
1659433608.325239,11051
1659433608.363853,11074
1659433608.402467,11110
1659433608.441082,11110
1659433608.480721,11059
1659433608.52036,11012
1659433608.56,10972
1659433608.601006,10956
1659433608.642012,10949
1659433608.680626,10955
1659433608.71924,10973
1659433608.757855,10967
1659433608.796469,10980
1659433608.835083,10997
1659433608.873697,11020
1659433608.915729,11036
1659433608.95776,11073
1659433608.996374,11091
1659433609.034988,11124
1659433609.073602,11150
1659433609.115121,11171
1659433609.15664,11195
1659433609.195938,11143
1659433609.235235,11080
1659433609.274533,11023
1659433609.316564,10978
1659433609.358596,10955
1659433609.396868,10937
1659433609.43514,10945
1659433609.473413,10948
1659433609.515957,10955
1659433609.558501,10951
1659433609.596773,10958
1659433609.635046,10973
1659433609.673318,10988
1659433609.7174,11002
1659433609.761482,11028
1659433609.805563,11042
1659433609.844177,11068
1659433609.882792,11095
1659433609.921406,11083
1659433609.959678,11020
1659433609.997951,10959
1659433610.036223,10895
1659433610.077742,10864
1659433610.119261,10858
1659433610.1589,10856
1659433610.198539,10867
1659433610.238178,10867
1659433610.276451,10880
1659433610.314723,10885
1659433610.352996,10894
1659433610.394002,10920
1659433610.435008,10944
1659433610.477552,10971
1659433610.520096,11003
1659433610.55871,11016
1659433610.597325,11058
1659433610.635939,11063
1659433610.679679,11022
1659433610.723419,10952
1659433610.767159,10897
1659433610.800476,10871
1659433610.833794,10856
1659433610.878217,10848
1659433610.922641,10865
1659433610.967064,10868
1659433611.005678,10868
1659433611.044292,10882
1659433611.082906,10897
1659433611.124938,10904
1659433611.166969,10938
1659433611.205583,10956
1659433611.244197,10988
1659433611.282812,11002
1659433611.323818,11027
1659433611.364824,11036
1659433611.404805,10977
1659433611.444786,10906
1659433611.484767,10860
1659433611.526286,10836
1659433611.567805,10815
1659433611.606419,10804
1659433611.645033,10822
1659433611.683647,10828
1659433611.722945,10830
1659433611.762243,10841
1659433611.80154,10856
1659433611.844084,10875
1659433611.886628,10911
1659433611.9249,10928
1659433611.963173,10956
1659433612.001445,10974
1659433612.042451,10995
1659433612.083458,11017
1659433612.122414,10953
1659433612.16137,10875
1659433612.200325,10795
1659433612.241844,10758
1659433612.283363,10720
1659433612.321977,10704
1659433612.360591,10713
1659433612.399205,10713
1659433612.441237,10716
1659433612.483268,10727
1659433612.522224,10734
1659433612.56118,10751
1659433612.600136,10773
1659433612.644559,10796
1659433612.688983,10819
1659433612.733406,10852
1659433612.77595,10870
1659433612.818494,10897
1659433612.857108,10886
1659433612.895722,10804
1659433612.934336,10731
1659433612.97295,10660
1659433613.011565,10632
1659433613.050179,10622
1659433613.091698,10616
1659433613.133216,10629
1659433613.171489,10632
1659433613.209761,10646
1659433613.248034,10656
1659433613.289553,10687
1659433613.331071,10708
1659433613.369686,10723
1659433613.4083,10761
1659433613.446914,10788
1659433613.486212,10813
1659433613.525509,10848
1659433613.564807,10870
1659433613.605813,10815
1659433613.646819,10724
1659433613.685775,10651
1659433613.724731,10595
1659433613.763687,10580
1659433613.806231,10563
1659433613.848775,10569
1659433613.888346,10568
1659433613.927917,10568
1659433613.967488,10576
1659433614.007059,10591
1659433614.04663,10610
1659433614.089686,10635
1659433614.132743,10674
1659433614.171015,10699
1659433614.209288,10739
1659433614.24756,10754
1659433614.288566,10781
1659433614.329572,10734
1659433614.36887,10646
1659433614.408168,10571
1659433614.447465,10535
1659433614.489497,10510
1659433614.531528,10515
1659433614.569459,10546
1659433614.607389,10543
1659433614.64532,10554
1659433614.687864,10579
1659433614.730408,10596
1659433614.769022,10625
1659433614.807636,10652
1659433614.846251,10692
1659433614.890674,10717
1659433614.935097,10764
1659433614.979521,10803
1659433615.021552,10832
1659433615.063583,10831
1659433615.101514,10743
1659433615.139445,10656
1659433615.177376,10603
1659433615.215306,10570
1659433615.253921,10570
1659433615.292535,10578
1659433615.331149,10599
1659433615.372668,10609
1659433615.414186,10628
1659433615.452459,10632
1659433615.490731,10662
1659433615.529004,10677
1659433615.573086,10691
1659433615.617167,10718
1659433615.661249,10732
1659433615.704305,10753
1659433615.747362,10759
1659433615.785976,10740
1659433615.82459,10641
1659433615.863204,10540
1659433615.904211,10486
1659433615.945217,10438
1659433615.984856,10423
1659433616.024495,10420
1659433616.064135,10436
1659433616.102407,10436
1659433616.14068,10442
1659433616.178952,10447
1659433616.220471,10481
1659433616.26199,10492
1659433616.300946,10511
1659433616.339901,10547
1659433616.378857,10572
1659433616.419351,10598
1659433616.459845,10632
1659433616.498117,10630
1659433616.53639,10540
1659433616.574662,10423
1659433616.613618,10344
1659433616.652574,10299
1659433616.69153,10278
1659433616.733561,10275
1659433616.775592,10307
1659433616.814207,10309
1659433616.852821,10311
1659433616.891435,10321
1659433616.933466,10341
1659433616.975498,10370
1659433617.014453,10394
1659433617.053409,10437
1659433617.092365,10459
1659433617.134397,10508
1659433617.176428,10540
1659433617.221535,10546
1659433617.266642,10488
1659433617.311749,10379
1659433617.344553,10297
1659433617.377358,10247
1659433617.42144,10226
1659433617.465522,10223
1659433617.509604,10256
1659433617.548559,10264
1659433617.587515,10277
1659433617.626471,10303
1659433617.669015,10321
1659433617.711559,10359
1659433617.749831,10394
1659433617.788104,10437
1659433617.826376,10468
1659433617.867383,10521
1659433617.908389,10558
1659433617.947686,10572
1659433617.986984,10541
1659433618.026282,10432
1659433618.065238,10353
1659433618.104193,10316
1659433618.143149,10293
1659433618.184668,10297
1659433618.226187,10319
1659433618.265484,10342
1659433618.304782,10350
1659433618.344079,10374
1659433618.385598,10389
1659433618.427117,10422
1659433618.466415,10439
1659433618.505713,10458
1659433618.54501,10498
1659433618.586016,10520
1659433618.627023,10545
1659433618.665978,10509
1659433618.704934,10421
1659433618.74389,10317
1659433618.784384,10242
1659433618.824877,10217
1659433618.864175,10211
1659433618.903473,10228
1659433618.94277,10250
1659433618.986852,10267
1659433619.030934,10280
1659433619.075015,10292
1659433619.10782,10320
1659433619.140625,10354
1659433619.185049,10388
1659433619.229472,10424
1659433619.273895,10462
1659433619.308238,10492
1659433619.342581,10485
1659433619.386662,10376
1659433619.430744,10262
1659433619.474826,10196
1659433619.513782,10154
1659433619.552737,10133
1659433619.591693,10130
1659433619.633212,10148
1659433619.674731,10165
1659433619.713003,10166
1659433619.751276,10189
1659433619.789548,10208
1659433619.828504,10242
1659433619.86746,10268
1659433619.906416,10310
1659433619.94896,10348
1659433619.991504,10399
1659433620.029434,10382
1659433620.067365,10290
1659433620.105296,10172
1659433620.146815,10093
1659433620.188334,10070
1659433620.227973,10053
1659433620.267612,10059
1659433620.307251,10074
1659433620.34877,10084
1659433620.390289,10082
1659433620.431808,10098
1659433620.473327,10110
1659433620.515871,10151
1659433620.558414,10182
1659433620.59737,10222
1659433620.636326,10259
1659433620.675282,10308
1659433620.713896,10323
1659433620.752511,10246
1659433620.791125,10137
1659433620.832131,10070
1659433620.873137,10032
1659433620.912093,10036
1659433620.951049,10058
1659433620.990005,10080
1659433621.031524,10114
1659433621.073042,10132
1659433621.111998,10158
1659433621.150954,10199
1659433621.18991,10245
1659433621.234334,10285
1659433621.278757,10337
1659433621.32318,10380
1659433621.355985,10421
1659433621.38879,10469
1659433621.433555,10468
1659433621.47832,10404
1659433621.523085,10326
1659433621.565629,10292
1659433621.608173,10289
1659433621.646446,10325
1659433621.684718,10346
1659433621.722991,10370
1659433621.762288,10402
1659433621.801586,10425
1659433621.840883,10455
1659433621.88189,10481
1659433621.922896,10532
1659433621.961168,10571
1659433621.999441,10615
1659433622.037713,10661
1659433622.079232,10719
1659433622.120751,10727
1659433622.159365,10666
1659433622.197979,10611
1659433622.236593,10569
1659433622.274866,10569
1659433622.313138,10604
1659433622.351411,10628
1659433622.39293,10650
1659433622.434448,10678
1659433622.473404,10696
1659433622.51236,10714
1659433622.551316,10754
1659433622.59386,10783
1659433622.636404,10833
1659433622.675018,10853
1659433622.713632,10904
1659433622.752246,10929
1659433622.793765,10898
1659433622.835284,10814
1659433622.87424,10743
1659433622.913196,10715
1659433622.952152,10717
1659433622.995892,10724
1659433623.039631,10738
1659433623.083371,10744
1659433623.125915,10759
1659433623.168459,10765
1659433623.207073,10767
1659433623.245688,10769
1659433623.284302,10796
1659433623.322574,10820
1659433623.360847,10851
1659433623.399119,10853
1659433623.441151,10787
1659433623.483182,10667
1659433623.522821,10564
1659433623.562461,10506
1659433623.6021,10467
1659433623.643106,10466
1659433623.684112,10469
1659433623.723068,10463
1659433623.762024,10461
1659433623.80098,10445
1659433623.843524,10461
1659433623.886068,10476
1659433623.924682,10488
1659433623.963296,10516
1659433624.00191,10534
1659433624.040866,10543
1659433624.079822,10453
1659433624.118778,10305
1659433624.160297,10194
1659433624.201816,10123
1659433624.239746,10084
1659433624.277677,10073
1659433624.315608,10091
1659433624.357639,10088
1659433624.399671,10095
1659433624.444436,10084
1659433624.489201,10099
1659433624.533966,10112
1659433624.566258,10141
1659433624.598551,10168
1659433624.642974,10196
1659433624.687397,10224
1659433624.731821,10156
1659433624.766163,10019
1659433624.800506,9909
1659433624.844588,9849
1659433624.888669,9819
1659433624.932751,9809
1659433624.971024,9822
1659433625.009296,9844
1659433625.047569,9857
1659433625.090112,9858
1659433625.132656,9883
1659433625.170929,9906
1659433625.209201,9941
1659433625.247474,9976
1659433625.286088,10012
1659433625.324702,10046
1659433625.363316,10028
1659433625.405348,9921
1659433625.447379,9813
1659433625.485651,9757
1659433625.523924,9735
1659433625.562196,9724
1659433625.600469,9754
1659433625.638741,9769
1659433625.677014,9785
1659433625.719045,9805
1659433625.761076,9828
1659433625.799691,9861
1659433625.838305,9899
1659433625.876919,9927
1659433625.921342,9968
1659433625.965766,10010
1659433626.010189,10045
1659433626.053246,10026
1659433626.096302,9936
1659433626.134916,9859
1659433626.173531,9831
1659433626.212145,9829
1659433626.252638,9848
1659433626.293132,9878
1659433626.332088,9889
1659433626.371044,9900
1659433626.41,9922
1659433626.448956,9949
1659433626.487911,9982
1659433626.526867,10025
1659433626.568386,10072
1659433626.609905,10103
1659433626.648519,10153
1659433626.687133,10180
1659433626.725747,10127
1659433626.767779,10045
1659433626.80981,10004
1659433626.848766,9977
1659433626.887722,9991
1659433626.926678,10017
1659433626.965975,10037
1659433627.005273,10058
1659433627.044571,10071
1659433627.086089,10096
1659433627.127608,10131
1659433627.166564,10160
1659433627.20552,10188
1659433627.244476,10240
1659433627.286507,10276
1659433627.328538,10310
1659433627.37057,10321
1659433627.412601,10261
1659433627.450874,10190
1659433627.489146,10160
1659433627.527419,10168
1659433627.571842,10182
1659433627.616265,10214
1659433627.660689,10236
1659433627.694519,10242
1659433627.728349,10268
1659433627.772431,10280
1659433627.816512,10317
1659433627.860594,10341
1659433627.898866,10372
1659433627.937139,10405
1659433627.975411,10451
1659433628.01693,10465
1659433628.058449,10430
1659433628.097063,10355
1659433628.135677,10309
1659433628.174291,10307
1659433628.216323,10311
1659433628.258354,10322
1659433628.296968,10353
1659433628.335582,10366
1659433628.374197,10387
1659433628.413494,10397
1659433628.452792,10423
1659433628.49209,10457
1659433628.532583,10492
1659433628.573077,10513
1659433628.612033,10547
1659433628.650989,10571
1659433628.689945,10531
1659433628.728217,10436
1659433628.766489,10365
1659433628.804762,10336
1659433628.846281,10334
1659433628.887799,10356
1659433628.929318,10374
1659433628.970837,10395
1659433629.010134,10418
1659433629.049432,10447
1659433629.08873,10475
1659433629.132811,10503
1659433629.176893,10542
1659433629.220975,10582
1659433629.255317,10628
1659433629.28966,10658
1659433629.334425,10618
1659433629.37919,10537
1659433629.423955,10455
1659433629.456248,10427
1659433629.48854,10413
1659433629.532964,10419
1659433629.577387,10441
1659433629.62181,10457
1659433629.660766,10463
1659433629.699722,10472
1659433629.738678,10500
1659433629.780197,10508
1659433629.821716,10550
1659433629.860672,10577
1659433629.899627,10602
1659433629.938583,10601
1659433629.980102,10503
1659433630.021621,10394
1659433630.060235,10319
1659433630.098849,10301
1659433630.137463,10299
1659433630.177103,10324
1659433630.216742,10324
1659433630.256381,10319
1659433630.298413,10329
1659433630.340444,10328
1659433630.379058,10351
1659433630.417672,10364
1659433630.456287,10398
1659433630.498318,10432
1659433630.540349,10418
1659433630.579989,10321
1659433630.619628,10172
1659433630.659267,10087
1659433630.699761,10041
1659433630.740255,10038
1659433630.778527,10042
1659433630.816799,10056
1659433630.855072,10059
1659433630.896847,10071
1659433630.938622,10086
1659433630.980397,10101
1659433631.022172,10140
1659433631.060445,10166
1659433631.098717,10212
1659433631.13699,10219
1659433631.177996,10142
1659433631.219002,10009
1659433631.257958,9897
1659433631.296914,9843
1659433631.33587,9823
1659433631.377388,9828
1659433631.418907,9836
1659433631.457863,9859
1659433631.496819,9854
1659433631.535775,9855
1659433631.58054,9873
1659433631.625305,9906
1659433631.67007,9925
1659433631.702875,9959
1659433631.73568,9984
1659433631.780103,9929
1659433631.824527,9818
1659433631.86895,9726
1659433631.910982,9669
1659433631.953013,9659
1659433631.991285,9660
1659433632.029558,9694
1659433632.06783,9716
1659433632.106786,9736
1659433632.145742,9755
1659433632.184698,9790
1659433632.225704,9821
1659433632.266711,9854
1659433632.305666,9899
1659433632.344622,9950
1659433632.383578,9982
1659433632.422534,9894
1659433632.46149,9781
1659433632.500446,9713
1659433632.542477,9673
1659433632.584508,9649
1659433632.623806,9672
1659433632.663104,9719
1659433632.702401,9743
1659433632.74392,9790
1659433632.785439,9822
1659433632.824737,9848
1659433632.864034,9909
1659433632.903332,9961
1659433632.94485,10015
1659433632.986369,10062
1659433633.024983,10120
1659433633.063598,10148
1659433633.102212,10118
1659433633.144243,10008
1659433633.186275,9932
1659433633.230698,9874
1659433633.275121,9853
1659433633.319545,9856
1659433633.35235,9893
1659433633.385154,9948
1659433633.42992,9963
1659433633.474685,10007
1659433633.51945,10049
1659433633.558406,10094
1659433633.597362,10145
1659433633.636317,10190
1659433633.677836,10249
1659433633.719355,10294
1659433633.758311,10337
1659433633.797267,10396
1659433633.836223,10441
1659433633.877229,10483
1659433633.918235,10497
1659433633.956849,10422
1659433633.995464,10327
1659433634.034078,10274
1659433634.07235,10211
1659433634.110623,10192
1659433634.148895,10207
1659433634.191439,10237
1659433634.233983,10260
1659433634.272255,10295
1659433634.310528,10321
1659433634.3488,10357
1659433634.387414,10399
1659433634.426029,10441
1659433634.464643,10484
1659433634.506162,10543
1659433634.54768,10581
1659433634.585953,10617
1659433634.624225,10654
1659433634.662498,10700
1659433634.704529,10728
1659433634.746561,10718
1659433634.791667,10635
1659433634.836774,10550
1659433634.881881,10505
1659433634.914686,10456
1659433634.947491,10440
1659433634.991914,10452
1659433635.036338,10480
1659433635.080761,10494
1659433635.115104,10518
1659433635.149446,10539
1659433635.193528,10579
1659433635.23761,10616
1659433635.281692,10662
1659433635.319622,10714
1659433635.357553,10743
1659433635.395484,10770
1659433635.437515,10809
1659433635.479546,10855
1659433635.517819,10896
1659433635.556091,10937
1659433635.594364,10961
1659433635.635883,10905
1659433635.677401,10825
1659433635.717041,10750
1659433635.75668,10699
1659433635.796319,10679
1659433635.835275,10683
1659433635.874231,10700
1659433635.913187,10712
1659433635.954706,10728
1659433635.996224,10742
1659433636.035864,10771
1659433636.075503,10799
1659433636.115143,10828
1659433636.156405,10871
1659433636.197668,10914
1659433636.23893,10954
1659433636.280192,10986
1659433636.322737,11027
1659433636.36528,11063
1659433636.404236,11096
1659433636.443192,11130
1659433636.482148,11133
1659433636.522642,11099
1659433636.563135,11016
1659433636.601408,10964
1659433636.63968,10930
1659433636.677953,10915
1659433636.71725,10929
1659433636.756548,10948
1659433636.795846,10957
1659433636.837364,10965
1659433636.878883,10992
1659433636.917839,11007
1659433636.956795,11038
1659433636.995751,11076
1659433637.037269,11104
1659433637.078788,11144
1659433637.117744,11184
1659433637.1567,11215
1659433637.195656,11248
1659433637.237175,11297
1659433637.278693,11315
1659433637.317308,11364
1659433637.355922,11356
1659433637.394536,11302
1659433637.435542,11243
1659433637.476548,11206
1659433637.515163,11189
1659433637.553777,11188
1659433637.592391,11193
1659433637.636473,11215
1659433637.680554,11223
1659433637.724636,11232
1659433637.766667,11240
1659433637.808699,11269
1659433637.846971,11294
1659433637.885244,11334
1659433637.923516,11360
1659433637.96213,11394
1659433638.000744,11428
1659433638.039359,11458
1659433638.080877,11486
1659433638.122396,11516
1659433638.161694,11549
1659433638.200991,11552
1659433638.240289,11504
1659433638.281295,11455
1659433638.322301,11410
1659433638.361941,11402
1659433638.40158,11400
1659433638.441219,11399
1659433638.479492,11415
1659433638.517764,11427
1659433638.556037,11446
1659433638.598068,11456
1659433638.640099,11477
1659433638.679397,11494
1659433638.718695,11526
1659433638.757992,11548
1659433638.798998,11568
1659433638.840005,11601
1659433638.878277,11622
1659433638.916549,11646
1659433638.954822,11677
1659433638.997879,11683
1659433639.040935,11646
1659433639.079891,11587
1659433639.118847,11553
1659433639.157803,11525
1659433639.198809,11523
1659433639.239815,11528
1659433639.284922,11537
1659433639.330029,11549
1659433639.375136,11547
1659433639.414092,11552
1659433639.453047,11572
1659433639.492003,11592
1659433639.533522,11615
1659433639.575041,11649
1659433639.613997,11658
1659433639.652953,11683
1659433639.691909,11715
1659433639.732402,11732
1659433639.772896,11752
1659433639.810827,11725
1659433639.848757,11664
1659433639.886688,11611
1659433639.925644,11590
1659433639.9646,11574
1659433640.003556,11571
1659433640.0461,11595
1659433640.088644,11612
1659433640.126916,11620
1659433640.165188,11647
1659433640.203461,11672
1659433640.242759,11687
1659433640.282056,11719
1659433640.321354,11756
1659433640.362872,11778
1659433640.404391,11815
1659433640.443005,11853
1659433640.48162,11881
1659433640.520234,11894
1659433640.562265,11870
1659433640.604296,11807
1659433640.645303,11741
1659433640.686309,11709
1659433640.724581,11690
1659433640.762854,11694
1659433640.801126,11706
1659433640.84555,11716
1659433640.889973,11714
1659433640.934397,11715
1659433640.968226,11726
1659433641.002057,11739
1659433641.045797,11753
1659433641.089537,11770
1659433641.133276,11796
1659433641.171891,11801
1659433641.210505,11799
1659433641.249119,11716
1659433641.29115,11633
1659433641.333182,11586
1659433641.370344,11550
1659433641.407506,11536
1659433641.444667,11527
1659433641.481829,11534
1659433641.524373,11526
1659433641.566917,11525
1659433641.605873,11534
1659433641.644829,11558
1659433641.683785,11570
1659433641.725816,11583
1659433641.767848,11611
1659433641.806462,11623
1659433641.845076,11600
1659433641.88369,11519
1659433641.926234,11436
1659433641.968778,11374
1659433642.007392,11325
1659433642.046006,11305
1659433642.08462,11303
1659433642.125627,11311
1659433642.166633,11284
1659433642.211398,11280
1659433642.256163,11287
1659433642.300928,11286
1659433642.339542,11297
1659433642.378156,11312
1659433642.416771,11329
1659433642.458289,11342
1659433642.499808,11339
1659433642.539106,11244
1659433642.578403,11137
1659433642.617701,11062
1659433642.65922,11016
1659433642.700739,10984
1659433642.739694,10963
1659433642.77865,10959
1659433642.817606,10947
1659433642.85622,10939
1659433642.894835,10941
1659433642.933449,10933
1659433642.975993,10953
1659433643.018537,10961
1659433643.056809,10977
1659433643.095082,10997
1659433643.133354,10982
1659433643.17231,10890
1659433643.211266,10799
1659433643.250222,10731
1659433643.291228,10699
1659433643.332234,10679
1659433643.370507,10680
1659433643.408779,10692
1659433643.447052,10676
1659433643.489083,10679
1659433643.531114,10694
1659433643.573658,10698
1659433643.616202,10711
1659433643.654816,10724
1659433643.69343,10759
1659433643.732044,10778
1659433643.776126,10787
1659433643.820208,10715
1659433643.86429,10622
1659433643.898632,10572
1659433643.932975,10554
1659433643.977057,10547
1659433644.021138,10562
1659433644.06522,10570
1659433644.103492,10577
1659433644.141765,10592
1659433644.180037,10601
1659433644.222069,10626
1659433644.2641,10660
1659433644.302372,10673
1659433644.340645,10712
1659433644.378917,10737
1659433644.420949,10764
1659433644.46298,10717
1659433644.502278,10649
1659433644.541575,10599
1659433644.580873,10579
1659433644.619487,10574
1659433644.658101,10574
1659433644.696715,10599
1659433644.738234,10599
1659433644.779753,10606
1659433644.819734,10621
1659433644.859715,10674
1659433644.899696,10698
1659433644.941215,10730
1659433644.982734,10782
1659433645.02169,10818
1659433645.060646,10864
1659433645.099602,10868
1659433645.14112,10829
1659433645.182639,10785
1659433645.221936,10751
1659433645.261234,10751
1659433645.300532,10767
1659433645.341025,10785
1659433645.381519,10809
1659433645.420475,10834
1659433645.459431,10852
1659433645.498387,10868
1659433645.542468,10906
1659433645.58655,10943
1659433645.630632,10976
1659433645.663949,11018
1659433645.697267,11061
1659433645.742032,11095
1659433645.786797,11094
1659433645.831562,11043
1659433645.873594,10994
1659433645.915625,10965
1659433645.953897,10966
1659433645.99217,10977
1659433646.030442,11004
1659433646.06974,11020
1659433646.109037,11029
1659433646.148335,11058
1659433646.190366,11080
1659433646.232398,11124
1659433646.27067,11141
1659433646.308943,11172
1659433646.347215,11225
1659433646.388221,11246
1659433646.429228,11238
1659433646.467842,11183
1659433646.506456,11113
1659433646.54507,11068
1659433646.583343,11056
1659433646.621615,11070
1659433646.659887,11081
1659433646.701919,11107
1659433646.74395,11106
1659433646.782906,11114
1659433646.821862,11138
1659433646.860818,11163
1659433646.905241,11181
1659433646.949665,11216
1659433646.994088,11243
1659433647.026893,11266
1659433647.059698,11250
1659433647.104463,11151
1659433647.149228,11075
1659433647.193993,11027
1659433647.232266,10987
1659433647.270538,10974
1659433647.30881,10984
1659433647.351355,11003
1659433647.393898,11008
1659433647.432513,11027
1659433647.471127,11046
1659433647.509741,11062
1659433647.55126,11090
1659433647.592778,11125
1659433647.631051,11169
1659433647.669323,11172
1659433647.707596,11125
1659433647.747577,11019
1659433647.787558,10931
1659433647.827539,10865
1659433647.868545,10826
1659433647.909551,10812
1659433647.948166,10815
1659433647.98678,10832
1659433648.025394,10828
1659433648.067425,10828
1659433648.109457,10857
1659433648.149096,10873
1659433648.188735,10912
1659433648.228375,10935
1659433648.269381,10968
1659433648.310387,10987
1659433648.349685,10972
1659433648.388982,10868
1659433648.42828,10765
1659433648.469799,10707
1659433648.511317,10651
1659433648.549932,10615
1659433648.588546,10619
1659433648.62716,10648
1659433648.668166,10646
1659433648.709172,10673
1659433648.753937,10691
1659433648.798702,10719
1659433648.843468,10757
1659433648.88174,10785
1659433648.920012,10817
1659433648.958285,10842
1659433648.999804,10864
1659433649.041323,10857
1659433649.080962,10769
1659433649.120601,10656
1659433649.160241,10580
1659433649.198513,10529
1659433649.236785,10489
1659433649.275058,10492
1659433649.316577,10500
1659433649.358095,10522
1659433649.397393,10536
1659433649.436691,10556
1659433649.475988,10594
1659433649.517507,10627
1659433649.559026,10674
1659433649.59764,10718
1659433649.636254,10773
1659433649.674868,10806
1659433649.713141,10837
1659433649.751413,10889
1659433649.789686,10927
1659433649.830179,10959
1659433649.870673,10916
1659433649.908946,10823
1659433649.947218,10743
1659433649.98549,10705
1659433650.029162,10652
1659433650.072834,10648
1659433650.116505,10664
1659433650.160177,10693
1659433650.203848,10713
1659433650.242804,10731
1659433650.28176,10769
1659433650.320716,10794
1659433650.362747,10834
1659433650.404779,10870
1659433650.443393,10917
1659433650.482007,10952
1659433650.520621,10973
1659433650.559236,10997
1659433650.59785,11027
1659433650.636464,11070
1659433650.679008,11110
1659433650.721552,11129
1659433650.759824,11064
1659433650.798097,10976
1659433650.836369,10912
1659433650.877888,10859
1659433650.919407,10837
1659433650.958363,10820
1659433650.997319,10842
1659433651.036274,10868
1659433651.075914,10879
1659433651.115553,10912
1659433651.155192,10934
1659433651.195686,10963
1659433651.23618,10996
1659433651.275136,11049
1659433651.314091,11085
1659433651.353047,11115
1659433651.394566,11158
1659433651.436085,11190
1659433651.475382,11237
1659433651.51468,11263
1659433651.553978,11259
1659433651.595496,11186
1659433651.637015,11114
1659433651.68178,11044
1659433651.726545,10996
1659433651.771311,10984
1659433651.803603,10991
1659433651.835895,11018
1659433651.87767,11042
1659433651.919446,11064
1659433651.961221,11072
1659433652.002995,11106
1659433652.041268,11148
1659433652.07954,11181
1659433652.117813,11229
1659433652.156427,11271
1659433652.195041,11316
1659433652.233655,11347
1659433652.275174,11382
1659433652.316693,11419
1659433652.358724,11454
1659433652.400756,11466
1659433652.43937,11412
1659433652.477984,11329
1659433652.516598,11257
1659433652.561363,11222
1659433652.606128,11188
1659433652.650893,11186
1659433652.684724,11206
1659433652.718554,11218
1659433652.762635,11226
1659433652.806717,11240
1659433652.850799,11261
1659433652.883091,11285
1659433652.915384,11324
1659433652.959465,11351
1659433653.003547,11388
1659433653.047629,11423
1659433653.086243,11445
1659433653.124857,11478
1659433653.163471,11503
1659433653.205503,11532
1659433653.247534,11523
1659433653.28649,11432
1659433653.325446,11338
1659433653.364402,11268
1659433653.403016,11232
1659433653.44163,11211
1659433653.480244,11216
1659433653.521763,11226
1659433653.563282,11235
1659433653.603263,11248
1659433653.643244,11254
1659433653.683225,11274
1659433653.724231,11308
1659433653.765237,11350
1659433653.804193,11362
1659433653.843149,11399
1659433653.882105,11421
1659433653.924136,11435
1659433653.966167,11450
1659433654.005123,11410
1659433654.044079,11295
1659433654.083035,11178
1659433654.123529,11115
1659433654.164022,11060
1659433654.20332,11037
1659433654.242618,11035
1659433654.281915,11031
1659433654.325997,11033
1659433654.370079,11043
1659433654.41416,11051
1659433654.44799,11060
1659433654.481821,11086
1659433654.526244,11107
1659433654.570667,11130
1659433654.615091,11153
1659433654.656609,11177
1659433654.698128,11165
1659433654.736401,11052
1659433654.774673,10932
1659433654.812946,10857
1659433654.852585,10804
1659433654.892224,10784
1659433654.931864,10797
1659433654.973895,10817
1659433655.015926,10822
1659433655.05454,10840
1659433655.093155,10857
1659433655.131769,10894
1659433655.173288,10922
1659433655.214806,10964
1659433655.253421,11006
1659433655.292035,11037
1659433655.330649,11077
1659433655.368921,11076
1659433655.407194,11007
1659433655.445466,10900
1659433655.48801,10842
1659433655.530554,10790
1659433655.568826,10783
1659433655.607099,10796
1659433655.645371,10827
1659433655.68689,10846
1659433655.728409,10880
1659433655.767023,10899
1659433655.805637,10927
1659433655.844252,10970
1659433655.886796,11000
1659433655.929339,11056
1659433655.973421,11093
1659433656.017503,11131
1659433656.061584,11176
1659433656.094902,11171
1659433656.12822,11097
1659433656.172643,10993
1659433656.217066,10941
1659433656.26149,10909
1659433656.299762,10913
1659433656.338035,10938
1659433656.376307,10967
1659433656.418851,11009
1659433656.461395,11024
1659433656.500351,11069
1659433656.539307,11113
1659433656.578263,11176
1659433656.616535,11218
1659433656.654808,11277
1659433656.69308,11329
1659433656.735111,11370
1659433656.777143,11417
1659433656.816098,11449
1659433656.855054,11456
1659433656.89401,11373
1659433656.936554,11292
1659433656.979098,11260
1659433657.017712,11260
1659433657.056327,11278
1659433657.094941,11315
1659433657.133897,11364
1659433657.172853,11368
1659433657.211808,11384
1659433657.256232,11415
1659433657.300655,11437
1659433657.345078,11467
1659433657.378909,11505
1659433657.412739,11536
1659433657.457162,11561
1659433657.501585,11593
1659433657.546009,11592
1659433657.587015,11512
1659433657.628021,11422
1659433657.666636,11344
1659433657.70525,11298
1659433657.743864,11292
1659433657.78282,11292
1659433657.821776,11316
1659433657.860732,11331
1659433657.902763,11339
1659433657.944794,11358
1659433657.98375,11384
1659433658.022706,11408
1659433658.061662,11445
1659433658.103181,11460
1659433658.1447,11496
1659433658.183997,11530
1659433658.223295,11539
1659433658.262592,11478
1659433658.300865,11330
1659433658.339137,11227
1659433658.37741,11152
1659433658.419954,11122
1659433658.462497,11105
1659433658.501112,11101
1659433658.539726,11103
1659433658.57834,11106
1659433658.618834,11115
1659433658.659327,11120
1659433658.697942,11142
1659433658.736556,11158
1659433658.77517,11191
1659433658.817201,11190
1659433658.859233,11217
1659433658.902972,11231
1659433658.946712,11187
1659433658.990453,11052
1659433659.029408,10947
1659433659.068364,10881
1659433659.10732,10833
1659433659.149351,10824
1659433659.191383,10831
1659433659.229997,10847
1659433659.268611,10852
1659433659.307225,10847
1659433659.349257,10874
1659433659.391288,10885
1659433659.430927,10909
1659433659.470567,10941
1659433659.510206,10971
1659433659.548137,10998
1659433659.586067,11027
1659433659.623998,11019
1659433659.665517,10921
1659433659.707036,10804
1659433659.745992,10691
1659433659.784948,10649
1659433659.823904,10630
1659433659.865935,10624
1659433659.907966,10625
1659433659.94658,10620
1659433659.985194,10619
1659433660.023809,10622
1659433660.063106,10635
1659433660.102404,10652
1659433660.141701,10675
1659433660.182708,10717
1659433660.223714,10744
1659433660.263011,10767
1659433660.302309,10751
1659433660.341607,10651
1659433660.383638,10542
1659433660.425669,10467
1659433660.470093,10425
1659433660.514516,10407
1659433660.55894,10419
1659433660.591232,10415
1659433660.623524,10408
1659433660.668289,10413
1659433660.713055,10420
1659433660.75782,10449
1659433660.791137,10483
1659433660.824455,10511
1659433660.868536,10531
1659433660.912618,10575
1659433660.9567,10605
1659433660.995656,10615
1659433661.034612,10566
1659433661.073567,10449
1659433661.114574,10382
1659433661.15558,10334
1659433661.194536,10298
1659433661.233492,10293
1659433661.272448,10322
1659433661.314479,10322
1659433661.35651,10332
1659433661.395466,10349
1659433661.434422,10364
1659433661.473378,10395
1659433661.511992,10426
1659433661.550606,10466
1659433661.589221,10497
1659433661.631252,10535
1659433661.673283,10564
1659433661.712239,10589
1659433661.751195,10619
1659433661.790151,10555
1659433661.828765,10465
1659433661.867379,10406
1659433661.905993,10375
1659433661.947,10361
1659433661.988006,10363
1659433662.030037,10379
1659433662.072068,10397
1659433662.111024,10405
1659433662.14998,10422
1659433662.188936,10446
1659433662.22943,10486
1659433662.269923,10514
1659433662.309563,10563
1659433662.349202,10588
1659433662.388841,10625
1659433662.428617,10665
1659433662.468394,10690
1659433662.508169,10730
1659433662.547945,10751
1659433662.587722,10716
1659433662.629753,10632
1659433662.671784,10564
1659433662.716891,10529
1659433662.761998,10520
1659433662.807105,10520
1659433662.840422,10538
1659433662.87374,10551
1659433662.917821,10564
1659433662.961903,10564
1659433663.005985,10587
1659433663.039302,10613
1659433663.07262,10642
1659433663.11636,10677
1659433663.1601,10713
1659433663.20384,10740
1659433663.242454,10771
1659433663.281068,10790
1659433663.319682,10813
1659433663.362739,10848
1659433663.405795,10883
1659433663.444409,10869
1659433663.483024,10807
1659433663.521638,10738
1659433663.563157,10708
1659433663.604675,10704
1659433663.644315,10706
1659433663.683954,10728
1659433663.723593,10744
1659433663.761866,10758
1659433663.800138,10776
1659433663.838411,10799
1659433663.880442,10833
1659433663.922473,10861
1659433663.961771,10894
1659433664.001069,10930
1659433664.040366,10971
1659433664.08086,11010
1659433664.121353,11047
1659433664.159968,11082
1659433664.198582,11124
1659433664.237196,11158
1659433664.27974,11169
1659433664.322284,11112
1659433664.360214,11046
1659433664.398145,11027
1659433664.436076,11010
1659433664.479816,11016
1659433664.523556,11032
1659433664.567296,11039
1659433664.601126,11033
1659433664.634956,11023
1659433664.679038,11035
1659433664.723119,11038
1659433664.767201,11052
1659433664.800519,11079
1659433664.833836,11088
1659433664.878943,11111
1659433664.92405,11140
1659433664.969157,11150
1659433665.007771,11161
1659433665.046385,11114
1659433665.084999,11010
1659433665.125493,10932
1659433665.165987,10880
1659433665.204942,10853
1659433665.243898,10835
1659433665.282854,10817
1659433665.324886,10805
1659433665.366917,10809
1659433665.405189,10796
1659433665.443462,10794
1659433665.481734,10795
1659433665.52069,10823
1659433665.559646,10825
1659433665.598602,10835
1659433665.640121,10856
1659433665.681639,10884
1659433665.720595,10848
1659433665.759551,10752
1659433665.798507,10636
1659433665.840539,10545
1659433665.88257,10474
1659433665.921526,10442
1659433665.960482,10402
1659433665.999438,10386
1659433666.040956,10391
1659433666.082475,10371
1659433666.121773,10379
1659433666.16107,10391
1659433666.200368,10413
1659433666.241887,10423
1659433666.283406,10452
1659433666.327145,10482
1659433666.370885,10504
1659433666.414625,10530
1659433666.453581,10524
1659433666.492537,10434
1659433666.531493,10315
1659433666.573012,10219
1659433666.614531,10178
1659433666.653486,10161
1659433666.692442,10156
1659433666.731398,10165
1659433666.772917,10192
1659433666.814436,10203
1659433666.853733,10213
1659433666.893031,10251
1659433666.932329,10281
1659433666.970943,10329
1659433667.009557,10365
1659433667.048171,10410
1659433667.090203,10444
1659433667.132234,10489
1659433667.17119,10524
1659433667.210146,10574
1659433667.249102,10561
1659433667.290108,10480
1659433667.331114,10405
1659433667.369386,10343
1659433667.407659,10312
1659433667.445931,10291
1659433667.484887,10316
1659433667.523843,10338
1659433667.562799,10359
1659433667.60483,10385
1659433667.646862,10414
1659433667.686023,10460
1659433667.725183,10499
1659433667.764344,10539
1659433667.803505,10578
1659433667.842666,10621
1659433667.88521,10660
1659433667.927754,10705
1659433667.966368,10744
1659433668.004982,10788
1659433668.043597,10845
1659433668.08802,10869
1659433668.132443,10852
1659433668.176867,10776
1659433668.210697,10703
1659433668.244527,10670
1659433668.288609,10671
1659433668.33269,10673
1659433668.376772,10698
1659433668.41009,10718
1659433668.443407,10735
1659433668.488172,10759
1659433668.532937,10775
1659433668.577703,10808
1659433668.615975,10861
1659433668.654247,10899
1659433668.69252,10930
1659433668.731476,10973
1659433668.770432,11012
1659433668.809387,11039
1659433668.850394,11076
1659433668.8914,11118
1659433668.929672,11145
1659433668.967945,11161
1659433669.006217,11099
1659433669.048249,11012
1659433669.09028,10959
1659433669.129919,10934
1659433669.169559,10917
1659433669.209198,10940
1659433669.250717,10961
1659433669.292236,10971
1659433669.331192,10979
1659433669.370147,10988
1659433669.409103,11014
1659433669.453868,11043
1659433669.498633,11070
1659433669.543399,11111
1659433669.576204,11140
1659433669.609009,11173
1659433669.65309,11195
1659433669.697172,11229
1659433669.741253,11252
1659433669.774571,11278
1659433669.807889,11316
1659433669.85197,11306
1659433669.896052,11250
1659433669.940134,11163
1659433669.979431,11106
1659433670.018729,11072
1659433670.058026,11051
1659433670.100058,11053
1659433670.142089,11068
1659433670.180703,11063
1659433670.219317,11061
1659433670.257932,11073
1659433670.298938,11082
1659433670.339944,11107
1659433670.379583,11143
1659433670.419223,11153
1659433670.458862,11179
1659433670.497134,11201
1659433670.535407,11237
1659433670.573679,11252
1659433670.614686,11283
1659433670.655692,11310
1659433670.694306,11333
1659433670.73292,11325
1659433670.771534,11236
1659433670.813566,11150
1659433670.855597,11112
1659433670.893869,11071
1659433670.932142,11052
1659433670.970414,11057
1659433671.01142,11062
1659433671.052427,11057
1659433671.091041,11067
1659433671.129655,11067
1659433671.168269,11070
1659433671.212693,11100
1659433671.257116,11117
1659433671.301539,11138
1659433671.33537,11140
1659433671.3692,11174
1659433671.413965,11185
1659433671.45873,11206
1659433671.503495,11230
1659433671.544501,11231
1659433671.585507,11161
1659433671.624805,11043
1659433671.664103,10968
1659433671.7034,10927
1659433671.742014,10895
1659433671.780629,10900
1659433671.819243,10912
1659433671.861274,10928
1659433671.903306,10932
1659433671.94192,10945
1659433671.980534,10951
1659433672.019148,10970
1659433672.060667,10976
1659433672.102185,10988
1659433672.140458,11014
1659433672.17873,11019
1659433672.217003,11048
1659433672.255959,11065
1659433672.294915,11091
1659433672.333871,11090
1659433672.376415,11042
1659433672.418958,10891
1659433672.458256,10785
1659433672.497554,10728
1659433672.536851,10685
1659433672.57837,10658
1659433672.619889,10666
1659433672.659187,10680
1659433672.698484,10685
1659433672.737782,10699
1659433672.780326,10704
1659433672.82287,10735
1659433672.86661,10774
1659433672.910349,10805
1659433672.954089,10842
1659433672.993865,10880
1659433673.033641,10913
1659433673.073417,10931
1659433673.113194,10959
1659433673.15297,10985
1659433673.191242,10971
1659433673.229514,10888
1659433673.267787,10768
1659433673.309818,10682
1659433673.35185,10624
1659433673.391147,10584
1659433673.430445,10567
1659433673.469742,10578
1659433673.510749,10599
1659433673.551755,10596
1659433673.590369,10605
1659433673.628983,10622
1659433673.667597,10656
1659433673.710141,10661
1659433673.752685,10690
1659433673.791299,10722
1659433673.829914,10754
1659433673.868528,10777
1659433673.907484,10802
1659433673.94644,10836
1659433673.985395,10867
1659433674.026914,10875
1659433674.068433,10776
1659433674.107047,10660
1659433674.145661,10603
1659433674.184275,10529
1659433674.223231,10493
1659433674.262187,10477
1659433674.301143,10496
1659433674.342149,10516
1659433674.383156,10538
1659433674.424162,10557
1659433674.465168,10584
1659433674.504466,10619
1659433674.543763,10658
1659433674.583061,10689
1659433674.627826,10722
1659433674.672591,10759
1659433674.717356,10780
1659433674.749649,10809
1659433674.781941,10844
1659433674.826364,10873
1659433674.870788,10900
1659433674.915211,10840
1659433674.949554,10741
1659433674.983896,10666
1659433675.028661,10609
1659433675.073427,10577
1659433675.118192,10562
1659433675.156806,10585
1659433675.19542,10596
1659433675.234034,10619
1659433675.275553,10637
1659433675.317072,10671
1659433675.355686,10687
1659433675.3943,10725
1659433675.432914,10757
1659433675.474946,10787
1659433675.516977,10817
1659433675.555933,10849
1659433675.594889,10882
1659433675.633845,10914
1659433675.672801,10969
1659433675.711756,10995
1659433675.750712,11012
1659433675.792231,10964
1659433675.83375,10859
1659433675.873048,10764
1659433675.912345,10713
1659433675.951643,10685
1659433675.993674,10678
1659433676.035706,10698
1659433676.07432,10712
1659433676.112934,10706
1659433676.151548,10716
1659433676.192554,10723
1659433676.233561,10738
1659433676.271833,10763
1659433676.310105,10786
1659433676.348378,10815
1659433676.390409,10846
1659433676.432441,10870
1659433676.471055,10888
1659433676.509669,10926
1659433676.548283,10956
1659433676.592365,10974
1659433676.636446,10901
1659433676.680528,10760
1659433676.719142,10658
1659433676.757756,10596
1659433676.796371,10560
1659433676.837889,10536
1659433676.879408,10552
1659433676.918364,10552
1659433676.95732,10544
1659433676.996276,10545
1659433677.038307,10548
1659433677.080338,10569
1659433677.119294,10606
1659433677.15825,10636
1659433677.197206,10670
1659433677.236162,10696
1659433677.275118,10707
1659433677.314074,10724
1659433677.35508,10757
1659433677.396086,10776
1659433677.435042,10806
1659433677.473998,10819
1659433677.512954,10740
1659433677.554473,10614
1659433677.595992,10504
1659433677.634606,10439
1659433677.67322,10401
1659433677.711834,10372
1659433677.752328,10372
1659433677.792821,10386
1659433677.832461,10391
1659433677.8721,10410
1659433677.911739,10438
1659433677.953258,10447
1659433677.994777,10483
1659433678.038858,10506
1659433678.08294,10536
1659433678.127022,10564
1659433678.166319,10587
1659433678.205617,10624
1659433678.244915,10642
1659433678.282589,10673
1659433678.320264,10705
1659433678.357938,10721
1659433678.395612,10648
1659433678.440036,10524
1659433678.484459,10445
1659433678.528883,10379
1659433678.5622,10330
1659433678.595518,10321
1659433678.639599,10318
1659433678.683681,10334
1659433678.727763,10341
1659433678.76706,10352
1659433678.806358,10362
1659433678.845655,10399
1659433678.887687,10421
1659433678.929718,10447
1659433678.967991,10479
1659433679.006263,10511
1659433679.044536,10544
1659433679.083492,10568
1659433679.122447,10602
1659433679.161403,10629
1659433679.203947,10678
1659433679.246491,10677
1659433679.284764,10656
1659433679.323036,10569
1659433679.361309,10473
1659433679.40334,10413
1659433679.445371,10383
1659433679.483644,10371
1659433679.521916,10374
1659433679.560189,10393
1659433679.60222,10413
1659433679.644251,10405
1659433679.682524,10429
1659433679.720796,10443
1659433679.759069,10464
1659433679.800587,10489
1659433679.842106,10522
1659433679.880379,10549
1659433679.918651,10580
1659433679.956924,10613
1659433680.001347,10636
1659433680.04577,10665
1659433680.090194,10692
1659433680.124024,10723
1659433680.157854,10738
1659433680.202277,10682
1659433680.246701,10586
1659433680.291124,10495
1659433680.329738,10460
1659433680.368352,10430
1659433680.406967,10420
1659433680.448485,10429
1659433680.490004,10446
1659433680.528277,10441
1659433680.566549,10440
1659433680.604822,10455
1659433680.646853,10470
1659433680.688884,10493
1659433680.727499,10536
1659433680.766113,10560
1659433680.804727,10594
1659433680.843341,10626
1659433680.881955,10660
1659433680.920569,10686
1659433680.961576,10733
1659433681.002582,10759
1659433681.041538,10770
1659433681.080493,10699
1659433681.119449,10591
1659433681.161481,10508
1659433681.203512,10466
1659433681.24281,10432
1659433681.282107,10419
1659433681.321405,10418
1659433681.362924,10431
1659433681.404443,10432
1659433681.444082,10444
1659433681.483721,10458
1659433681.52336,10483
1659433681.564879,10515
1659433681.606398,10554
1659433681.645354,10581
1659433681.68431,10630
1659433681.723266,10662
1659433681.767689,10688
1659433681.812113,10730
1659433681.856536,10775
1659433681.897542,10816
1659433681.938548,10863
1659433681.976821,10845
1659433682.015093,10722
1659433682.053366,10609
1659433682.095397,10527
1659433682.137429,10480
1659433682.175701,10438
1659433682.213973,10429
1659433682.252246,10442
1659433682.291202,10446
1659433682.330158,10448
1659433682.369113,10449
1659433682.410632,10464
1659433682.452151,10488
1659433682.49179,10523
1659433682.53143,10546
1659433682.571069,10573
1659433682.609341,10615
1659433682.647614,10644
1659433682.685886,10668
1659433682.72843,10704
1659433682.770974,10719
1659433682.809247,10757
1659433682.847519,10798
1659433682.885792,10779
1659433682.92731,10677
1659433682.968829,10561
1659433683.007785,10481
1659433683.046741,10428
1659433683.085697,10413
1659433683.126703,10409
1659433683.167709,10437
1659433683.211449,10460
1659433683.255189,10473
1659433683.298929,10484
1659433683.337885,10494
1659433683.376841,10534
1659433683.415797,10571
1659433683.458341,10624
1659433683.500885,10662
1659433683.537534,10700
1659433683.574183,10743
1659433683.610832,10794
1659433683.647482,10829
1659433683.687463,10852
1659433683.727444,10895
1659433683.767425,10945
1659433683.811507,10971
1659433683.855588,10918
1659433683.89967,10783
1659433683.932475,10679
1659433683.96528,10613
1659433684.010045,10585
1659433684.05481,10553
1659433684.099575,10562
1659433684.140581,10583
1659433684.181588,10591
1659433684.220543,10600
1659433684.259499,10614
1659433684.298455,10646
1659433684.337753,10667
1659433684.37705,10721
1659433684.416348,10753
1659433684.457354,10785
1659433684.49836,10820
1659433684.537316,10852
1659433684.576272,10883
1659433684.615228,10913
1659433684.657772,10947
1659433684.700316,10989
1659433684.73893,11013
1659433684.777544,10957
1659433684.816159,10819
1659433684.854773,10722
1659433684.893387,10652
1659433684.932001,10600
1659433684.974032,10581
1659433685.016064,10599
1659433685.054678,10616
1659433685.093292,10630
1659433685.131906,10641
1659433685.173938,10661
1659433685.215969,10694
1659433685.254583,10730
1659433685.293197,10775
1659433685.331812,10803
1659433685.37333,10842
1659433685.414849,10890
1659433685.458589,10918
1659433685.502329,10954
1659433685.546069,10987
1659433685.579899,11026
1659433685.613729,11058
1659433685.658494,11097
1659433685.703259,11127
1659433685.748024,11131
1659433685.786639,11033
1659433685.825253,10877
1659433685.863867,10775
1659433685.905386,10713
1659433685.946905,10667
1659433685.985861,10637
1659433686.024816,10657
1659433686.063772,10663
1659433686.102045,10668
1659433686.140317,10685
1659433686.17859,10688
1659433686.220621,10713
1659433686.262652,10741
1659433686.300925,10769
1659433686.339197,10800
1659433686.37747,10836
1659433686.416084,10867
1659433686.454698,10896
1659433686.493312,10936
1659433686.533806,10969
1659433686.5743,11022
1659433686.61428,11039
1659433686.654262,11079
1659433686.694243,11114
1659433686.735761,11131
1659433686.77728,11030
1659433686.815894,10879
1659433686.854509,10765
1659433686.893123,10698
1659433686.935154,10643
1659433686.977185,10618
1659433687.02195,10629
1659433687.066716,10652
1659433687.111481,10656
1659433687.145311,10658
1659433687.179141,10664
1659433687.223564,10694
1659433687.267988,10730
1659433687.312411,10773
1659433687.345729,10802
1659433687.379046,10836
1659433687.422786,10873
1659433687.466526,10906
1659433687.510266,10935
1659433687.549905,10966
1659433687.589545,11000
1659433687.629184,11026
1659433687.670703,11068
1659433687.712222,11103
1659433687.750494,11086
1659433687.788767,10964
1659433687.827039,10819
1659433687.868558,10720
1659433687.910077,10671
1659433687.949716,10628
1659433687.989355,10617
1659433688.028995,10636
1659433688.067267,10647
1659433688.105539,10654
1659433688.143812,10672
1659433688.185331,10688
1659433688.22685,10727
1659433688.266489,10761
1659433688.306128,10788
1659433688.345767,10832
1659433688.387286,10861
1659433688.428805,10901
1659433688.467419,10922
1659433688.506033,10965
1659433688.544647,10993
1659433688.586166,11032
1659433688.627685,11051
1659433688.665616,11095
1659433688.703547,11104
1659433688.741477,11009
1659433688.781458,10848
1659433688.821439,10730
1659433688.86142,10666
1659433688.901402,10610
1659433688.941382,10597
1659433688.985806,10585
1659433689.030229,10599
1659433689.074653,10618
1659433689.115659,10615
1659433689.156665,10628
1659433689.196304,10644
1659433689.235944,10682
1659433689.275583,10708
1659433689.313855,10749
1659433689.352128,10781
1659433689.3904,10820
1659433689.431919,10859
1659433689.473438,10894
1659433689.512736,10941
1659433689.552033,10962
1659433689.591331,10997
1659433689.629261,11037
1659433689.667192,11081
1659433689.705123,11072
1659433689.746642,10947
1659433689.788161,10804
1659433689.827116,10692
1659433689.866072,10634
1659433689.905028,10591
1659433689.94706,10565
1659433689.989091,10584
1659433690.027705,10601
1659433690.066319,10614
1659433690.104934,10616
1659433690.146965,10638
1659433690.188996,10662
1659433690.227952,10702
1659433690.266908,10728
1659433690.305864,10758
1659433690.350629,10802
1659433690.395394,10826
1659433690.440159,10855
1659433690.473989,10879
1659433690.507819,10909
1659433690.552585,10932
1659433690.59735,10976
1659433690.642115,11003
1659433690.682608,10971
1659433690.723102,10837
1659433690.762058,10690
1659433690.801014,10601
1659433690.83997,10553
1659433690.879267,10517
1659433690.918565,10510
1659433690.957863,10528
1659433690.998869,10527
1659433691.039875,10533
1659433691.078489,10552
1659433691.117103,10570
1659433691.155717,10606
1659433691.197749,10632
1659433691.23978,10652
1659433691.278736,10677
1659433691.317692,10707
1659433691.356648,10723
1659433691.395604,10739
1659433691.43456,10766
1659433691.473516,10795
1659433691.515034,10821
1659433691.556553,10856
1659433691.595509,10896
1659433691.634465,10898
1659433691.673421,10784
1659433691.715452,10630
1659433691.757483,10519
1659433691.796098,10444
1659433691.834712,10384
1659433691.873326,10365
1659433691.914332,10374
1659433691.955338,10393
1659433691.993269,10408
1659433692.0312,10421
1659433692.069131,10437
1659433692.113212,10458
1659433692.157294,10490
1659433692.201375,10522
1659433692.243407,10562
1659433692.285438,10603
1659433692.324053,10637
1659433692.362667,10667
1659433692.401281,10700
1659433692.4428,10733
1659433692.484318,10772
1659433692.523616,10800
1659433692.562914,10850
1659433692.602211,10898
1659433692.640484,10904
1659433692.678756,10811
1659433692.717029,10649
1659433692.759573,10537
1659433692.802116,10466
1659433692.841072,10423
1659433692.880028,10399
1659433692.918984,10417
1659433692.959478,10448
1659433692.999971,10475
1659433693.038927,10483
1659433693.077883,10497
1659433693.116839,10524
1659433693.155453,10557
1659433693.194067,10606
1659433693.232682,10642
1659433693.2742,10681
1659433693.315719,10732
1659433693.355358,10758
1659433693.394998,10794
1659433693.434637,10822
1659433693.476156,10847
1659433693.517675,10898
1659433693.562098,10931
1659433693.606521,10951
1659433693.650945,10908
1659433693.684775,10780
