LocalTimestamp,PG
1659520671.407638,8735
1659520671.44092,8934
1659520671.474202,9097
1659520671.518577,9150
1659520671.562953,9099
1659520671.607328,9079
1659520671.645901,9048
1659520671.684474,8984
1659520671.723046,8904
1659520671.76196,8841
1659520671.800874,8786
1659520671.839788,8704
1659520671.881774,8594
1659520671.92376,8521
1659520671.961991,8527
1659520672.000222,8562
1659520672.038454,8564
1659520672.08044,8564
1659520672.122426,8578
1659520672.161681,8625
1659520672.200937,8656
1659520672.240192,8683
1659520672.278082,8694
1659520672.315972,8705
1659520672.353862,8716
1659520672.395848,8668
1659520672.437834,8534
1659520672.47982,8412
1659520672.521806,8334
1659520672.560037,8266
1659520672.598269,8217
1659520672.6365,8198
1659520672.67695,8193
1659520672.7174,8200
1659520672.756996,8204
1659520672.796593,8216
1659520672.83619,8215
1659520672.880565,8201
1659520672.924941,8205
1659520672.969316,8235
1659520673.00311,8259
1659520673.036904,8274
1659520673.081962,8306
1659520673.12702,8343
1659520673.172079,8370
1659520673.210651,8396
1659520673.249224,8414
1659520673.287796,8416
1659520673.328758,8375
1659520673.36972,8255
1659520673.408976,8121
1659520673.448231,8026
1659520673.487486,7960
1659520673.529472,7907
1659520673.571459,7890
1659520673.610031,7874
1659520673.648604,7862
1659520673.687176,7857
1659520673.72609,7843
1659520673.765004,7872
1659520673.803918,7908
1659520673.84488,7966
1659520673.885842,8029
1659520673.924756,8086
1659520673.96367,8115
1659520674.002584,8159
1659520674.04457,8217
1659520674.086556,8257
1659520674.125129,8303
1659520674.163702,8354
1659520674.202274,8393
1659520674.243748,8375
1659520674.285222,8306
1659520674.324477,8191
1659520674.363733,8118
1659520674.402988,8083
1659520674.444462,8047
1659520674.485936,8038
1659520674.524168,8005
1659520674.562399,7964
1659520674.60063,7916
1659520674.645005,7873
1659520674.689381,7841
1659520674.733757,7823
1659520674.767038,7816
1659520674.80032,7824
1659520674.844354,7846
1659520674.888388,7863
1659520674.932423,7899
1659520674.971337,7938
1659520675.010251,7978
1659520675.049164,8014
1659520675.091151,8049
1659520675.133137,8092
1659520675.171709,8090
1659520675.210282,8049
1659520675.248854,7944
1659520675.29084,7846
1659520675.332827,7801
1659520675.371741,7771
1659520675.410655,7770
1659520675.449569,7793
1659520675.488141,7822
1659520675.526714,7859
1659520675.565286,7905
1659520675.605736,7958
1659520675.646186,8010
1659520675.685441,8066
1659520675.724697,8104
1659520675.763952,8139
1659520675.805938,8150
1659520675.847924,8173
1659520675.886156,8198
1659520675.924387,8229
1659520675.962618,8257
1659520676.004092,8269
1659520676.045566,8303
1659520676.084821,8288
1659520676.124077,8221
1659520676.163332,8111
1659520676.205318,8022
1659520676.247304,7981
1659520676.292021,7945
1659520676.336738,7933
1659520676.381455,7943
1659520676.420369,7961
1659520676.459283,7961
1659520676.498197,7971
1659520676.539671,7984
1659520676.581145,7993
1659520676.620059,8024
1659520676.658973,8033
1659520676.697887,8042
1659520676.740385,8020
1659520676.782883,8019
1659520676.821114,8030
1659520676.859346,8060
1659520676.897577,8091
1659520676.936491,8130
1659520676.975405,8187
1659520677.014319,8213
1659520677.055793,8171
1659520677.097267,8096
1659520677.135498,8043
1659520677.173729,8033
1659520677.211961,8036
1659520677.253947,8056
1659520677.295933,8098
1659520677.335529,8145
1659520677.375126,8157
1659520677.414723,8146
1659520677.452954,8163
1659520677.491185,8174
1659520677.529417,8203
1659520677.571403,8252
1659520677.613389,8288
1659520677.653122,8328
1659520677.692855,8361
1659520677.732588,8406
1659520677.772321,8441
1659520677.812055,8481
1659520677.853017,8522
1659520677.893979,8545
1659520677.932551,8500
1659520677.971124,8393
1659520678.009696,8313
1659520678.053731,8273
1659520678.097765,8259
1659520678.141799,8248
1659520678.175081,8262
1659520678.208362,8277
1659520678.253421,8291
1659520678.298479,8309
1659520678.343537,8325
1659520678.376307,8367
1659520678.409076,8387
1659520678.453111,8418
1659520678.497145,8465
1659520678.541179,8508
1659520678.584189,8548
1659520678.627199,8588
1659520678.666113,8651
1659520678.705027,8690
1659520678.743941,8755
1659520678.782855,8776
1659520678.821769,8730
1659520678.860683,8611
1659520678.902157,8486
1659520678.943631,8411
1659520678.982887,8344
1659520679.022142,8290
1659520679.061397,8267
1659520679.102359,8270
1659520679.143321,8257
1659520679.182235,8244
1659520679.221149,8257
1659520679.260063,8262
1659520679.298636,8278
1659520679.337208,8307
1659520679.375781,8334
1659520679.417767,8359
1659520679.459753,8387
1659520679.499008,8409
1659520679.538264,8436
1659520679.577519,8471
1659520679.618993,8505
1659520679.660467,8548
1659520679.699381,8578
1659520679.738295,8509
1659520679.777209,8400
1659520679.819195,8330
1659520679.861181,8276
1659520679.900436,8254
1659520679.939692,8240
1659520679.978947,8258
1659520680.019909,8256
1659520680.060871,8270
1659520680.104905,8267
1659520680.14894,8266
1659520680.192974,8287
1659520680.231888,8305
1659520680.270802,8328
1659520680.309716,8363
1659520680.35119,8392
1659520680.392664,8420
1659520680.431236,8459
1659520680.469809,8498
1659520680.508382,8531
1659520680.550368,8566
1659520680.592354,8600
1659520680.630926,8633
1659520680.669499,8626
1659520680.708071,8522
1659520680.746985,8388
1659520680.785899,8301
1659520680.824813,8240
1659520680.866799,8202
1659520680.908786,8189
1659520680.948041,8187
1659520680.987296,8197
1659520681.026551,8181
1659520681.064441,8185
1659520681.102331,8225
1659520681.140221,8256
1659520681.181695,8297
1659520681.223169,8352
1659520681.261742,8398
1659520681.300314,8462
1659520681.338887,8533
1659520681.380361,8600
1659520681.421835,8651
1659520681.460749,8708
1659520681.499663,8763
1659520681.538577,8807
1659520681.580563,8841
1659520681.622549,8801
1659520681.666584,8670
1659520681.710618,8568
1659520681.754652,8493
1659520681.788445,8454
1659520681.822239,8403
1659520681.867297,8378
1659520681.912356,8386
1659520681.957414,8410
1659520681.995986,8402
1659520682.034559,8383
1659520682.073132,8369
1659520682.114606,8369
1659520682.15608,8385
1659520682.195335,8401
1659520682.234591,8427
1659520682.273846,8472
1659520682.312418,8606
1659520682.350991,8780
1659520682.389564,9013
1659520682.431038,9247
1659520682.472512,9596
1659520682.511767,9968
1659520682.551022,10345
1659520682.590278,10543
1659520682.628509,10615
1659520682.66674,10737
1659520682.704971,11016
1659520682.747469,11211
1659520682.789968,11404
1659520682.829223,11632
1659520682.868478,11811
1659520682.907733,11935
1659520682.948951,12090
1659520682.99017,12263
1659520683.031388,12369
1659520683.072606,13010
1659520683.112202,10694
1659520683.151799,8974
1659520683.191396,8944
1659520683.235771,9058
1659520683.280147,9158
1659520683.324522,9705
1659520683.363095,12172
1659520683.401668,11859
1659520683.44024,10771
1659520683.478813,10211
1659520683.517385,10030
1659520683.555958,9780
1659520683.594189,9460
1659520683.632421,9198
1659520683.670652,9014
1659520683.711614,8871
1659520683.752576,8764
1659520683.79149,8662
1659520683.830404,8583
1659520683.869318,8489
1659520683.910792,8413
1659520683.952266,8350
1659520683.99118,8290
1659520684.030094,8255
1659520684.069008,8213
1659520684.110994,8213
1659520684.15298,8208
1659520684.191894,8230
1659520684.230808,8230
1659520684.269722,8249
1659520684.311196,8267
1659520684.35267,8282
1659520684.391243,8300
1659520684.429815,8317
1659520684.468388,8335
1659520684.512422,8329
1659520684.556456,8275
1659520684.60049,8144
1659520684.641452,8031
1659520684.682414,7967
1659520684.721328,7911
1659520684.760242,7878
1659520684.799156,7872
1659520684.841142,7876
1659520684.883128,7867
1659520684.921701,7872
1659520684.960274,7868
1659520684.998846,7865
1659520685.038101,7898
1659520685.077357,7912
1659520685.116612,7950
1659520685.158086,7974
1659520685.19956,8002
1659520685.238816,8050
1659520685.278071,8090
1659520685.317326,8131
1659520685.359312,8168
1659520685.401298,8203
1659520685.440212,8235
1659520685.479126,8273
1659520685.51804,8292
1659520685.559258,8223
1659520685.600476,8129
1659520685.641694,8047
1659520685.682912,8005
1659520685.721826,7988
1659520685.76074,7988
1659520685.799654,8003
1659520685.840616,8015
1659520685.881578,8020
1659520685.920151,8017
1659520685.958724,8027
1659520685.997296,8042
1659520686.036893,8058
1659520686.076489,8084
1659520686.116086,8099
1659520686.15756,8111
1659520686.199034,8145
1659520686.237265,8160
1659520686.275497,8179
1659520686.313728,8192
1659520686.355714,8223
1659520686.3977,8244
1659520686.436955,8284
1659520686.476211,8242
1659520686.515466,8144
1659520686.556428,8047
1659520686.59739,7979
1659520686.636304,7933
1659520686.675218,7901
1659520686.714132,7902
1659520686.755606,7900
1659520686.79708,7901
1659520686.840773,7913
1659520686.884466,7919
1659520686.928159,7938
1659520686.967414,7967
1659520687.006669,7989
1659520687.045924,8020
1659520687.087399,8047
1659520687.128873,8082
1659520687.167104,8121
1659520687.205335,8157
1659520687.243567,8182
1659520687.284528,8213
1659520687.32549,8253
1659520687.365428,8268
1659520687.405366,8223
1659520687.445304,8123
1659520687.483536,8035
1659520687.521767,7990
1659520687.559998,7974
1659520687.601472,7958
1659520687.642946,7972
1659520687.68186,7983
1659520687.720774,7994
1659520687.759688,7986
1659520687.79792,7995
1659520687.836151,8028
1659520687.874382,8042
1659520687.919099,8062
1659520687.963816,8079
1659520688.008533,8094
1659520688.047105,8104
1659520688.085678,8130
1659520688.12425,8139
1659520688.165981,8165
1659520688.207711,8203
1659520688.249441,8226
1659520688.291171,8222
1659520688.329317,8141
1659520688.367463,8032
1659520688.405608,7969
1659520688.443754,7924
1659520688.484716,7891
1659520688.525679,7871
1659520688.565275,7878
1659520688.604872,7879
1659520688.644469,7885
1659520688.686455,7896
1659520688.728441,7904
1659520688.767013,7928
1659520688.805586,7958
1659520688.844158,7984
1659520688.882731,8010
1659520688.921304,8046
1659520688.959876,8077
1659520689.002374,8109
1659520689.044873,8148
1659520689.085323,8171
1659520689.125772,8196
1659520689.164345,8198
1659520689.202918,8122
1659520689.24149,7988
1659520689.286207,7905
1659520689.330924,7857
1659520689.375641,7831
1659520689.408923,7822
1659520689.442204,7815
1659520689.48658,7811
1659520689.530956,7796
1659520689.575331,7791
1659520689.608613,7802
1659520689.641894,7812
1659520689.68627,7844
1659520689.730645,7878
1659520689.775021,7901
1659520689.813935,7917
1659520689.852849,7927
1659520689.891763,7951
1659520689.934261,7960
1659520689.976759,7990
1659520690.015332,8015
1659520690.053904,8030
1659520690.092477,7969
1659520690.132927,7854
1659520690.173377,7764
1659520690.211011,7720
1659520690.248645,7701
1659520690.286278,7678
1659520690.323912,7696
1659520690.367605,7710
1659520690.411298,7714
1659520690.454991,7722
1659520690.496465,7723
1659520690.537939,7743
1659520690.576853,7764
1659520690.615767,7783
1659520690.654681,7808
1659520690.697179,7841
1659520690.739677,7867
1659520690.77825,7894
1659520690.816823,7932
1659520690.855395,7957
1659520690.89465,7992
1659520690.933906,8027
1659520690.973161,8053
1659520691.011734,8027
1659520691.050306,7933
1659520691.088879,7834
1659520691.130865,7763
1659520691.172851,7728
1659520691.212106,7693
1659520691.251362,7681
1659520691.290617,7673
1659520691.331579,7665
1659520691.372541,7664
1659520691.410431,7654
1659520691.448321,7674
1659520691.486211,7693
1659520691.529221,7732
1659520691.572231,7753
1659520691.611145,7798
1659520691.650059,7816
1659520691.688973,7836
1659520691.729935,7863
1659520691.770897,7892
1659520691.810152,7915
1659520691.849407,7944
1659520691.888663,7982
1659520691.933721,8007
1659520691.978779,7956
1659520692.023838,7852
1659520692.065312,7765
1659520692.106786,7726
1659520692.1457,7688
1659520692.184613,7676
1659520692.223527,7684
1659520692.265514,7677
1659520692.3075,7680
1659520692.34539,7687
1659520692.38328,7685
1659520692.421169,7699
1659520692.460083,7719
1659520692.498997,7745
1659520692.537911,7768
1659520692.576484,7794
1659520692.615057,7830
1659520692.653629,7858
1659520692.697663,7882
1659520692.741697,7914
1659520692.785732,7955
1659520692.820037,7991
1659520692.854343,8036
1659520692.898719,8054
1659520692.943094,8005
1659520692.98747,7890
1659520693.019727,7805
1659520693.051985,7749
1659520693.096702,7715
1659520693.141419,7701
1659520693.186136,7697
1659520693.225391,7698
1659520693.264646,7702
1659520693.303901,7708
1659520693.344352,7721
1659520693.384802,7758
1659520693.424535,7793
1659520693.464268,7828
1659520693.504001,7879
1659520693.543734,7905
1659520693.583467,7947
1659520693.622381,7988
1659520693.661295,8020
1659520693.700209,8061
1659520693.741683,8108
1659520693.783158,8148
1659520693.822413,8181
1659520693.861668,8191
1659520693.900923,8103
1659520693.939496,7999
1659520693.978069,7929
1659520694.016641,7879
1659520694.059139,7848
1659520694.101637,7827
1659520694.140893,7825
1659520694.180148,7820
1659520694.219403,7820
1659520694.260877,7813
1659520694.302351,7824
1659520694.340924,7855
1659520694.379497,7877
1659520694.418069,7906
1659520694.460567,7941
1659520694.503066,7976
1659520694.54198,8012
1659520694.580894,8052
1659520694.619807,8089
1659520694.6635,8128
1659520694.707193,8178
1659520694.750886,8212
1659520694.783656,8271
1659520694.816425,8256
1659520694.858411,8152
1659520694.900397,8042
1659520694.942384,7957
1659520694.98437,7912
1659520695.025844,7873
1659520695.067318,7854
1659520695.106573,7854
1659520695.145828,7867
1659520695.185084,7867
1659520695.224339,7865
1659520695.263594,7892
1659520695.30285,7906
1659520695.344324,7940
1659520695.385798,7969
1659520695.425053,8014
1659520695.464308,8041
1659520695.503564,8087
1659520695.544526,8121
1659520695.585488,8161
1659520695.62918,8198
1659520695.672873,8246
1659520695.716566,8291
1659520695.75036,8330
1659520695.784154,8326
1659520695.828529,8231
1659520695.872905,8128
1659520695.91728,8043
1659520695.949538,8002
1659520695.981796,7977
1659520696.026171,7955
1659520696.070547,7971
1659520696.114922,7972
1659520696.154519,7970
1659520696.194115,7977
1659520696.233712,8012
1659520696.274674,8051
1659520696.315636,8085
1659520696.35455,8129
1659520696.393464,8166
1659520696.432378,8212
1659520696.474364,8232
1659520696.51635,8258
1659520696.555264,8298
1659520696.594178,8335
1659520696.633092,8371
1659520696.672006,8406
1659520696.71092,8360
1659520696.749834,8244
1659520696.791308,8158
1659520696.832782,8080
1659520696.870672,8033
1659520696.908562,7998
1659520696.946452,7990
1659520696.988438,7995
1659520697.030424,7999
1659520697.072154,7990
1659520697.113884,7990
1659520697.155614,8000
1659520697.197344,8019
1659520697.235575,8046
1659520697.273807,8081
1659520697.312038,8111
1659520697.355048,8148
1659520697.398058,8166
1659520697.436972,8179
1659520697.475886,8203
1659520697.5148,8232
1659520697.556274,8266
1659520697.597748,8282
1659520697.636662,8216
1659520697.675576,8092
1659520697.71449,8004
1659520697.756988,7924
1659520697.799486,7878
1659520697.837718,7864
1659520697.875949,7861
1659520697.91418,7877
1659520697.953094,7875
1659520697.992008,7894
1659520698.030922,7914
1659520698.072396,7927
1659520698.11387,7934
1659520698.152784,7946
1659520698.191698,7970
1659520698.230612,7991
1659520698.272086,8027
1659520698.31356,8060
1659520698.352815,8099
1659520698.392071,8128
1659520698.431326,8166
1659520698.472288,8134
1659520698.51325,8029
1659520698.557967,7925
1659520698.602684,7860
1659520698.647401,7808
1659520698.684523,7765
1659520698.721645,7760
1659520698.758766,7757
1659520698.795888,7762
1659520698.83412,7762
1659520698.872351,7778
1659520698.910582,7814
1659520698.952568,7856
1659520698.994554,7892
1659520699.033127,7916
1659520699.071699,7933
1659520699.110272,7964
1659520699.151234,7988
1659520699.192196,8013
1659520699.230769,8050
1659520699.269341,8081
1659520699.307914,8115
1659520699.349388,8140
1659520699.390862,8124
1659520699.431597,8017
1659520699.472331,7881
1659520699.513066,7802
1659520699.5538,7725
1659520699.594534,7668
1659520699.635269,7633
1659520699.676003,7619
1659520699.716738,7626
1659520699.757472,7631
1659520699.797615,7635
1659520699.837758,7656
1659520699.877901,7676
1659520699.918044,7690
1659520699.958186,7716
1659520699.998124,7733
1659520700.038062,7746
1659520700.078,7771
1659520700.117939,7786
1659520700.157876,7805
1659520700.198326,7828
1659520700.238776,7864
1659520700.278373,7906
1659520700.31797,7954
1659520700.357566,7970
1659520700.396139,7933
1659520700.434712,7812
1659520700.473284,7691
1659520700.514758,7618
1659520700.556232,7575
1659520700.595488,7549
1659520700.634743,7536
1659520700.673998,7573
1659520700.716496,7572
1659520700.758995,7556
1659520700.803029,7563
1659520700.847063,7580
1659520700.891097,7586
1659520700.924379,7595
1659520700.95766,7613
1659520701.002036,7617
1659520701.046412,7660
1659520701.090787,7678
1659520701.124069,7696
1659520701.15735,7727
1659520701.201726,7751
1659520701.246102,7792
1659520701.290477,7810
1659520701.329391,7844
1659520701.368305,7878
1659520701.407219,7883
1659520701.447669,7786
1659520701.488119,7666
1659520701.527033,7606
1659520701.565947,7560
1659520701.604861,7518
1659520701.647871,7485
1659520701.690881,7474
1659520701.729454,7478
1659520701.768026,7461
1659520701.806599,7457
1659520701.845513,7456
1659520701.884427,7466
1659520701.923341,7498
1659520701.965327,7545
1659520702.007313,7623
1659520702.045544,7685
1659520702.083776,7752
1659520702.122007,7810
1659520702.163993,7865
1659520702.205979,7931
1659520702.244551,7994
1659520702.283124,8064
1659520702.321697,8145
1659520702.362659,8208
1659520702.403621,8257
1659520702.441852,8206
1659520702.480083,8113
1659520702.518314,8032
1659520702.563031,8004
1659520702.607748,7963
1659520702.652465,7932
1659520702.685235,7932
1659520702.718004,7924
1659520702.76238,7912
1659520702.806756,7900
1659520702.851131,7904
1659520702.890386,7904
1659520702.929642,7933
1659520702.968897,7943
1659520703.010371,7948
1659520703.051845,7975
1659520703.090759,7994
1659520703.129673,8018
1659520703.168587,8046
1659520703.211085,8083
1659520703.253583,8116
1659520703.292156,8178
1659520703.330729,8241
1659520703.369301,8315
1659520703.407874,8330
1659520703.446446,8222
1659520703.485019,8116
1659520703.526493,8072
1659520703.567967,8041
1659520703.607222,8030
1659520703.646477,8054
1659520703.685733,8080
1659520703.726695,8109
1659520703.767657,8130
1659520703.806912,8141
1659520703.846168,8156
1659520703.885423,8199
1659520703.927153,8242
1659520703.968883,8287
1659520704.010613,8331
1659520704.052343,8391
1659520704.091257,8442
1659520704.130171,8507
1659520704.169085,8559
1659520704.211071,8606
1659520704.253057,8667
1659520704.29163,8719
1659520704.330202,8773
1659520704.368775,8831
1659520704.40803,8789
1659520704.447286,8650
1659520704.486541,8498
1659520704.528015,8404
1659520704.569489,8357
1659520704.610451,8306
1659520704.651413,8284
1659520704.689644,8292
1659520704.727876,8308
1659520704.766107,8325
1659520704.810824,8345
1659520704.855541,8367
1659520704.900258,8388
1659520704.939172,8418
1659520704.978086,8446
1659520705.016999,8468
1659520705.058474,8477
1659520705.099948,8510
1659520705.13852,8561
1659520705.177093,8627
1659520705.215665,8686
1659520705.257652,8775
1659520705.299638,8877
1659520705.338552,8954
1659520705.377465,8986
1659520705.416379,8892
1659520705.454952,8767
1659520705.493525,8670
1659520705.532097,8645
1659520705.573571,8625
1659520705.615045,8619
1659520705.652935,8626
1659520705.690825,8623
1659520705.728715,8597
1659520705.76797,8570
1659520705.807226,8546
1659520705.846481,8537
1659520705.888979,8537
1659520705.931477,8553
1659520705.969367,8566
1659520706.007257,8578
1659520706.045147,8590
1659520706.087645,8596
1659520706.130143,8595
1659520706.17486,8599
1659520706.219577,8617
1659520706.264294,8630
1659520706.297064,8587
1659520706.329833,8401
1659520706.37455,8184
1659520706.419267,8024
1659520706.463984,7909
1659520706.497777,7818
1659520706.531571,7757
1659520706.575605,7713
1659520706.61964,7697
1659520706.663674,7674
1659520706.702246,7662
1659520706.740819,7648
1659520706.779392,7653
1659520706.822402,7686
1659520706.865412,7708
1659520706.903643,7751
1659520706.941875,7792
1659520706.980106,7845
1659520707.01902,7880
1659520707.057934,7922
1659520707.096848,7957
1659520707.138834,7999
1659520707.18082,8033
1659520707.219392,7986
1659520707.257965,7834
1659520707.296537,7693
1659520707.339036,7609
1659520707.381534,7560
1659520707.420789,7530
1659520707.460044,7511
1659520707.4993,7508
1659520707.540774,7523
1659520707.582248,7506
1659520707.620479,7515
1659520707.65871,7527
1659520707.696942,7567
1659520707.73944,7602
1659520707.781938,7645
1659520707.820169,7680
1659520707.8584,7715
1659520707.896631,7751
1659520707.940666,7782
1659520707.9847,7818
1659520708.028734,7869
1659520708.061504,7894
1659520708.094273,7844
1659520708.138649,7719
1659520708.183024,7606
1659520708.2274,7541
1659520708.260682,7506
1659520708.293963,7480
1659520708.33868,7476
1659520708.383397,7487
1659520708.428114,7493
1659520708.466687,7482
1659520708.505259,7500
1659520708.543832,7516
1659520708.585306,7537
1659520708.62678,7566
1659520708.666377,7587
1659520708.705973,7611
1659520708.74557,7642
1659520708.786532,7672
1659520708.827494,7694
1659520708.865725,7724
1659520708.903957,7767
1659520708.942188,7805
1659520708.981102,7775
1659520709.020016,7635
1659520709.05893,7487
1659520709.100916,7385
1659520709.142902,7317
1659520709.183864,7267
1659520709.224826,7247
1659520709.265788,7248
1659520709.30675,7256
1659520709.346005,7232
1659520709.385261,7224
1659520709.424516,7247
1659520709.464113,7258
1659520709.503709,7285
1659520709.543306,7319
1659520709.584268,7358
1659520709.62523,7394
1659520709.664485,7438
1659520709.703741,7474
1659520709.742996,7509
1659520709.784982,7556
1659520709.826968,7599
1659520709.866223,7640
1659520709.905479,7655
1659520709.944734,7573
1659520709.985696,7426
1659520710.026658,7322
1659520710.065913,7268
1659520710.105169,7223
1659520710.144424,7195
1659520710.184874,7207
1659520710.225324,7251
1659520710.264579,7292
1659520710.303835,7344
1659520710.34309,7394
1659520710.387465,7447
1659520710.431841,7496
1659520710.476217,7532
1659520710.508986,7572
1659520710.541756,7611
1659520710.586131,7630
1659520710.630507,7665
1659520710.674882,7678
1659520710.716357,7701
1659520710.757831,7720
1659520710.797086,7738
1659520710.836341,7758
1659520710.875597,7795
1659520710.914169,7767
1659520710.952742,7649
1659520710.991314,7509
1659520711.032788,7410
1659520711.074262,7343
1659520711.112494,7309
1659520711.150725,7286
1659520711.188956,7306
1659520711.227529,7308
1659520711.266101,7311
1659520711.304674,7325
1659520711.347172,7341
1659520711.38967,7371
1659520711.42756,7406
1659520711.46545,7428
1659520711.50334,7456
1659520711.544814,7492
1659520711.586288,7510
1659520711.625885,7541
1659520711.665481,7600
1659520711.705078,7633
1659520711.747064,7672
1659520711.78905,7703
1659520711.827623,7742
1659520711.866195,7781
1659520711.904768,7814
1659520711.946754,7751
1659520711.98874,7608
1659520712.032774,7489
1659520712.076809,7421
1659520712.120843,7380
1659520712.158733,7337
1659520712.196623,7337
1659520712.234513,7332
1659520712.277523,7340
1659520712.320533,7334
1659520712.359105,7334
1659520712.397678,7360
1659520712.436251,7382
1659520712.476701,7404
1659520712.517151,7424
1659520712.556406,7440
1659520712.595661,7474
1659520712.634917,7517
1659520712.673831,7554
1659520712.712744,7586
1659520712.751658,7626
1659520712.793644,7658
1659520712.835631,7708
1659520712.874886,7747
1659520712.914141,7760
1659520712.953397,7689
1659520712.995383,7562
1659520713.037369,7478
1659520713.075941,7435
1659520713.114514,7407
1659520713.153086,7397
1659520713.195585,7413
1659520713.238083,7429
1659520713.276997,7426
1659520713.315911,7425
1659520713.354825,7445
1659520713.393056,7469
1659520713.431287,7486
1659520713.469518,7495
1659520713.51048,7511
1659520713.551442,7527
1659520713.59394,7535
1659520713.636439,7557
1659520713.67467,7582
1659520713.712901,7616
1659520713.751132,7648
1659520713.795508,7692
1659520713.839884,7721
1659520713.884259,7721
1659520713.917541,7618
1659520713.950822,7472
1659520713.995198,7371
1659520714.039573,7321
1659520714.083949,7280
1659520714.117743,7244
1659520714.151536,7259
1659520714.196253,7254
1659520714.24097,7256
1659520714.285687,7264
1659520714.323918,7285
1659520714.36215,7308
1659520714.400381,7335
1659520714.440114,7364
1659520714.479847,7406
1659520714.51958,7441
1659520714.559314,7481
1659520714.599047,7508
1659520714.640009,7556
1659520714.680971,7586
1659520714.719543,7620
1659520714.758116,7645
1659520714.796689,7673
1659520714.838163,7698
1659520714.879637,7645
1659520714.919234,7496
1659520714.95883,7371
1659520714.998427,7316
1659520715.036999,7268
1659520715.075572,7246
1659520715.114145,7219
1659520715.155619,7227
1659520715.197093,7244
1659520715.236689,7245
1659520715.276286,7249
1659520715.315883,7264
1659520715.357357,7284
1659520715.398831,7301
1659520715.437403,7335
1659520715.475976,7366
1659520715.514549,7416
1659520715.556535,7486
1659520715.598521,7549
1659520715.636752,7594
1659520715.674983,7627
1659520715.713214,7659
1659520715.755201,7678
1659520715.797187,7720
1659520715.841904,7745
1659520715.886621,7719
1659520715.931337,7637
1659520715.96991,7528
1659520716.008483,7481
1659520716.047055,7449
1659520716.088529,7423
1659520716.130003,7412
1659520716.1696,7417
1659520716.209197,7424
1659520716.248793,7430
1659520716.290267,7440
1659520716.331742,7457
1659520716.369973,7473
1659520716.408204,7517
1659520716.446435,7529
1659520716.486032,7553
1659520716.525629,7587
1659520716.565225,7620
1659520716.606187,7653
1659520716.647149,7687
1659520716.68538,7729
1659520716.723612,7764
1659520716.761843,7802
1659520716.804341,7841
1659520716.846839,7872
1659520716.885412,7860
1659520716.923985,7748
1659520716.962557,7610
1659520717.000788,7518
1659520717.03902,7472
1659520717.077251,7442
1659520717.119237,7434
1659520717.161223,7442
1659520717.199795,7445
1659520717.238368,7451
1659520717.276941,7445
1659520717.321316,7469
1659520717.365692,7495
1659520717.410067,7521
1659520717.452565,7542
1659520717.495064,7564
1659520717.533978,7590
1659520717.572891,7618
1659520717.611805,7656
1659520717.650037,7680
1659520717.688268,7711
1659520717.726499,7725
1659520717.767973,7742
1659520717.809447,7780
1659520717.848361,7786
1659520717.887275,7719
1659520717.926189,7587
1659520717.966639,7492
1659520718.007089,7447
1659520718.046003,7430
1659520718.084917,7417
1659520718.123831,7422
1659520718.162745,7446
1659520718.201659,7428
1659520718.240573,7446
1659520718.282559,7462
1659520718.324545,7483
1659520718.363801,7521
1659520718.403056,7570
1659520718.442311,7608
1659520718.483785,7645
1659520718.525259,7691
1659520718.564514,7725
1659520718.60377,7751
1659520718.643025,7794
1659520718.685011,7814
1659520718.726997,7855
1659520718.772056,7885
1659520718.817114,7869
1659520718.862172,7761
1659520718.89443,7619
1659520718.926687,7554
1659520718.971063,7528
1659520719.015438,7513
1659520719.059814,7511
1659520719.098728,7504
1659520719.137642,7485
1659520719.176556,7449
1659520719.218542,7428
1659520719.260528,7416
1659520719.299101,7422
1659520719.337673,7419
1659520719.376246,7439
1659520719.418232,7459
1659520719.460218,7487
1659520719.499132,7514
1659520719.538046,7544
1659520719.57696,7593
1659520719.615874,7622
1659520719.654788,7665
1659520719.693702,7710
1659520719.734049,7704
1659520719.774397,7612
1659520719.814744,7532
1659520719.855092,7493
1659520719.89544,7467
1659520719.93589,7492
1659520719.97634,7501
1659520720.014912,7492
1659520720.053485,7479
1659520720.092057,7474
1659520720.13063,7475
1659520720.169203,7494
1659520720.207775,7522
1659520720.249249,7551
1659520720.290724,7579
1659520720.331686,7617
1659520720.372648,7647
1659520720.411903,7688
1659520720.451158,7715
1659520720.490413,7753
1659520720.534448,7750
1659520720.578482,7668
1659520720.622516,7555
1659520720.65631,7490
1659520720.690104,7464
1659520720.73482,7437
1659520720.779537,7431
1659520720.824254,7436
1659520720.857024,7448
1659520720.889793,7436
1659520720.933828,7440
1659520720.977862,7463
1659520721.021896,7483
1659520721.061151,7503
1659520721.100407,7532
1659520721.139662,7565
1659520721.181136,7582
1659520721.22261,7618
1659520721.260841,7626
1659520721.299073,7642
1659520721.337304,7673
1659520721.37929,7648
1659520721.421276,7549
1659520721.459849,7436
1659520721.498421,7358
1659520721.536994,7309
1659520721.576249,7271
1659520721.615505,7239
1659520721.65476,7223
1659520721.696746,7214
1659520721.738732,7198
1659520721.777304,7199
1659520721.815877,7213
1659520721.85445,7234
1659520721.896436,7260
1659520721.938422,7289
1659520721.978019,7322
1659520722.017615,7357
1659520722.057212,7390
1659520722.098174,7412
1659520722.139136,7443
1659520722.177367,7473
1659520722.215598,7500
1659520722.25383,7483
1659520722.295304,7385
1659520722.336778,7256
1659520722.376033,7171
1659520722.415288,7114
1659520722.454544,7060
1659520722.498578,7024
1659520722.542612,7015
1659520722.586646,7012
1659520722.62812,7001
1659520722.669595,7001
1659520722.708508,6997
1659520722.747422,7005
1659520722.786336,7018
1659520722.827298,7038
1659520722.86826,7058
1659520722.907857,7091
1659520722.947454,7113
1659520722.98705,7140
1659520723.025623,7163
1659520723.064196,7189
1659520723.102768,7232
1659520723.144242,7263
1659520723.185716,7304
1659520723.224289,7337
1659520723.262861,7280
1659520723.301434,7183
1659520723.340007,7110
1659520723.378579,7079
1659520723.417152,7042
1659520723.459138,7031
1659520723.501124,7028
1659520723.539697,7038
1659520723.578269,7046
1659520723.616842,7052
1659520723.657804,7068
1659520723.698766,7089
1659520723.73768,7121
1659520723.776594,7150
1659520723.815508,7185
1659520723.856982,7216
1659520723.898456,7256
1659520723.937711,7311
1659520723.976967,7341
1659520724.016222,7383
1659520724.057696,7428
1659520724.09917,7463
1659520724.143204,7496
1659520724.187238,7537
1659520724.231273,7572
1659520724.269845,7589
1659520724.308418,7529
1659520724.34699,7421
1659520724.389488,7343
1659520724.431987,7316
1659520724.470218,7281
1659520724.508449,7280
1659520724.54668,7300
1659520724.588155,7295
1659520724.629628,7290
1659520724.668542,7287
1659520724.707456,7314
1659520724.74637,7327
1659520724.784943,7358
1659520724.823516,7377
1659520724.862088,7404
1659520724.904586,7432
1659520724.947084,7454
1659520724.987227,7489
1659520725.02737,7518
1659520725.067513,7554
1659520725.107656,7579
1659520725.147799,7625
1659520725.187054,7660
1659520725.226309,7693
1659520725.265564,7688
1659520725.308063,7597
1659520725.350561,7493
1659520725.388792,7419
1659520725.427023,7381
1659520725.465254,7366
1659520725.506216,7344
1659520725.547179,7358
1659520725.586434,7362
1659520725.625689,7356
1659520725.664944,7373
1659520725.708637,7390
1659520725.75233,7409
1659520725.796023,7436
1659520725.829817,7467
1659520725.86361,7497
1659520725.907986,7526
1659520725.952361,7553
1659520725.996737,7596
1659520726.028995,7627
1659520726.061252,7676
1659520726.105628,7693
1659520726.150003,7739
1659520726.194379,7791
1659520726.233975,7820
1659520726.273572,7790
1659520726.313169,7681
1659520726.354131,7592
1659520726.395093,7532
1659520726.434007,7501
1659520726.472921,7470
1659520726.511835,7454
1659520726.550407,7478
1659520726.58898,7480
1659520726.627553,7488
1659520726.669538,7491
1659520726.711525,7499
1659520726.749756,7522
1659520726.787987,7559
1659520726.826218,7589
1659520726.867692,7610
1659520726.909167,7653
1659520726.947398,7669
1659520726.985629,7709
1659520727.02386,7730
1659520727.065846,7759
1659520727.107832,7798
1659520727.147088,7824
1659520727.186343,7862
1659520727.225598,7886
1659520727.267072,7845
1659520727.308547,7732
1659520727.347119,7636
1659520727.385692,7581
1659520727.424264,7546
1659520727.466763,7522
1659520727.509261,7504
1659520727.548175,7508
1659520727.587089,7517
1659520727.626002,7524
1659520727.670378,7527
1659520727.714754,7556
1659520727.759129,7570
1659520727.800603,7607
1659520727.842077,7631
1659520727.88065,7649
1659520727.919222,7687
1659520727.957795,7720
1659520727.996026,7744
1659520728.034257,7781
1659520728.072489,7805
1659520728.114987,7839
1659520728.157485,7880
1659520728.196399,7926
1659520728.235313,7947
1659520728.274227,7883
1659520728.315701,7788
1659520728.357175,7711
1659520728.396089,7675
1659520728.435003,7659
1659520728.473917,7654
1659520728.513514,7668
1659520728.55311,7690
1659520728.592707,7706
1659520728.634181,7711
1659520728.675655,7727
1659520728.714569,7746
1659520728.753483,7769
1659520728.792397,7793
1659520728.833871,7809
1659520728.875345,7832
1659520728.913918,7851
1659520728.95249,7892
1659520728.991063,7918
1659520729.033049,7958
1659520729.075035,7996
1659520729.113949,8037
1659520729.152863,8082
1659520729.191777,8089
1659520729.232739,8017
1659520729.273701,7907
1659520729.317735,7838
1659520729.361769,7801
1659520729.405803,7771
1659520729.444717,7745
1659520729.483631,7753
1659520729.522545,7771
1659520729.564531,7769
1659520729.606518,7793
1659520729.64509,7800
1659520729.683663,7824
1659520729.722235,7850
1659520729.763709,7877
1659520729.805183,7896
1659520729.844097,7919
1659520729.883011,7955
1659520729.921925,7982
1659520729.960498,8023
1659520729.99907,8066
1659520730.037643,8109
1659520730.079117,8175
1659520730.120591,8209
1659520730.158993,8183
1659520730.197395,8063
1659520730.235797,7928
1659520730.274199,7869
1659520730.312601,7819
1659520730.351003,7773
1659520730.396061,7729
1659520730.441119,7708
1659520730.486177,7710
1659520730.525091,7724
1659520730.564005,7717
1659520730.602919,7699
1659520730.641833,7702
1659520730.680747,7712
1659520730.719661,7724
1659520730.762671,7738
1659520730.805681,7771
1659520730.844595,7793
1659520730.883509,7829
1659520730.922423,7850
1659520730.962873,7877
1659520731.003323,7916
1659520731.042579,7933
1659520731.081834,7868
1659520731.121089,7739
1659520731.160003,7627
1659520731.198917,7576
1659520731.237831,7541
1659520731.278793,7511
1659520731.319755,7504
1659520731.361229,7515
1659520731.402703,7502
1659520731.441959,7502
1659520731.481214,7499
1659520731.520469,7524
1659520731.564503,7557
1659520731.608538,7583
1659520731.652572,7611
1659520731.686877,7640
1659520731.721183,7670
1659520731.7659,7697
1659520731.810617,7734
1659520731.855334,7766
1659520731.888104,7798
1659520731.920873,7837
1659520731.96559,7813
1659520732.010307,7700
1659520732.055024,7567
1659520732.094279,7479
1659520732.133535,7423
1659520732.17279,7376
1659520732.21324,7343
1659520732.25369,7352
1659520732.292604,7361
1659520732.331518,7359
1659520732.370432,7361
1659520732.411394,7378
1659520732.452356,7414
1659520732.49127,7435
1659520732.530184,7468
1659520732.569098,7500
1659520732.60767,7520
1659520732.646243,7544
1659520732.684815,7572
1659520732.726802,7602
1659520732.768788,7633
1659520732.80736,7667
1659520732.845933,7708
1659520732.884506,7725
1659520732.926491,7638
1659520732.968478,7505
1659520733.007392,7423
1659520733.046306,7383
1659520733.08522,7344
1659520733.127206,7334
1659520733.169192,7329
1659520733.207423,7334
1659520733.245654,7344
1659520733.283885,7359
1659520733.326384,7372
1659520733.368882,7401
1659520733.407796,7434
1659520733.44671,7466
1659520733.485624,7520
1659520733.529658,7549
1659520733.573692,7579
1659520733.617726,7616
1659520733.6592,7650
1659520733.700674,7689
1659520733.739247,7730
1659520733.777819,7779
1659520733.816392,7820
1659520733.858378,7868
1659520733.900364,7824
1659520733.93962,7700
1659520733.978875,7618
1659520734.01813,7563
1659520734.057385,7548
1659520734.096641,7509
1659520734.135896,7498
1659520734.17737,7509
1659520734.218844,7513
1659520734.257417,7510
1659520734.29599,7515
1659520734.334562,7544
1659520734.377572,7565
1659520734.420582,7591
1659520734.458814,7614
1659520734.497045,7642
1659520734.535276,7675
1659520734.573849,7706
1659520734.612421,7742
1659520734.650994,7769
1659520734.69298,7806
1659520734.734966,7846
1659520734.773197,7898
1659520734.811429,7926
1659520734.84966,7875
1659520734.891646,7754
1659520734.933632,7629
1659520734.973229,7564
1659520735.012825,7520
1659520735.052422,7463
1659520735.096456,7422
1659520735.14049,7415
1659520735.184525,7397
1659520735.225999,7378
1659520735.267473,7389
1659520735.306728,7392
1659520735.345983,7419
1659520735.385239,7447
1659520735.424562,7476
1659520735.463886,7509
1659520735.503209,7537
1659520735.542533,7571
1659520735.581856,7599
1659520735.621112,7644
1659520735.660367,7673
1659520735.699622,7704
1659520735.737512,7758
1659520735.775402,7790
1659520735.813292,7830
1659520735.855278,7800
1659520735.897264,7675
1659520735.935837,7560
1659520735.974409,7488
1659520736.012982,7446
1659520736.054456,7402
1659520736.09593,7380
1659520736.134503,7388
1659520736.173075,7397
1659520736.211648,7402
1659520736.256706,7404
1659520736.301764,7435
1659520736.346823,7448
1659520736.379592,7483
1659520736.412362,7524
1659520736.456738,7560
1659520736.501113,7601
1659520736.545489,7663
1659520736.57877,7727
1659520736.612052,7777
1659520736.656427,7830
1659520736.700803,7874
1659520736.745179,7930
1659520736.783751,7987
1659520736.822324,8042
1659520736.860896,8045
1659520736.903394,7939
1659520736.945893,7808
1659520736.984124,7709
1659520737.022355,7657
1659520737.060586,7599
1659520737.0995,7580
1659520737.138414,7594
1659520737.177328,7606
1659520737.219314,7613
1659520737.2613,7624
1659520737.300214,7643
1659520737.339128,7663
1659520737.378042,7701
1659520737.420028,7742
1659520737.462014,7782
1659520737.50127,7829
1659520737.540525,7867
1659520737.57978,7910
1659520737.620742,7953
1659520737.661705,7994
1659520737.700277,8034
1659520737.73885,8098
1659520737.777422,8154
1659520737.819408,8151
1659520737.861394,8053
1659520737.899967,7920
1659520737.93854,7849
1659520737.977112,7791
1659520738.021146,7752
1659520738.065181,7743
1659520738.109215,7748
1659520738.151201,7760
1659520738.193187,7754
1659520738.232101,7754
1659520738.271015,7758
1659520738.309929,7779
1659520738.351403,7794
1659520738.392877,7830
1659520738.431791,7867
1659520738.470705,7922
1659520738.509619,7970
1659520738.548533,8009
1659520738.587447,8042
1659520738.626361,8068
1659520738.667835,8122
1659520738.709309,8158
1659520738.748564,8164
1659520738.787819,8100
1659520738.827075,7960
1659520738.865647,7850
1659520738.90422,7793
1659520738.942792,7764
1659520738.983755,7732
1659520739.024717,7740
1659520739.062607,7743
1659520739.100496,7739
1659520739.138386,7736
1659520739.180884,7752
1659520739.223382,7783
1659520739.261955,7805
1659520739.300528,7824
1659520739.3391,7850
1659520739.380062,7885
1659520739.421024,7920
1659520739.460621,7945
1659520739.500218,7986
1659520739.539814,8023
1659520739.5818,8065
1659520739.623787,8095
1659520739.667821,8078
1659520739.711855,7974
1659520739.755889,7825
1659520739.795145,7745
1659520739.8344,7692
1659520739.873655,7658
1659520739.915129,7626
1659520739.956603,7636
1659520739.995176,7638
1659520740.033748,7635
1659520740.072321,7636
1659520740.114307,7630
1659520740.156293,7634
1659520740.195549,7634
1659520740.234804,7648
1659520740.274059,7668
1659520740.311949,7680
1659520740.349839,7696
1659520740.387729,7713
1659520740.429715,7747
1659520740.471701,7767
1659520740.510956,7783
1659520740.550212,7723
1659520740.589467,7583
1659520740.630941,7476
1659520740.672415,7418
1659520740.712763,7387
1659520740.75311,7366
1659520740.793458,7370
1659520740.833806,7388
1659520740.874153,7391
1659520740.915627,7408
1659520740.957101,7416
1659520740.995674,7438
1659520741.034246,7472
1659520741.072819,7501
1659520741.114293,7536
1659520741.155767,7566
1659520741.193999,7600
1659520741.23223,7636
1659520741.270461,7691
1659520741.308692,7747
1659520741.346923,7801
1659520741.385155,7826
1659520741.427653,7733
1659520741.470151,7633
1659520741.508723,7566
1659520741.547296,7526
1659520741.585869,7504
1659520741.627343,7511
1659520741.668817,7517
1659520741.707731,7497
1659520741.746645,7501
1659520741.785559,7492
1659520741.827545,7502
1659520741.869531,7504
1659520741.913565,7512
1659520741.957599,7525
1659520742.001633,7534
1659520742.034915,7541
1659520742.068197,7563
1659520742.112572,7580
1659520742.156948,7573
1659520742.201324,7496
1659520742.239555,7349
1659520742.277786,7242
1659520742.316017,7177
1659520742.358515,7133
1659520742.401014,7091
1659520742.439927,7082
1659520742.478841,7082
1659520742.517755,7081
1659520742.555987,7092
1659520742.594218,7120
1659520742.632449,7142
1659520742.674435,7170
1659520742.716421,7200
1659520742.755335,7235
1659520742.794249,7275
1659520742.833163,7328
1659520742.875149,7377
1659520742.917135,7424
1659520742.956049,7455
1659520742.994963,7426
1659520743.033877,7341
1659520743.075863,7271
1659520743.117849,7244
1659520743.156763,7209
1659520743.195677,7199
1659520743.234591,7211
1659520743.276065,7221
1659520743.317539,7213
1659520743.356453,7212
1659520743.395367,7230
1659520743.434281,7251
1659520743.475755,7295
1659520743.517229,7311
1659520743.555802,7337
1659520743.594374,7369
1659520743.632947,7403
1659520743.677664,7443
1659520743.722381,7476
1659520743.767098,7502
1659520743.801404,7453
1659520743.835709,7369
1659520743.879744,7284
1659520743.923778,7255
1659520743.967812,7246
1659520744.009798,7239
1659520744.051784,7252
1659520744.091039,7267
1659520744.130295,7278
1659520744.16955,7280
1659520744.208464,7296
1659520744.247378,7301
1659520744.286292,7300
1659520744.327254,7322
1659520744.368216,7333
1659520744.40713,7370
1659520744.446044,7395
1659520744.484958,7431
1659520744.525408,7451
1659520744.565858,7411
1659520744.604772,7298
1659520744.643686,7194
1659520744.6826,7161
1659520744.721514,7144
1659520744.760427,7145
1659520744.799341,7147
1659520744.840303,7159
1659520744.881266,7160
1659520744.92018,7168
1659520744.959094,7188
1659520744.998007,7215
1659520745.040506,7245
1659520745.083004,7274
1659520745.121235,7320
1659520745.159466,7332
1659520745.197697,7358
1659520745.239172,7395
1659520745.280646,7421
1659520745.31956,7386
1659520745.358474,7254
1659520745.397388,7098
1659520745.439373,6987
1659520745.481359,6932
1659520745.525394,6881
1659520745.569428,6872
1659520745.613462,6889
1659520745.652718,6901
1659520745.691973,6906
1659520745.731228,6908
1659520745.77219,6914
1659520745.813152,6940
1659520745.851042,6958
1659520745.888932,6992
1659520745.926822,7025
1659520745.967374,7052
1659520746.007927,7087
1659520746.048479,7109
1659520746.089032,7146
1659520746.129584,7145
1659520746.170546,7054
1659520746.211508,6905
1659520746.251105,6802
1659520746.290701,6758
1659520746.330298,6726
1659520746.372284,6705
1659520746.41427,6719
1659520746.453184,6753
1659520746.492098,6767
1659520746.531012,6782
1659520746.569926,6807
1659520746.60884,6832
1659520746.647754,6871
1659520746.689228,6903
1659520746.730702,6933
1659520746.768933,6971
1659520746.807165,7012
1659520746.845396,7050
1659520746.88431,7087
1659520746.923224,7138
1659520746.962138,7167
1659520747.004124,7220
1659520747.04611,7255
1659520747.087072,7210
1659520747.128034,7088
1659520747.166948,6973
1659520747.205862,6918
1659520747.244776,6878
1659520747.287274,6851
1659520747.329772,6855
1659520747.368345,6892
1659520747.406917,6912
1659520747.44549,6928
1659520747.489865,6952
1659520747.534241,6970
1659520747.578616,7006
1659520747.610874,7045
1659520747.643132,7096
1659520747.687166,7136
1659520747.7312,7191
1659520747.775234,7240
1659520747.813807,7280
1659520747.85238,7327
1659520747.890952,7366
1659520747.93345,7402
1659520747.975948,7447
1659520748.01418,7491
1659520748.052411,7537
1659520748.090642,7580
1659520748.129556,7538
1659520748.16847,7407
1659520748.207384,7310
1659520748.24937,7261
1659520748.291356,7225
1659520748.330953,7200
1659520748.370549,7193
1659520748.410146,7209
1659520748.451108,7220
1659520748.49207,7221
1659520748.530984,7237
1659520748.569898,7265
1659520748.608812,7297
1659520748.650798,7318
1659520748.692784,7362
1659520748.731357,7393
1659520748.769929,7435
1659520748.808502,7476
1659520748.849464,7511
1659520748.890426,7557
1659520748.929681,7595
1659520748.968937,7635
1659520749.008192,7671
1659520749.051885,7713
1659520749.095578,7745
1659520749.139271,7694
1659520749.178185,7570
1659520749.217098,7462
1659520749.256012,7418
1659520749.298511,7373
1659520749.341009,7346
1659520749.379923,7348
1659520749.418837,7356
1659520749.457751,7363
1659520749.499225,7366
1659520749.540699,7382
1659520749.580295,7405
1659520749.619892,7454
1659520749.659489,7479
1659520749.69772,7503
1659520749.735951,7540
1659520749.774182,7569
1659520749.81668,7607
1659520749.859179,7649
1659520749.898434,7685
1659520749.937689,7719
1659520749.976944,7756
1659520750.017395,7793
1659520750.057844,7823
1659520750.096417,7798
1659520750.13499,7668
1659520750.173562,7538
1659520750.21606,7467
1659520750.258559,7428
1659520750.296448,7388
1659520750.334338,7378
1659520750.372228,7374
1659520750.413702,7366
1659520750.455176,7365
1659520750.494432,7364
1659520750.533687,7381
1659520750.572942,7397
1659520750.617318,7430
1659520750.661693,7454
1659520750.706069,7468
1659520750.747543,7498
1659520750.789017,7528
1659520750.828614,7561
1659520750.86821,7597
1659520750.907807,7632
1659520750.945697,7666
1659520750.983587,7692
1659520751.021477,7695
1659520751.062439,7601
1659520751.103401,7470
1659520751.141973,7398
1659520751.180546,7361
1659520751.219119,7325
1659520751.260337,7324
1659520751.301555,7327
1659520751.342773,7323
1659520751.383991,7334
1659520751.423246,7341
1659520751.462502,7355
1659520751.501757,7386
1659520751.540671,7416
1659520751.579585,7433
1659520751.618499,7466
1659520751.659973,7496
1659520751.701447,7517
1659520751.740702,7562
1659520751.779957,7596
1659520751.819213,7649
1659520751.858127,7683
1659520751.897041,7722
1659520751.935955,7719
1659520751.977428,7623
1659520752.018903,7502
1659520752.058499,7426
1659520752.098096,7396
1659520752.137692,7367
1659520752.178655,7356
1659520752.219617,7361
1659520752.261091,7375
1659520752.302565,7378
1659520752.341137,7392
1659520752.37971,7415
1659520752.418283,7437
1659520752.463,7463
1659520752.507716,7484
1659520752.552433,7530
1659520752.585715,7548
1659520752.618997,7578
1659520752.663713,7615
1659520752.708431,7648
1659520752.753147,7679
1659520752.786429,7723
1659520752.819711,7757
1659520752.863745,7777
1659520752.907779,7709
1659520752.951813,7571
1659520752.991069,7475
1659520753.030324,7424
1659520753.069579,7370
1659520753.111565,7344
1659520753.153551,7333
1659520753.192124,7347
1659520753.230697,7335
1659520753.269269,7331
1659520753.307842,7330
1659520753.346414,7339
1659520753.384987,7344
1659520753.426973,7356
1659520753.468959,7389
1659520753.507873,7408
1659520753.546787,7440
1659520753.585701,7477
1659520753.626151,7511
1659520753.666601,7532
1659520753.705515,7557
1659520753.744429,7604
1659520753.783343,7636
1659520753.825841,7660
1659520753.868339,7566
1659520753.90657,7412
1659520753.944802,7303
1659520753.983033,7223
1659520754.024507,7179
1659520754.065981,7149
1659520754.105578,7161
1659520754.145174,7161
1659520754.184771,7187
1659520754.228464,7191
1659520754.272157,7207
1659520754.31585,7251
1659520754.357836,7280
1659520754.399822,7311
1659520754.438736,7341
1659520754.47765,7374
1659520754.516564,7403
1659520754.557014,7433
1659520754.597464,7449
1659520754.635695,7472
1659520754.673926,7525
1659520754.712157,7561
1659520754.751754,7604
1659520754.791351,7628
1659520754.830947,7608
1659520754.872421,7502
1659520754.913895,7377
1659520754.952809,7297
1659520754.991723,7255
1659520755.030637,7232
1659520755.073135,7213
1659520755.115633,7223
1659520755.154206,7220
1659520755.192779,7223
1659520755.231351,7236
1659520755.270265,7253
1659520755.309179,7280
1659520755.348093,7301
1659520755.390591,7326
1659520755.433089,7350
1659520755.471321,7380
1659520755.509552,7417
1659520755.547783,7443
1659520755.589257,7471
1659520755.630731,7481
1659520755.669645,7493
1659520755.708559,7508
1659520755.747473,7520
1659520755.789971,7533
1659520755.832469,7491
1659520755.876162,7352
1659520755.919855,7236
1659520755.963548,7166
1659520756.003145,7140
1659520756.042741,7111
1659520756.082338,7122
1659520756.123812,7126
1659520756.165286,7138
1659520756.203859,7159
1659520756.242431,7180
1659520756.281004,7215
1659520756.320601,7245
1659520756.360197,7290
1659520756.399794,7314
1659520756.441268,7359
1659520756.482742,7381
1659520756.52227,7402
1659520756.561799,7440
1659520756.601327,7467
1659520756.640855,7504
1659520756.680384,7543
1659520756.719298,7590
1659520756.758212,7618
1659520756.797126,7579
1659520756.835698,7450
1659520756.874271,7342
1659520756.912843,7294
1659520756.953805,7260
1659520756.994767,7247
1659520757.03334,7247
1659520757.071913,7267
1659520757.110485,7283
1659520757.152471,7299
1659520757.194458,7312
1659520757.233371,7339
1659520757.272285,7381
1659520757.311199,7413
1659520757.352674,7443
1659520757.394147,7477
1659520757.438523,7517
1659520757.482899,7558
1659520757.527274,7583
1659520757.566188,7613
1659520757.605102,7651
1659520757.644016,7683
1659520757.686514,7722
1659520757.729012,7761
1659520757.767243,7795
1659520757.805475,7753
1659520757.843706,7626
1659520757.882279,7513
1659520757.920851,7445
1659520757.959424,7428
1659520758.000386,7404
1659520758.041348,7401
1659520758.080603,7420
1659520758.119859,7423
1659520758.159114,7424
1659520758.200588,7427
1659520758.242062,7451
1659520758.281317,7476
1659520758.320573,7509
1659520758.359828,7524
1659520758.398742,7549
1659520758.437656,7582
1659520758.47657,7607
1659520758.518044,7621
1659520758.559518,7649
1659520758.599114,7681
1659520758.638711,7709
1659520758.678308,7753
1659520758.720294,7768
1659520758.76228,7805
1659520758.805973,7819
1659520758.849666,7732
1659520758.893358,7582
1659520758.92664,7465
1659520758.959922,7405
1659520759.003956,7346
1659520759.04799,7310
1659520759.092024,7297
1659520759.125306,7285
1659520759.158588,7285
1659520759.202963,7268
1659520759.247339,7261
1659520759.291714,7277
1659520759.33097,7281
1659520759.370225,7316
1659520759.40948,7345
1659520759.450442,7378
1659520759.491404,7421
1659520759.530318,7456
1659520759.569232,7496
1659520759.608146,7528
1659520759.650644,7555
1659520759.693142,7590
1659520759.731374,7619
1659520759.769605,7653
1659520759.807836,7689
1659520759.84675,7707
1659520759.885664,7637
1659520759.924578,7486
1659520759.966052,7384
1659520760.007526,7336
1659520760.046099,7311
1659520760.084671,7289
1659520760.123244,7299
1659520760.164718,7307
1659520760.206192,7319
1659520760.244765,7315
1659520760.283337,7323
1659520760.32191,7340
1659520760.362872,7365
1659520760.403834,7389
1659520760.442748,7418
1659520760.481662,7445
1659520760.520576,7471
1659520760.562562,7517
1659520760.604548,7550
1659520760.643121,7574
1659520760.681693,7617
1659520760.720266,7649
1659520760.764642,7690
1659520760.809017,7721
1659520760.853393,7735
1659520760.887698,7637
1659520760.922004,7512
1659520760.966038,7409
1659520761.010072,7360
1659520761.054106,7345
1659520761.092679,7334
1659520761.131252,7352
1659520761.169824,7356
1659520761.211298,7371
1659520761.252773,7373
1659520761.291004,7389
1659520761.329235,7418
1659520761.367466,7444
1659520761.409964,7482
1659520761.452462,7514
1659520761.491718,7558
1659520761.530973,7590
1659520761.570228,7626
1659520761.609142,7661
1659520761.648056,7698
1659520761.68697,7735
1659520761.727113,7777
1659520761.767256,7825
1659520761.807399,7870
1659520761.847542,7877
1659520761.887684,7791
1659520761.93206,7652
1659520761.976435,7557
1659520762.020811,7513
1659520762.059384,7486
1659520762.097956,7464
1659520762.136529,7468
1659520762.179027,7469
1659520762.221525,7459
1659520762.259756,7442
1659520762.297987,7424
1659520762.336219,7435
1659520762.374791,7463
1659520762.413364,7483
1659520762.451936,7522
1659520762.490509,7554
1659520762.529082,7592
1659520762.567654,7634
1659520762.60964,7677
1659520762.651627,7713
1659520762.69054,7753
1659520762.729454,7808
1659520762.768368,7858
1659520762.809842,7918
1659520762.851316,7943
1659520762.890572,7903
1659520762.929827,7773
1659520762.969082,7658
1659520763.010556,7590
1659520763.052031,7551
1659520763.090945,7519
1659520763.129858,7511
1659520763.168772,7542
1659520763.210246,7533
1659520763.25172,7533
1659520763.295413,7545
1659520763.339106,7562
1659520763.382799,7581
1659520763.421372,7608
1659520763.459944,7636
1659520763.498517,7648
1659520763.540503,7695
1659520763.582489,7734
1659520763.621062,7769
1659520763.659634,7815
1659520763.698207,7845
1659520763.737121,7895
1659520763.776035,7918
1659520763.814949,7950
1659520763.856935,7996
1659520763.898921,8017
1659520763.937494,7955
1659520763.976066,7818
1659520764.014639,7699
1659520764.056625,7631
1659520764.098611,7598
1659520764.138207,7550
1659520764.177804,7537
1659520764.217401,7549
1659520764.255291,7539
1659520764.293181,7534
1659520764.33107,7534
1659520764.372545,7559
1659520764.414019,7577
1659520764.452933,7618
1659520764.491847,7631
1659520764.530761,7640
1659520764.572747,7668
1659520764.614733,7683
1659520764.653305,7701
1659520764.691878,7708
1659520764.73045,7722
1659520764.772437,7734
1659520764.814423,7770
1659520764.858798,7804
1659520764.903174,7813
1659520764.947549,7733
1659520764.986122,7575
1659520765.024694,7448
1659520765.063267,7375
1659520765.106277,7309
1659520765.149287,7283
1659520765.188201,7273
1659520765.227115,7267
1659520765.266029,7253
1659520765.306479,7255
1659520765.346929,7250
1659520765.386185,7257
1659520765.42544,7277
1659520765.464695,7285
1659520765.503609,7298
1659520765.542523,7328
1659520765.581437,7348
1659520765.622399,7391
1659520765.663361,7434
1659520765.702275,7487
1659520765.741189,7529
1659520765.780103,7575
1659520765.818334,7606
1659520765.856565,7640
1659520765.894797,7600
1659520765.936783,7488
1659520765.978769,7417
1659520766.018024,7370
1659520766.05728,7350
1659520766.096535,7336
1659520766.137497,7342
1659520766.178459,7353
1659520766.217031,7353
1659520766.255604,7355
1659520766.294177,7361
1659520766.336163,7385
1659520766.378149,7400
1659520766.422866,7420
1659520766.467583,7447
1659520766.5123,7479
1659520766.544557,7509
1659520766.576815,7537
1659520766.62119,7574
1659520766.665566,7600
1659520766.709941,7657
1659520766.748514,7680
1659520766.787087,7710
1659520766.825659,7733
1659520766.867133,7675
1659520766.908607,7540
1659520766.947521,7433
1659520766.986435,7378
1659520767.025349,7335
1659520767.064263,7328
1659520767.103177,7317
1659520767.142091,7318
1659520767.181005,7329
1659520767.219919,7321
1659520767.258833,7336
1659520767.300819,7369
1659520767.342805,7390
1659520767.382402,7426
1659520767.421999,7457
1659520767.461595,7497
1659520767.503581,7526
1659520767.545567,7562
1659520767.583799,7597
1659520767.62203,7633
1659520767.660261,7678
1659520767.704637,7710
1659520767.749012,7741
1659520767.793388,7674
1659520767.83435,7533
1659520767.875312,7404
1659520767.913884,7331
1659520767.952457,7269
1659520767.99103,7222
1659520768.033528,7209
1659520768.076026,7208
1659520768.11494,7214
1659520768.153854,7213
1659520768.192768,7222
1659520768.231682,7254
1659520768.270596,7285
1659520768.30951,7314
1659520768.351496,7346
1659520768.393482,7387
1659520768.432737,7413
1659520768.471992,7437
1659520768.511248,7465
1659520768.552722,7482
1659520768.594196,7507
1659520768.633451,7530
1659520768.672706,7543
1659520768.711962,7504
1659520768.750193,7373
1659520768.788424,7240
1659520768.826655,7148
1659520768.868129,7089
1659520768.909604,7037
1659520768.948859,7034
1659520768.988114,7024
1659520769.027369,7014
1659520769.068331,7014
1659520769.109293,7017
1659520769.147183,7031
1659520769.185073,7043
1659520769.222963,7073
1659520769.265461,7092
1659520769.30796,7130
1659520769.352676,7162
1659520769.397393,7190
1659520769.44211,7235
1659520769.474368,7263
1659520769.506625,7296
1659520769.551342,7328
1659520769.596059,7364
1659520769.640776,7391
1659520769.680031,7380
1659520769.719287,7271
1659520769.758542,7138
1659520769.800016,7056
1659520769.84149,7009
1659520769.880063,6971
1659520769.918635,6974
1659520769.957208,6972
1659520769.99578,6985
1659520770.034353,6991
1659520770.072926,6991
1659520770.113376,7006
1659520770.153826,7018
1659520770.19274,7036
1659520770.231654,7051
1659520770.270568,7084
1659520770.312554,7104
1659520770.35454,7132
1659520770.393112,7153
1659520770.431685,7170
1659520770.470258,7204
1659520770.509513,7223
1659520770.548768,7260
1659520770.588023,7293
1659520770.63001,7323
1659520770.671996,7245
1659520770.71091,7139
1659520770.749824,7070
1659520770.788738,7012
1659520770.830724,6991
1659520770.87271,6955
1659520770.914184,6947
1659520770.955658,6967
1659520770.994231,6966
1659520771.032803,6975
1659520771.071376,6996
1659520771.115751,7012
1659520771.160127,7043
1659520771.204502,7072
1659520771.238296,7094
1659520771.27209,7123
1659520771.316124,7159
1659520771.360158,7177
1659520771.404192,7204
1659520771.443106,7231
1659520771.48202,7251
1659520771.520934,7280
1659520771.56292,7306
1659520771.604906,7298
1659520771.643479,7207
1659520771.682052,7092
1659520771.720624,7025
1659520771.76261,6989
1659520771.804596,6970
1659520771.843852,6956
1659520771.883107,6959
1659520771.922362,6967
1659520771.960593,6962
1659520771.998825,6972
1659520772.037056,6982
1659520772.077506,7012
1659520772.117956,7034
1659520772.157211,7081
1659520772.196467,7100
1659520772.235722,7136
1659520772.27525,7171
1659520772.314779,7197
1659520772.354307,7228
1659520772.393835,7267
1659520772.433364,7305
1659520772.474326,7336
1659520772.515288,7355
1659520772.554543,7295
1659520772.593798,7167
1659520772.633054,7089
1659520772.674528,7040
1659520772.716002,7016
1659520772.754233,6992
1659520772.792464,6997
1659520772.830696,7011
1659520772.872682,7020
1659520772.914668,7035
1659520772.953923,7051
1659520772.993178,7076
1659520773.032434,7108
1659520773.076809,7144
1659520773.121185,7169
1659520773.16556,7195
1659520773.207035,7237
1659520773.248508,7259
1659520773.287422,7289
1659520773.326336,7309
1659520773.36525,7346
1659520773.4057,7378
1659520773.446151,7430
1659520773.485747,7459
1659520773.525344,7414
1659520773.56494,7317
1659520773.603513,7221
1659520773.642086,7182
1659520773.680658,7149
1659520773.722132,7127
1659520773.763606,7122
1659520773.802862,7134
1659520773.842117,7136
1659520773.881372,7129
1659520773.92387,7144
1659520773.966368,7162
1659520774.0046,7188
1659520774.042831,7220
1659520774.081062,7252
1659520774.120659,7290
1659520774.160255,7326
1659520774.199852,7351
1659520774.240814,7393
1659520774.281776,7437
1659520774.320008,7467
1659520774.358239,7508
1659520774.39647,7539
1659520774.438968,7572
1659520774.481466,7590
1659520774.525842,7500
1659520774.570217,7357
1659520774.614593,7251
1659520774.646338,7195
1659520774.678084,7135
1659520774.722801,7115
1659520774.767518,7097
1659520774.812235,7100
1659520774.84654,7105
1659520774.880846,7103
1659520774.925222,7107
1659520774.969597,7129
1659520775.013973,7155
1659520775.052887,7176
1659520775.091801,7206
1659520775.130715,7241
1659520775.172701,7265
1659520775.214687,7306
1659520775.252918,7341
1659520775.291149,7380
1659520775.329381,7407
1659520775.371367,7443
1659520775.413353,7479
1659520775.451926,7515
1659520775.490498,7551
1659520775.529071,7539
1659520775.567302,7430
1659520775.605533,7288
1659520775.643764,7192
1659520775.684726,7132
1659520775.725688,7080
1659520775.764602,7049
1659520775.803516,7045
1659520775.84243,7048
1659520775.881344,7043
1659520775.920258,7041
1659520775.959172,7043
1659520776.000646,7059
1659520776.04212,7073
1659520776.084106,7091
1659520776.126092,7116
1659520776.164665,7145
1659520776.203238,7178
1659520776.24181,7205
1659520776.283796,7235
1659520776.325783,7261
1659520776.365038,7292
1659520776.404293,7326
1659520776.443548,7356
1659520776.487924,7348
1659520776.5323,7251
1659520776.576675,7119
1659520776.609445,7051
1659520776.642214,7009
1659520776.68659,6977
1659520776.730965,6974
1659520776.775341,6979
1659520776.814596,6981
1659520776.853852,6979
1659520776.893107,7007
1659520776.934069,7027
1659520776.975031,7065
1659520777.014286,7083
1659520777.053542,7105
1659520777.092797,7140
1659520777.134271,7158
1659520777.175745,7195
1659520777.215342,7218
1659520777.254938,7245
1659520777.294535,7264
1659520777.333449,7311
1659520777.372363,7326
1659520777.411277,7352
1659520777.453263,7386
1659520777.495249,7343
1659520777.535187,7213
1659520777.575125,7078
1659520777.615063,7006
1659520777.655001,6965
1659520777.694939,6942
1659520777.736413,6941
1659520777.777887,6949
1659520777.81646,6965
1659520777.855032,6965
1659520777.893605,6983
1659520777.931495,6998
1659520777.969385,7013
1659520778.007275,7041
1659520778.050285,7071
1659520778.093295,7097
1659520778.131867,7119
1659520778.17044,7155
1659520778.209013,7185
1659520778.249975,7214
1659520778.290937,7252
1659520778.335312,7285
1659520778.379688,7329
1659520778.424063,7370
1659520778.463319,7384
1659520778.502574,7300
1659520778.541829,7175
1659520778.583303,7098
1659520778.624778,7066
1659520778.663692,7041
1659520778.702605,7036
1659520778.741519,7041
1659520778.782993,7054
1659520778.824467,7056
1659520778.862357,7073
1659520778.900247,7089
1659520778.938137,7116
1659520778.977392,7147
1659520779.016648,7176
1659520779.055903,7214
1659520779.094476,7245
1659520779.133048,7281
1659520779.171621,7307
1659520779.213095,7350
1659520779.254569,7380
1659520779.294166,7424
1659520779.333762,7475
1659520779.373359,7515
1659520779.414833,7507
1659520779.456307,7406
1659520779.494538,7304
1659520779.53277,7249
1659520779.571001,7234
1659520779.613499,7206
1659520779.655997,7199
1659520779.701055,7210
1659520779.746114,7214
1659520779.791172,7218
1659520779.822917,7235
1659520779.854663,7256
1659520779.899039,7288
1659520779.943414,7324
1659520779.98779,7365
1659520780.026704,7404
1659520780.065618,7451
1659520780.104532,7495
1659520780.146518,7524
1659520780.188504,7565
1659520780.227418,7586
1659520780.266332,7616
1659520780.305246,7645
1659520780.347232,7651
1659520780.389218,7580
1659520780.42779,7435
1659520780.466363,7320
1659520780.504936,7260
1659520780.547434,7235
1659520780.589932,7232
1659520780.629187,7266
1659520780.668442,7313
1659520780.707698,7335
1659520780.74627,7372
1659520780.784843,7420
1659520780.823416,7466
1659520780.864377,7521
1659520780.905339,7568
1659520780.944936,7602
1659520780.984533,7634
1659520781.02413,7663
1659520781.062361,7692
1659520781.100592,7732
1659520781.138823,7750
1659520781.179785,7787
1659520781.220747,7823
1659520781.261709,7788
1659520781.302671,7667
1659520781.341927,7560
1659520781.381182,7511
1659520781.420437,7478
1659520781.464472,7462
1659520781.508506,7447
1659520781.55254,7455
1659520781.585822,7464
1659520781.619103,7469
1659520781.663479,7481
1659520781.707854,7500
1659520781.75223,7537
1659520781.786024,7565
1659520781.819817,7613
1659520781.864534,7645
1659520781.909251,7683
1659520781.953968,7725
1659520781.992541,7758
1659520782.031113,7797
1659520782.069686,7842
1659520782.110648,7891
1659520782.15161,7920
1659520782.190182,7876
1659520782.228755,7734
1659520782.267328,7602
1659520782.309314,7550
1659520782.3513,7504
1659520782.390214,7484
1659520782.429128,7460
1659520782.468042,7466
1659520782.506273,7456
1659520782.544504,7452
1659520782.582736,7450
1659520782.625234,7461
1659520782.667732,7498
1659520782.706304,7524
1659520782.744877,7552
1659520782.783449,7567
1659520782.825436,7586
1659520782.867422,7616
1659520782.909408,7630
1659520782.951394,7658
1659520782.990649,7678
1659520783.029905,7706
1659520783.06916,7730
1659520783.111146,7712
1659520783.153132,7570
1659520783.192046,7400
1659520783.23096,7296
1659520783.269874,7221
1659520783.308446,7172
1659520783.347019,7138
1659520783.385592,7125
1659520783.426042,7113
1659520783.466492,7098
1659520783.50899,7087
1659520783.551488,7087
1659520783.590402,7109
1659520783.629316,7127
1659520783.66823,7145
1659520783.709192,7168
1659520783.750154,7178
1659520783.789068,7202
1659520783.827982,7219
1659520783.866896,7232
1659520783.911613,7246
1659520783.95633,7278
1659520784.001046,7303
1659520784.033816,7329
1659520784.066586,7335
1659520784.110961,7199
1659520784.155337,7059
1659520784.199712,6973
1659520784.238626,6918
1659520784.27754,6889
1659520784.316454,6869
1659520784.356904,6887
1659520784.397354,6886
1659520784.435927,6899
1659520784.474499,6910
1659520784.513072,6922
1659520784.55557,6953
1659520784.598068,6978
1659520784.635958,7023
1659520784.673848,7044
1659520784.711738,7066
1659520784.750652,7090
1659520784.789566,7138
1659520784.82848,7171
1659520784.870466,7201
1659520784.912452,7231
1659520784.951025,7274
1659520784.989597,7318
1659520785.02817,7338
1659520785.070156,7280
1659520785.112142,7147
1659520785.151397,7049
1659520785.190653,7003
1659520785.229908,6953
1659520785.270358,6943
1659520785.310808,6940
1659520785.349039,6962
1659520785.38727,6957
1659520785.425502,6953
1659520785.468,6972
1659520785.510498,6982
1659520785.549071,7008
1659520785.587643,7032
1659520785.626216,7058
1659520785.670591,7090
1659520785.714967,7125
1659520785.759342,7159
1659520785.800817,7190
1659520785.842291,7237
1659520785.881204,7276
1659520785.920118,7315
1659520785.959032,7364
1659520786.001019,7403
1659520786.043005,7404
1659520786.08226,7297
1659520786.121515,7170
1659520786.16077,7098
1659520786.199684,7064
1659520786.238598,7034
1659520786.277512,7006
1659520786.318986,7019
1659520786.360461,7010
1659520786.400057,7009
1659520786.439654,7023
1659520786.47925,7054
1659520786.520725,7080
1659520786.562199,7096
1659520786.60043,7126
1659520786.638661,7138
1659520786.676892,7168
1659520786.715465,7187
1659520786.754037,7211
1659520786.79261,7243
1659520786.835108,7279
1659520786.877606,7313
1659520786.916179,7332
1659520786.954751,7364
1659520786.993324,7384
1659520787.034798,7407
1659520787.076272,7363
1659520787.115528,7230
1659520787.154783,7119
1659520787.194038,7045
1659520787.236024,7017
1659520787.27801,6974
1659520787.322045,6951
1659520787.366079,6967
1659520787.410113,6958
1659520787.443395,6947
1659520787.476676,6942
1659520787.52071,6959
1659520787.564745,6980
1659520787.608779,7010
1659520787.647352,7028
1659520787.685924,7044
1659520787.724497,7077
1659520787.765971,7106
1659520787.807445,7132
1659520787.846359,7157
1659520787.885273,7191
1659520787.924187,7226
1659520787.962077,7265
1659520787.999966,7223
1659520788.037856,7096
1659520788.078204,7006
1659520788.118551,6953
1659520788.158899,6921
1659520788.199247,6907
1659520788.239594,6908
1659520788.277826,6918
1659520788.316057,6924
1659520788.354288,6935
1659520788.397298,6940
1659520788.440309,6974
1659520788.479223,7003
1659520788.518137,7032
1659520788.55705,7073
1659520788.5975,7098
1659520788.63795,7134
1659520788.682667,7166
1659520788.727384,7196
1659520788.772101,7239
1659520788.811015,7271
1659520788.849929,7254
1659520788.888843,7143
1659520788.930829,7039
1659520788.972815,6974
1659520789.011729,6941
1659520789.050643,6933
1659520789.089557,6940
1659520789.131031,6958
1659520789.172505,6968
1659520789.210736,6975
1659520789.248968,6980
1659520789.287199,7017
1659520789.327137,7053
1659520789.367075,7078
1659520789.407013,7124
1659520789.448487,7152
1659520789.489961,7192
1659520789.528534,7223
1659520789.567106,7252
1659520789.605679,7303
1659520789.647665,7334
1659520789.689651,7381
1659520789.729248,7413
1659520789.768844,7441
1659520789.808441,7359
1659520789.846672,7232
1659520789.884903,7134
1659520789.923135,7081
1659520789.964097,7052
1659520790.005059,7032
1659520790.043973,7044
1659520790.082887,7073
1659520790.121801,7068
1659520790.163275,7085
1659520790.204749,7112
1659520790.249124,7145
1659520790.2935,7185
1659520790.337875,7224
1659520790.371157,7266
1659520790.404439,7308
1659520790.448473,7352
1659520790.492507,7389
1659520790.536541,7424
1659520790.570335,7470
1659520790.604129,7508
1659520790.648846,7542
1659520790.693563,7579
1659520790.738279,7621
1659520790.776852,7599
1659520790.815425,7490
1659520790.853997,7337
1659520790.894959,7247
1659520790.935921,7200
1659520790.974835,7149
1659520791.013749,7133
1659520791.052663,7138
1659520791.090894,7145
1659520791.129126,7132
1659520791.167357,7141
1659520791.208831,7162
1659520791.250305,7193
1659520791.289219,7226
1659520791.328133,7254
1659520791.367047,7294
1659520791.408521,7313
1659520791.449995,7351
1659520791.488909,7387
1659520791.527823,7419
1659520791.566737,7454
1659520791.605992,7483
1659520791.645247,7526
1659520791.684503,7562
1659520791.727001,7554
1659520791.769499,7436
1659520791.810973,7300
1659520791.852447,7229
1659520791.890678,7184
1659520791.92891,7159
1659520791.967141,7157
1659520792.009639,7168
1659520792.052137,7172
1659520792.091666,7176
1659520792.131194,7190
1659520792.170722,7216
1659520792.210251,7247
1659520792.249779,7292
1659520792.289034,7324
1659520792.32829,7369
1659520792.367545,7392
1659520792.410043,7422
1659520792.452541,7467
1659520792.496234,7494
1659520792.539927,7529
1659520792.58362,7575
1659520792.617414,7617
1659520792.651207,7658
1659520792.695583,7666
1659520792.739958,7544
1659520792.784334,7400
1659520792.817616,7323
1659520792.850897,7267
1659520792.895614,7226
1659520792.940331,7206
1659520792.985048,7213
1659520793.024303,7212
1659520793.063558,7225
1659520793.102814,7215
1659520793.143264,7237
1659520793.183714,7268
1659520793.222286,7300
1659520793.260859,7340
1659520793.299432,7375
1659520793.339165,7412
1659520793.378898,7442
1659520793.418631,7491
1659520793.458364,7515
1659520793.498097,7546
1659520793.53906,7597
1659520793.580022,7631
1659520793.619277,7676
1659520793.658532,7644
1659520793.697788,7519
1659520793.736019,7399
1659520793.77425,7335
1659520793.812481,7295
1659520793.854979,7272
1659520793.897477,7275
1659520793.936391,7284
1659520793.975305,7293
1659520794.014219,7286
1659520794.055693,7289
1659520794.097167,7323
1659520794.135399,7351
1659520794.17363,7382
1659520794.211861,7412
1659520794.254359,7445
1659520794.296857,7487
1659520794.335089,7525
1659520794.37332,7564
1659520794.411551,7599
1659520794.455585,7645
1659520794.499619,7684
1659520794.543654,7726
1659520794.576936,7741
1659520794.610217,7636
1659520794.654593,7486
1659520794.698968,7390
1659520794.743344,7331
1659520794.784818,7283
1659520794.826292,7252
1659520794.865889,7259
1659520794.905485,7263
1659520794.945082,7260
1659520794.983654,7253
1659520795.022227,7273
1659520795.0608,7305
1659520795.102786,7333
1659520795.144772,7361
1659520795.184369,7380
1659520795.223965,7415
1659520795.263562,7446
1659520795.305036,7495
1659520795.34651,7522
1659520795.384741,7556
1659520795.422972,7606
1659520795.461204,7651
1659520795.500118,7692
1659520795.539032,7715
1659520795.577945,7641
1659520795.619932,7485
1659520795.661918,7377
1659520795.70049,7325
1659520795.739063,7281
1659520795.777636,7254
1659520795.818598,7260
1659520795.85956,7285
1659520795.898815,7275
1659520795.93807,7268
1659520795.977325,7257
1659520796.0188,7274
1659520796.060274,7283
1659520796.099188,7305
1659520796.138102,7341
1659520796.177016,7379
1659520796.221391,7418
1659520796.265767,7444
1659520796.310142,7476
1659520796.351616,7520
1659520796.39309,7558
1659520796.431663,7599
1659520796.470236,7633
1659520796.508808,7673
1659520796.551306,7646
1659520796.593804,7549
1659520796.632035,7407
1659520796.670267,7328
1659520796.708498,7288
1659520796.747071,7242
1659520796.785643,7234
1659520796.824216,7250
1659520796.865178,7247
1659520796.90614,7242
1659520796.945054,7259
1659520796.983968,7276
1659520797.022882,7301
1659520797.061113,7342
1659520797.099344,7368
1659520797.137576,7409
1659520797.180586,7452
1659520797.223596,7488
1659520797.262168,7516
1659520797.300741,7557
1659520797.339314,7596
1659520797.380276,7633
1659520797.421238,7679
1659520797.460493,7712
1659520797.499748,7659
1659520797.539004,7521
1659520797.58099,7376
1659520797.622976,7307
1659520797.666669,7241
1659520797.710361,7194
1659520797.754054,7174
1659520797.787336,7170
1659520797.820618,7176
1659520797.864993,7161
1659520797.909369,7177
1659520797.953744,7191
1659520797.992317,7219
1659520798.03089,7262
1659520798.069462,7289
1659520798.11196,7333
1659520798.154459,7364
1659520798.194055,7386
1659520798.233652,7422
1659520798.273248,7458
1659520798.31421,7503
1659520798.355172,7534
1659520798.394428,7583
1659520798.433683,7619
1659520798.472938,7593
1659520798.515436,7460
1659520798.557935,7331
1659520798.597053,7265
1659520798.636172,7215
1659520798.675291,7166
1659520798.71441,7147
1659520798.753528,7155
1659520798.792784,7145
1659520798.832039,7143
1659520798.871294,7139
1659520798.910208,7143
1659520798.949122,7171
1659520798.988036,7187
1659520799.02951,7216
1659520799.070984,7244
1659520799.109898,7254
1659520799.148812,7273
1659520799.187726,7298
1659520799.228688,7324
1659520799.26965,7351
1659520799.308906,7392
1659520799.348161,7434
1659520799.387416,7450
1659520799.429402,7374
1659520799.471388,7209
1659520799.509961,7097
1659520799.548533,7041
1659520799.587106,7002
1659520799.62858,6977
1659520799.670054,6984
1659520799.709651,7002
1659520799.749248,7000
1659520799.788844,7022
1659520799.832878,7026
1659520799.876913,7053
1659520799.920947,7081
1659520799.961397,7106
1659520800.001847,7141
1659520800.040761,7163
1659520800.079675,7194
1659520800.118589,7237
1659520800.15682,7267
1659520800.195051,7311
1659520800.233282,7355
1659520800.275269,7396
1659520800.317255,7431
1659520800.35651,7437
1659520800.395765,7347
1659520800.43502,7179
1659520800.473934,7079
1659520800.512848,7026
1659520800.551762,6981
1659520800.592724,6947
1659520800.633687,6960
1659520800.672942,6977
1659520800.712197,6982
1659520800.751452,6988
1659520800.793438,7017
1659520800.835424,7043
1659520800.873997,7076
1659520800.91257,7105
1659520800.951142,7132
1659520800.992616,7174
1659520801.034091,7203
1659520801.073004,7241
1659520801.111918,7287
1659520801.150832,7329
1659520801.194525,7368
1659520801.238218,7417
1659520801.281911,7450
1659520801.315705,7427
1659520801.349498,7286
1659520801.394215,7174
1659520801.438932,7124
1659520801.483649,7086
1659520801.525635,7068
1659520801.567621,7066
1659520801.606535,7084
1659520801.645449,7077
1659520801.684363,7085
1659520801.726861,7085
1659520801.769359,7113
1659520801.808273,7147
1659520801.847187,7191
1659520801.886101,7229
1659520801.925015,7260
1659520801.963929,7310
1659520802.002843,7342
1659520802.044317,7396
1659520802.085791,7430
1659520802.124364,7475
1659520802.162936,7533
1659520802.201509,7568
1659520802.243495,7543
1659520802.285481,7392
1659520802.324395,7253
1659520802.363309,7160
1659520802.402223,7103
1659520802.440454,7055
1659520802.478685,7039
1659520802.516917,7061
1659520802.557879,7065
1659520802.598841,7078
1659520802.638779,7096
1659520802.678717,7121
1659520802.718655,7157
1659520802.759617,7198
1659520802.800579,7240
1659520802.83881,7280
1659520802.877041,7326
1659520802.915272,7363
1659520802.957259,7394
1659520802.999245,7444
1659520803.04362,7485
1659520803.087996,7541
1659520803.132371,7577
1659520803.165141,7555
1659520803.197911,7410
1659520803.242286,7290
1659520803.286662,7201
1659520803.331037,7133
1659520803.369951,7088
1659520803.408865,7078
1659520803.447779,7070
1659520803.485669,7062
1659520803.523559,7056
1659520803.561449,7077
1659520803.603947,7101
1659520803.646445,7126
1659520803.685359,7167
1659520803.724273,7200
1659520803.763187,7228
1659520803.803125,7277
1659520803.843063,7318
1659520803.883001,7359
1659520803.922939,7406
1659520803.962877,7440
1659520804.002132,7461
1659520804.041388,7419
1659520804.080643,7250
1659520804.124336,7104
1659520804.168029,7035
1659520804.211721,6991
1659520804.250977,6955
1659520804.290232,6972
1659520804.329487,6975
1659520804.371473,6986
1659520804.41346,6999
1659520804.451691,7013
1659520804.489922,7050
1659520804.528153,7087
1659520804.567067,7140
1659520804.605981,7187
1659520804.644895,7228
1659520804.686881,7283
1659520804.728867,7322
1659520804.767781,7375
1659520804.806695,7414
1659520804.845609,7460
1659520804.887595,7491
1659520804.929581,7511
1659520804.968495,7472
1659520805.007409,7316
1659520805.046323,7153
1659520805.085237,7049
1659520805.124151,6988
1659520805.163065,6943
1659520805.205051,6927
1659520805.247037,6948
1659520805.289023,6958
1659520805.331009,6967
1659520805.369241,6984
1659520805.407472,7012
1659520805.445703,7042
1659520805.490079,7075
1659520805.534454,7109
1659520805.57883,7153
1659520805.612112,7204
1659520805.645393,7239
1659520805.689427,7282
1659520805.733462,7328
1659520805.777496,7361
1659520805.816068,7416
1659520805.854641,7444
1659520805.893214,7454
1659520805.9352,7358
1659520805.977186,7200
1659520806.015758,7094
1659520806.054331,7045
1659520806.092904,7011
1659520806.13489,7001
1659520806.176876,7031
1659520806.215448,7029
1659520806.254021,7025
1659520806.292593,7044
1659520806.331849,7068
1659520806.371104,7093
1659520806.410359,7126
1659520806.450809,7166
1659520806.491259,7192
1659520806.529832,7252
1659520806.568405,7299
1659520806.606977,7341
1659520806.649475,7396
1659520806.691973,7446
1659520806.729863,7499
1659520806.767753,7544
1659520806.805643,7567
1659520806.847117,7464
1659520806.888591,7293
1659520806.927847,7175
1659520806.967102,7096
1659520807.006357,7049
1659520807.050391,6996
1659520807.094426,6987
1659520807.13846,6981
1659520807.172765,6967
1659520807.207071,6965
1659520807.251788,6986
1659520807.296505,7010
1659520807.341222,7046
1659520807.373991,7091
1659520807.406761,7128
1659520807.451137,7180
1659520807.495512,7217
1659520807.539888,7259
1659520807.582898,7312
1659520807.625908,7335
1659520807.66414,7358
1659520807.702371,7375
1659520807.740602,7409
1659520807.779175,7396
1659520807.817747,7288
1659520807.85632,7146
1659520807.898306,7050
1659520807.940292,7008
1659520807.978523,6969
1659520808.016754,6945
1659520808.054986,6953
1659520808.096972,6957
1659520808.138958,6938
1659520808.178555,6931
1659520808.218151,6945
1659520808.257748,6961
1659520808.295979,6983
1659520808.33421,7017
1659520808.372442,7034
1659520808.414428,7066
1659520808.456414,7098
1659520808.49601,7121
1659520808.535607,7159
1659520808.575204,7195
1659520808.615654,7230
1659520808.656104,7266
1659520808.694335,7281
1659520808.732566,7177
1659520808.770797,7080
1659520808.812272,7005
1659520808.853746,6972
1659520808.89778,6955
1659520808.941814,6951
1659520808.985848,6961
1659520809.024591,6956
1659520809.063335,6956
1659520809.102078,6952
1659520809.140821,6976
1659520809.179564,6992
1659520809.218308,7018
1659520809.256881,7048
1659520809.295453,7077
1659520809.334026,7107
1659520809.3755,7135
1659520809.416974,7155
1659520809.456229,7188
1659520809.495484,7212
1659520809.53474,7245
1659520809.576214,7280
1659520809.617688,7286
1659520809.656602,7206
1659520809.695516,7079
1659520809.73443,6999
1659520809.775904,6960
1659520809.817378,6935
1659520809.85595,6925
1659520809.894523,6932
1659520809.933096,6951
1659520809.975082,6945
1659520810.017068,6946
1659520810.055982,6945
1659520810.094896,6968
1659520810.13381,6990
1659520810.177844,7018
1659520810.221878,7050
1659520810.265912,7078
1659520810.299194,7111
1659520810.332476,7132
1659520810.377192,7167
1659520810.421909,7206
1659520810.466626,7236
1659520810.50554,7276
1659520810.544454,7304
1659520810.583368,7269
1659520810.625354,7154
1659520810.66734,7077
1659520810.706596,7026
1659520810.745851,6996
1659520810.785106,6983
1659520810.826068,6977
1659520810.86703,6983
1659520810.905944,6966
1659520810.944858,6968
1659520810.983772,6964
1659520811.023027,6997
1659520811.062283,7021
1659520811.101538,7050
1659520811.143012,7097
1659520811.184486,7130
1659520811.223059,7156
1659520811.261631,7186
1659520811.300204,7211
1659520811.341678,7254
1659520811.383152,7292
1659520811.42309,7319
1659520811.463028,7262
1659520811.502966,7140
1659520811.54444,7033
1659520811.585914,6970
1659520811.624146,6934
1659520811.662377,6904
1659520811.700608,6899
1659520811.745325,6909
1659520811.790042,6904
1659520811.834759,6902
1659520811.868552,6900
1659520811.902346,6912
1659520811.946722,6929
1659520811.991097,6962
1659520812.035473,6990
1659520812.075923,7032
1659520812.116373,7062
1659520812.155287,7096
1659520812.194201,7132
1659520812.233115,7171
1659520812.271005,7209
1659520812.308894,7246
1659520812.346784,7283
1659520812.389282,7265
1659520812.431781,7152
1659520812.470353,7015
1659520812.508926,6947
1659520812.547498,6923
1659520812.586071,6893
1659520812.624644,6888
1659520812.663216,6904
1659520812.705714,6917
1659520812.748212,6923
1659520812.786785,6940
1659520812.825358,6968
1659520812.86393,7002
1659520812.905404,7037
1659520812.946878,7053
1659520812.986475,7085
1659520813.026072,7114
1659520813.065668,7142
1659520813.10663,7169
1659520813.147592,7196
1659520813.185824,7234
1659520813.224055,7273
1659520813.262286,7323
1659520813.304784,7315
1659520813.347282,7226
1659520813.391999,7110
1659520813.436716,7041
1659520813.481433,7006
1659520813.519323,6980
1659520813.557213,6984
1659520813.595103,6988
1659520813.637089,6998
1659520813.679075,6996
1659520813.71833,6997
1659520813.757586,7019
1659520813.796841,7043
1659520813.838827,7083
1659520813.880813,7097
1659520813.920069,7121
1659520813.959324,7147
1659520813.998579,7180
1659520814.037834,7206
1659520814.07709,7241
1659520814.116345,7283
1659520814.156795,7323
1659520814.197245,7367
1659520814.23633,7365
1659520814.275414,7249
1659520814.314499,7119
1659520814.353583,7034
1659520814.392668,6999
1659520814.431753,6962
1659520814.472203,6954
1659520814.512653,6951
1659520814.551225,6957
1659520814.589798,6931
1659520814.628371,6923
1659520814.673087,6941
1659520814.717804,6952
1659520814.762521,6974
1659520814.795803,6990
1659520814.829085,7010
1659520814.87346,7026
1659520814.917836,7042
1659520814.962211,7060
1659520815.001125,7074
1659520815.040039,7111
1659520815.078953,7143
1659520815.119915,7168
1659520815.160877,7140
1659520815.199791,7011
1659520815.238705,6902
1659520815.277619,6842
1659520815.320117,6813
1659520815.362615,6782
1659520815.400846,6798
1659520815.439078,6814
1659520815.477309,6821
1659520815.515882,6822
1659520815.554454,6831
1659520815.593027,6864
1659520815.634501,6890
1659520815.675975,6928
1659520815.714889,6960
1659520815.753803,7006
1659520815.792717,7035
1659520815.834191,7080
1659520815.875665,7112
1659520815.914579,7138
1659520815.953493,7182
1659520815.992407,7213
1659520816.034393,7254
1659520816.076379,7257
1659520816.11461,7175
1659520816.152841,7054
1659520816.191073,6983
1659520816.23579,6950
1659520816.280506,6931
1659520816.325223,6926
1659520816.367209,6946
1659520816.409196,6960
1659520816.447768,6966
1659520816.486341,6975
1659520816.524913,6987
1659520816.563827,7023
1659520816.602741,7050
1659520816.641655,7072
1659520816.683129,7106
1659520816.724603,7131
1659520816.763176,7155
1659520816.801749,7189
1659520816.840321,7211
1659520816.882307,7249
1659520816.924293,7298
1659520816.96389,7332
1659520817.003487,7335
1659520817.043083,7269
1659520817.081315,7141
1659520817.119546,7050
1659520817.157777,7020
1659520817.199763,6995
1659520817.241749,6987
1659520817.281687,6996
1659520817.321625,7007
1659520817.361563,7007
1659520817.402525,7012
1659520817.443487,7025
1659520817.48206,7056
1659520817.520633,7084
1659520817.559205,7121
1659520817.600679,7146
1659520817.642153,7182
1659520817.680726,7207
1659520817.719298,7239
1659520817.757871,7264
1659520817.798833,7295
1659520817.839795,7342
1659520817.884171,7378
1659520817.928546,7413
1659520817.972922,7373
1659520818.011494,7246
1659520818.050067,7140
1659520818.088639,7100
1659520818.129602,7049
1659520818.170564,7019
1659520818.210502,7017
1659520818.25044,7027
1659520818.290378,7020
1659520818.33134,7020
1659520818.372302,7035
1659520818.410874,7036
1659520818.449447,7072
1659520818.488019,7089
1659520818.526933,7113
1659520818.565847,7140
1659520818.604761,7162
1659520818.646748,7189
1659520818.688734,7223
1659520818.726965,7252
1659520818.765196,7293
1659520818.803427,7331
1659520818.842341,7366
1659520818.881255,7331
1659520818.920169,7207
1659520818.961131,7086
1659520819.002093,7045
1659520819.040324,7001
1659520819.078556,6979
1659520819.116787,6977
1659520819.159285,6993
1659520819.201783,7000
1659520819.240697,7001
1659520819.279611,7020
1659520819.318525,7045
1659520819.359999,7093
1659520819.401473,7115
1659520819.446532,7142
1659520819.49159,7194
1659520819.536648,7228
1659520819.574282,7260
1659520819.611916,7293
1659520819.64955,7332
1659520819.687184,7370
1659520819.725756,7420
1659520819.764329,7435
1659520819.802901,7351
1659520819.845399,7223
1659520819.887897,7129
1659520819.92647,7081
1659520819.965043,7045
1659520820.003615,7030
1659520820.044577,7028
1659520820.08554,7043
1659520820.130256,7043
1659520820.174973,7037
1659520820.21969,7056
1659520820.257921,7082
1659520820.296153,7110
1659520820.334384,7144
1659520820.37637,7177
1659520820.418356,7212
1659520820.457611,7244
1659520820.496867,7284
1659520820.536122,7319
1659520820.577596,7349
1659520820.61907,7379
1659520820.657984,7407
1659520820.696898,7435
1659520820.735812,7387
1659520820.774384,7269
1659520820.812957,7156
1659520820.85153,7097
1659520820.894028,7065
1659520820.936526,7024
1659520820.974757,7002
1659520821.012989,6997
1659520821.05122,7001
1659520821.089792,6991
1659520821.128365,6999
1659520821.166938,7022
1659520821.208412,7055
1659520821.249886,7106
1659520821.288117,7137
1659520821.326348,7176
1659520821.364579,7219
1659520821.406565,7267
1659520821.448552,7292
1659520821.488148,7330
1659520821.527745,7366
1659520821.567342,7406
1659520821.608304,7435
1659520821.649266,7414
1659520821.693641,7295
1659520821.738017,7186
1659520821.782392,7130
1659520821.816698,7099
1659520821.851004,7077
1659520821.894697,7081
1659520821.93839,7100
1659520821.982082,7120
1659520822.020314,7119
1659520822.058545,7138
1659520822.096776,7164
1659520822.138762,7202
1659520822.180748,7236
1659520822.21898,7263
1659520822.257211,7294
1659520822.295442,7331
1659520822.337428,7354
1659520822.379414,7378
1659520822.418669,7418
1659520822.457925,7436
1659520822.49718,7464
1659520822.535753,7495
1659520822.574325,7501
1659520822.612898,7423
1659520822.654372,7304
1659520822.695846,7245
1659520822.735784,7222
1659520822.775722,7213
1659520822.81566,7230
1659520822.857134,7245
1659520822.898608,7266
1659520822.937522,7266
1659520822.976436,7270
1659520823.01535,7288
1659520823.056824,7307
1659520823.098298,7320
1659520823.137895,7329
1659520823.177491,7353
1659520823.217088,7359
1659520823.257538,7386
1659520823.297988,7409
1659520823.336902,7430
1659520823.375816,7466
1659520823.41473,7508
1659520823.459105,7539
1659520823.503481,7558
1659520823.547857,7471
1659520823.581138,7337
1659520823.61442,7243
1659520823.659137,7188
1659520823.703854,7141
1659520823.748571,7108
1659520823.781852,7102
1659520823.815134,7101
1659520823.859168,7101
1659520823.903203,7098
1659520823.947237,7106
1659520823.986492,7132
1659520824.025747,7159
1659520824.065002,7181
1659520824.106989,7219
1659520824.148975,7245
1659520824.187206,7266
1659520824.225437,7304
1659520824.263669,7323
1659520824.304631,7348
1659520824.345592,7378
1659520824.384165,7413
1659520824.422738,7443
1659520824.46131,7454
1659520824.499542,7369
1659520824.537773,7250
1659520824.576004,7183
1659520824.61799,7143
1659520824.659976,7122
1659520824.69889,7112
1659520824.737804,7123
1659520824.776718,7134
1659520824.816656,7139
1659520824.856594,7148
1659520824.896532,7159
1659520824.93647,7197
1659520824.976408,7230
1659520825.018906,7274
1659520825.061404,7311
1659520825.10066,7340
1659520825.139915,7388
1659520825.17917,7419
1659520825.220132,7452
1659520825.261094,7495
1659520825.30547,7534
1659520825.349845,7581
1659520825.394221,7632
1659520825.428015,7659
1659520825.461808,7589
1659520825.505501,7498
1659520825.549194,7407
1659520825.592887,7379
1659520825.631801,7373
1659520825.670715,7362
1659520825.709629,7367
1659520825.750591,7375
1659520825.791553,7365
1659520825.830467,7355
1659520825.869381,7381
1659520825.908295,7391
1659520825.950793,7412
1659520825.993291,7447
1659520826.032546,7469
1659520826.071802,7491
1659520826.111057,7517
1659520826.149629,7547
1659520826.188202,7575
1659520826.226775,7626
1659520826.268249,7656
1659520826.309723,7679
1659520826.348978,7643
1659520826.388233,7510
1659520826.427489,7407
1659520826.468963,7334
1659520826.510437,7303
1659520826.548668,7278
1659520826.586899,7288
1659520826.625131,7302
1659520826.664386,7304
1659520826.703641,7305
1659520826.742897,7304
1659520826.783346,7336
1659520826.823797,7357
1659520826.865271,7379
1659520826.906745,7419
1659520826.946341,7442
1659520826.985938,7475
1659520827.025535,7495
1659520827.069569,7535
1659520827.113603,7569
1659520827.157637,7621
1659520827.190407,7656
1659520827.223176,7692
1659520827.268235,7674
1659520827.313293,7557
1659520827.358351,7421
1659520827.391633,7348
1659520827.424915,7308
1659520827.468607,7276
1659520827.5123,7271
1659520827.555993,7281
1659520827.595248,7274
1659520827.634504,7279
1659520827.673759,7282
1659520827.714209,7303
1659520827.754659,7337
1659520827.793232,7362
1659520827.831804,7398
1659520827.870377,7431
1659520827.909291,7466
1659520827.948205,7502
1659520827.987119,7525
1659520828.028593,7548
1659520828.070067,7589
1659520828.108639,7612
1659520828.147212,7636
1659520828.185785,7649
1659520828.228283,7567
1659520828.270781,7431
1659520828.309695,7339
1659520828.348609,7293
1659520828.387523,7261
1659520828.428485,7260
1659520828.469447,7270
1659520828.508702,7273
1659520828.547957,7275
1659520828.587213,7272
1659520828.629711,7298
1659520828.672209,7325
1659520828.71044,7359
1659520828.748672,7390
1659520828.786903,7430
1659520828.83162,7460
1659520828.876337,7484
1659520828.921053,7517
1659520828.962528,7545
1659520829.004002,7576
1659520829.042233,7606
1659520829.080464,7646
1659520829.118695,7643
1659520829.157951,7547
1659520829.197206,7395
1659520829.236461,7293
1659520829.278959,7241
1659520829.321457,7205
1659520829.36003,7186
1659520829.398603,7195
1659520829.437175,7201
1659520829.478649,7207
1659520829.520123,7209
1659520829.559379,7218
1659520829.598634,7239
1659520829.637889,7273
1659520829.676121,7302
1659520829.714352,7322
1659520829.752583,7359
1659520829.794569,7383
1659520829.836555,7423
1659520829.875469,7458
1659520829.914383,7500
1659520829.953297,7541
1659520829.994259,7582
1659520830.035221,7593
1659520830.075159,7503
1659520830.115097,7378
1659520830.155035,7306
1659520830.194973,7265
1659520830.234911,7237
1659520830.274166,7226
1659520830.313422,7244
1659520830.352677,7245
1659520830.393639,7235
1659520830.434601,7248
1659520830.479318,7264
1659520830.524035,7289
1659520830.568752,7314
1659520830.607666,7351
1659520830.64658,7385
1659520830.685494,7439
1659520830.726968,7464
1659520830.768442,7490
1659520830.807014,7530
1659520830.845587,7568
1659520830.88416,7605
1659520830.925122,7629
1659520830.966084,7599
1659520831.004656,7461
1659520831.043229,7344
1659520831.081801,7269
1659520831.121057,7221
1659520831.160312,7195
1659520831.199567,7186
1659520831.241041,7191
1659520831.282516,7192
1659520831.321088,7197
1659520831.359661,7206
1659520831.398233,7225
1659520831.437489,7255
1659520831.476744,7290
1659520831.515999,7332
1659520831.558497,7354
1659520831.600996,7399
1659520831.639227,7420
1659520831.677458,7450
1659520831.715689,7489
1659520831.757675,7527
1659520831.799661,7568
1659520831.838575,7609
1659520831.877489,7594
1659520831.916403,7476
1659520831.958389,7360
1659520832.000376,7280
1659520832.04441,7235
1659520832.088444,7218
1659520832.132478,7213
1659520832.16576,7221
1659520832.199041,7236
1659520832.243417,7243
1659520832.287792,7252
1659520832.332168,7280
1659520832.370399,7303
1659520832.408631,7338
1659520832.446862,7370
1659520832.489872,7400
1659520832.532882,7429
1659520832.571796,7458
1659520832.61071,7484
1659520832.649624,7520
1659520832.690586,7555
1659520832.731548,7601
1659520832.771145,7621
1659520832.810741,7553
1659520832.850338,7428
1659520832.892324,7330
1659520832.93431,7286
1659520832.972883,7250
1659520833.011455,7233
1659520833.050028,7244
1659520833.088942,7269
1659520833.127856,7271
1659520833.16677,7279
1659520833.207732,7297
1659520833.248694,7326
1659520833.286925,7361
1659520833.325156,7391
1659520833.363388,7421
1659520833.405886,7460
1659520833.448384,7493
1659520833.486615,7524
1659520833.524846,7553
1659520833.563078,7589
1659520833.60404,7625
1659520833.645002,7671
1659520833.683916,7700
1659520833.72283,7657
1659520833.761744,7530
1659520833.804242,7407
1659520833.84674,7349
1659520833.885312,7303
1659520833.923885,7265
1659520833.962458,7259
1659520834.007174,7276
1659520834.051891,7281
1659520834.096608,7273
1659520834.128866,7292
1659520834.161124,7320
1659520834.205158,7355
1659520834.249192,7384
1659520834.293226,7421
1659520834.33214,7457
1659520834.371054,7492
1659520834.409968,7526
1659520834.452466,7557
1659520834.494964,7595
1659520834.533195,7630
1659520834.571427,7684
1659520834.609658,7712
1659520834.651644,7731
1659520834.69363,7651
1659520834.732886,7507
1659520834.772141,7408
1659520834.811396,7355
1659520834.853382,7332
1659520834.895368,7312
1659520834.934282,7325
1659520834.973196,7336
1659520835.01211,7330
1659520835.051365,7348
1659520835.090621,7354
1659520835.129876,7380
1659520835.171862,7409
1659520835.213848,7442
1659520835.252762,7472
1659520835.291676,7523
1659520835.33059,7565
1659520835.372064,7606
1659520835.413538,7654
1659520835.455012,7687
1659520835.496486,7732
1659520835.534718,7765
1659520835.572949,7798
1659520835.61118,7777
1659520835.653166,7644
1659520835.695152,7514
1659520835.734408,7429
1659520835.773663,7390
1659520835.812918,7347
1659520835.85388,7333
1659520835.894842,7322
1659520835.933415,7313
1659520835.971987,7304
1659520836.01056,7305
1659520836.055277,7314
1659520836.099994,7346
1659520836.144711,7368
1659520836.178504,7393
1659520836.212298,7429
1659520836.256674,7474
1659520836.301049,7509
1659520836.345425,7543
1659520836.378706,7581
1659520836.411988,7620
1659520836.456022,7667
1659520836.500057,7695
1659520836.544091,7731
1659520836.582663,7690
1659520836.621236,7550
1659520836.659809,7411
1659520836.701795,7331
1659520836.743781,7282
1659520836.782012,7246
1659520836.820243,7253
1659520836.858474,7263
1659520836.897047,7265
1659520836.93562,7276
1659520836.974192,7281
1659520837.017202,7299
1659520837.060213,7316
1659520837.098785,7350
1659520837.137358,7374
1659520837.17593,7413
1659520837.216892,7447
1659520837.257854,7472
1659520837.29711,7505
1659520837.336365,7513
1659520837.37562,7548
1659520837.417606,7589
1659520837.459593,7632
1659520837.497824,7673
1659520837.536055,7683
1659520837.574286,7565
1659520837.619003,7429
1659520837.66372,7374
1659520837.708437,7324
1659520837.740695,7315
1659520837.772952,7313
1659520837.816645,7319
1659520837.860338,7345
1659520837.904031,7349
1659520837.947041,7356
1659520837.990051,7376
1659520838.028965,7420
1659520838.067879,7459
1659520838.106793,7512
1659520838.145707,7542
1659520838.184621,7567
1659520838.223535,7610
1659520838.265521,7636
1659520838.307507,7668
1659520838.346762,7691
1659520838.386018,7747
1659520838.425273,7776
1659520838.466747,7828
1659520838.508221,7793
1659520838.547476,7658
1659520838.586732,7544
1659520838.625987,7483
1659520838.66456,7453
1659520838.703132,7443
1659520838.741705,7458
1659520838.782667,7462
1659520838.823629,7467
1659520838.862201,7463
1659520838.900774,7472
1659520838.939347,7501
1659520838.981845,7529
1659520839.024343,7572
1659520839.062574,7600
1659520839.100805,7629
1659520839.139037,7659
1659520839.180511,7700
1659520839.221985,7733
1659520839.260899,7762
1659520839.299813,7808
1659520839.338727,7853
1659520839.382761,7890
1659520839.426795,7876
1659520839.470829,7759
1659520839.512815,7604
1659520839.554801,7502
1659520839.594057,7449
1659520839.633312,7401
1659520839.672567,7379
1659520839.710799,7374
1659520839.74903,7378
1659520839.787261,7344
1659520839.828223,7332
1659520839.869185,7329
1659520839.908099,7339
1659520839.947013,7360
1659520839.985927,7385
1659520840.027401,7417
1659520840.068875,7443
1659520840.107106,7487
1659520840.145338,7516
1659520840.183569,7547
1659520840.222483,7606
1659520840.261397,7651
1659520840.300311,7695
1659520840.342809,7729
1659520840.385307,7674
1659520840.423538,7518
1659520840.461769,7407
1659520840.500001,7348
1659520840.541987,7302
1659520840.583973,7292
1659520840.624321,7285
1659520840.664668,7307
1659520840.705016,7295
1659520840.745363,7302
1659520840.785711,7322
1659520840.826673,7327
1659520840.867635,7342
1659520840.90689,7364
1659520840.946146,7397
1659520840.985401,7419
1659520841.025851,7441
1659520841.066301,7449
1659520841.105215,7467
1659520841.144129,7514
1659520841.183043,7553
1659520841.228101,7594
1659520841.273159,7546
1659520841.318218,7438
1659520841.350987,7339
1659520841.383757,7308
1659520841.428132,7291
1659520841.472508,7278
1659520841.516884,7308
1659520841.55648,7316
1659520841.596077,7308
1659520841.635674,7300
1659520841.677148,7311
1659520841.718621,7334
1659520841.757194,7364
1659520841.795767,7397
1659520841.834339,7419
1659520841.876326,7457
1659520841.918312,7475
1659520841.956884,7512
1659520841.995457,7545
1659520842.034029,7572
1659520842.072602,7592
1659520842.111175,7533
1659520842.149747,7393
1659520842.192245,7283
1659520842.234743,7234
1659520842.273316,7202
1659520842.311889,7195
1659520842.350461,7199
1659520842.390911,7197
1659520842.431361,7196
1659520842.470617,7190
1659520842.509872,7197
1659520842.549127,7203
1659520842.591113,7225
1659520842.633099,7251
1659520842.671672,7279
1659520842.710245,7295
1659520842.748817,7315
1659520842.790291,7333
1659520842.831765,7347
1659520842.870679,7360
1659520842.909593,7319
1659520842.948507,7197
1659520842.9922,7082
1659520843.035893,7019
1659520843.079586,6972
1659520843.122084,6943
1659520843.164582,6956
1659520843.203155,6961
1659520843.241727,6967
1659520843.2803,6963
1659520843.318531,6974
1659520843.356762,7015
1659520843.394994,7073
1659520843.436468,7131
1659520843.477942,7175
1659520843.516855,7229
1659520843.555769,7269
1659520843.594683,7320
1659520843.636158,7351
1659520843.677632,7377
1659520843.716887,7365
1659520843.756142,7264
1659520843.795398,7162
1659520843.834311,7106
1659520843.873225,7093
1659520843.912139,7092
1659520843.954125,7122
1659520843.996112,7130
1659520844.035367,7131
1659520844.074622,7149
1659520844.113878,7153
1659520844.155351,7181
1659520844.196826,7210
1659520844.235739,7241
1659520844.274653,7272
1659520844.313567,7301
1659520844.354017,7329
1659520844.394467,7370
1659520844.439184,7440
1659520844.483901,7494
1659520844.528618,7443
1659520844.562412,7329
1659520844.596205,7244
1659520844.640581,7187
1659520844.684957,7141
1659520844.729332,7110
1659520844.768588,7117
1659520844.807843,7138
1659520844.847098,7158
1659520844.888572,7185
1659520844.930046,7208
1659520844.969301,7220
1659520845.008557,7233
1659520845.047812,7232
1659520845.089798,7225
1659520845.131784,7228
1659520845.170357,7230
1659520845.20893,7242
1659520845.247502,7246
1659520845.285733,7208
1659520845.323965,7093
1659520845.362196,6975
1659520845.404182,6912
1659520845.446168,6859
1659520845.485082,6825
1659520845.523996,6815
1659520845.56291,6817
1659520845.60336,6809
1659520845.64381,6804
1659520845.682041,6796
1659520845.720273,6808
1659520845.758504,6834
1659520845.797759,6854
1659520845.837014,6883
1659520845.87627,6907
1659520845.920304,6947
1659520845.964338,6985
1659520846.008372,7017
1659520846.047286,7033
1659520846.0862,6987
1659520846.125114,6901
1659520846.164369,6839
1659520846.203625,6827
1659520846.24288,6808
1659520846.283842,6819
1659520846.324804,6843
1659520846.364059,6838
1659520846.403315,6845
1659520846.44257,6856
1659520846.481143,6877
1659520846.519715,6904
1659520846.558288,6950
1659520846.599762,6974
1659520846.641236,7006
1659520846.68271,7051
1659520846.724184,7093
1659520846.762757,7125
1659520846.801329,7142
1659520846.839902,7102
1659520846.883936,7007
1659520846.92797,6954
1659520846.972004,6941
1659520847.005798,6942
1659520847.039592,6966
1659520847.08465,6983
1659520847.129708,7014
1659520847.174767,7017
1659520847.212998,7028
1659520847.251229,7058
1659520847.28946,7093
1659520847.331446,7138
1659520847.373432,7167
1659520847.412346,7209
1659520847.45126,7241
1659520847.490174,7282
1659520847.532161,7310
1659520847.574147,7308
1659520847.61306,7232
1659520847.651974,7117
1659520847.690888,7057
1659520847.729802,7028
1659520847.768716,7029
1659520847.80763,7043
1659520847.84808,7079
1659520847.88853,7065
1659520847.927786,7037
1659520847.967041,7019
1659520848.006296,7003
1659520848.048794,7005
1659520848.091292,7025
1659520848.129865,7055
1659520848.168437,7077
1659520848.20701,7105
1659520848.248484,7122
1659520848.289958,7154
1659520848.329214,7137
1659520848.368469,7050
1659520848.407724,6980
1659520848.449198,6940
1659520848.490672,6925
1659520848.529245,6924
1659520848.567817,6936
1659520848.60639,6935
1659520848.650424,6933
1659520848.694458,6949
1659520848.738493,6966
1659520848.771262,6987
1659520848.804032,7014
1659520848.847725,7034
1659520848.891418,7072
1659520848.935111,7101
1659520848.977609,7136
1659520849.020107,7171
1659520849.058338,7193
1659520849.096569,7143
1659520849.134801,7048
1659520849.173715,6991
1659520849.212628,6975
1659520849.251542,6958
1659520849.293016,6962
1659520849.334491,6981
1659520849.373063,7007
1659520849.411636,7013
1659520849.450208,7036
1659520849.492194,7068
1659520849.534181,7100
1659520849.573095,7132
1659520849.612008,7155
1659520849.650922,7186
1659520849.689836,7213
1659520849.72875,7252
1659520849.767664,7280
1659520849.808626,7305
1659520849.849588,7267
1659520849.888502,7178
1659520849.927416,7120
1659520849.96633,7094
1659520850.008316,7095
1659520850.050302,7100
1659520850.088534,7126
1659520850.126765,7146
1659520850.164996,7159
1659520850.20647,7169
1659520850.247944,7189
1659520850.292661,7217
1659520850.337378,7250
1659520850.382095,7279
1659520850.416401,7312
1659520850.450706,7346
1659520850.495082,7385
1659520850.539458,7415
1659520850.583833,7422
1659520850.623088,7352
1659520850.662344,7257
1659520850.701599,7202
1659520850.742561,7173
1659520850.783523,7171
1659520850.822778,7176
1659520850.862034,7192
1659520850.901289,7202
1659520850.942763,7212
1659520850.984237,7208
1659520851.02281,7234
1659520851.061382,7254
1659520851.099955,7280
1659520851.137845,7297
1659520851.175735,7324
1659520851.213624,7356
1659520851.253221,7380
1659520851.292818,7403
1659520851.332414,7394
1659520851.37679,7300
1659520851.421166,7215
1659520851.465541,7168
1659520851.498823,7137
1659520851.532104,7124
1659520851.577163,7140
1659520851.622221,7165
1659520851.667279,7173
1659520851.700049,7189
1659520851.732819,7194
1659520851.776511,7217
1659520851.820204,7236
1659520851.863897,7262
1659520851.903152,7282
1659520851.942408,7311
1659520851.981663,7340
1659520852.023137,7380
1659520852.064611,7418
1659520852.102842,7413
1659520852.141074,7342
1659520852.179305,7254
1659520852.218219,7202
1659520852.257133,7173
1659520852.296047,7159
1659520852.337009,7148
1659520852.377971,7160
1659520852.416885,7177
1659520852.455799,7160
1659520852.494713,7176
1659520852.536699,7183
1659520852.578685,7214
1659520852.617257,7226
1659520852.65583,7253
1659520852.694403,7286
1659520852.735365,7307
1659520852.776327,7345
1659520852.815923,7366
1659520852.85552,7383
1659520852.895117,7319
1659520852.937103,7227
1659520852.979089,7167
1659520853.01732,7134
1659520853.055551,7116
1659520853.093783,7111
1659520853.138499,7132
1659520853.183216,7148
1659520853.227933,7162
1659520853.261215,7169
1659520853.294497,7191
1659520853.338872,7218
1659520853.383248,7241
1659520853.427623,7277
1659520853.469097,7297
1659520853.510571,7328
1659520853.549827,7359
1659520853.589082,7394
1659520853.628337,7427
1659520853.66691,7453
1659520853.705482,7492
1659520853.744055,7491
1659520853.786553,7432
1659520853.829051,7330
1659520853.868307,7259
1659520853.907562,7219
1659520853.946817,7192
1659520853.988291,7176
1659520854.029765,7188
1659520854.068338,7207
1659520854.106911,7214
1659520854.145483,7234
1659520854.184397,7249
1659520854.223311,7270
1659520854.262225,7296
1659520854.304211,7317
1659520854.346197,7347
1659520854.38477,7375
1659520854.423342,7403
1659520854.461915,7435
1659520854.502877,7463
1659520854.543839,7495
1659520854.583094,7522
1659520854.62235,7566
1659520854.661605,7579
1659520854.703079,7618
1659520854.744553,7623
1659520854.78927,7538
1659520854.833987,7421
1659520854.878704,7345
1659520854.911986,7312
1659520854.945267,7275
1659520854.989301,7267
1659520855.033336,7272
1659520855.07737,7273
1659520855.115601,7280
1659520855.153832,7277
1659520855.192064,7298
1659520855.23405,7318
1659520855.276036,7348
1659520855.314608,7364
1659520855.353181,7399
1659520855.391754,7411
1659520855.432716,7442
1659520855.473678,7472
1659520855.512592,7503
1659520855.551506,7524
1659520855.59042,7551
1659520855.628651,7583
1659520855.666882,7610
1659520855.705113,7652
1659520855.747099,7654
1659520855.789085,7566
1659520855.828682,7464
1659520855.868279,7386
1659520855.907875,7358
1659520855.946107,7319
1659520855.984338,7311
1659520856.022569,7321
1659520856.064555,7337
1659520856.106541,7336
1659520856.146138,7319
1659520856.185735,7336
