LocalTimestamp,PG
1659429979.626138,12270
1659429979.667125,12244
1659429979.708112,12141
1659429979.746024,12080
1659429979.783937,12111
1659429979.82185,12087
1659429979.861129,12118
1659429979.900408,12356
1659429979.939687,12515
1659429979.981186,12631
1659429980.022685,12872
1659429980.061281,13596
1659429980.099877,13415
1659429980.138473,13245
1659429980.180996,13127
1659429980.22352,13008
1659429980.262116,12910
1659429980.300712,12866
1659429980.339308,12812
1659429980.380807,12760
1659429980.422306,12748
1659429980.467391,12769
1659429980.512477,12790
1659429980.557562,12789
1659429980.590352,12784
1659429980.623141,12726
1659429980.667202,12641
1659429980.711262,12572
1659429980.755323,12480
1659429980.794261,12364
1659429980.833198,12233
1659429980.872136,12107
1659429980.914659,12041
1659429980.957183,12002
1659429980.995096,12007
1659429981.033009,12013
1659429981.070921,12031
1659429981.113445,12079
1659429981.155969,12105
1659429981.194906,12121
1659429981.233844,12149
1659429981.272781,12160
1659429981.311719,12135
1659429981.350656,12121
1659429981.389594,12121
1659429981.432117,12146
1659429981.474641,12106
1659429981.51392,11946
1659429981.553199,11798
1659429981.592478,11706
1659429981.632952,11665
1659429981.673427,11632
1659429981.712364,11624
1659429981.751302,11584
1659429981.790239,11539
1659429981.832763,11481
1659429981.875287,11455
1659429981.913541,11444
1659429981.951795,11453
1659429981.99005,11443
1659429982.031549,11430
1659429982.073048,11429
1659429982.114547,11438
1659429982.156046,11452
1659429982.197545,11394
1659429982.239044,11222
1659429982.27764,11062
1659429982.316236,10956
1659429982.354832,10906
1659429982.393769,10884
1659429982.432707,10890
1659429982.471644,10884
1659429982.513656,10874
1659429982.555667,10879
1659429982.594263,10878
1659429982.632859,10908
1659429982.671455,10916
1659429982.712441,10941
1659429982.753428,10964
1659429982.792024,10991
1659429982.83062,11008
1659429982.869216,11032
1659429982.911227,11034
1659429982.953239,10908
1659429982.991835,10748
1659429983.030431,10625
1659429983.069026,10573
1659429983.113429,10557
1659429983.157831,10572
1659429983.202233,10593
1659429983.235023,10600
1659429983.267812,10599
1659429983.311873,10605
1659429983.355934,10639
1659429983.399994,10672
1659429983.438932,10701
1659429983.477869,10738
1659429983.516807,10767
1659429983.558818,10796
1659429983.60083,10834
1659429983.639426,10874
1659429983.678021,10890
1659429983.716617,10831
1659429983.758629,10685
1659429983.80064,10581
1659429983.839577,10556
1659429983.878515,10557
1659429983.917452,10586
1659429983.95639,10609
1659429983.995327,10627
1659429984.034265,10656
1659429984.075764,10681
1659429984.117263,10710
1659429984.1562,10736
1659429984.195138,10786
1659429984.234075,10835
1659429984.275062,10878
1659429984.316049,10916
1659429984.355669,10948
1659429984.39529,11000
1659429984.43491,11045
1659429984.476922,11027
1659429984.518933,10911
1659429984.557188,10814
1659429984.595442,10778
1659429984.633696,10800
1659429984.675708,10820
1659429984.717719,10862
1659429984.762463,10898
1659429984.807207,10928
1659429984.851951,10954
1659429984.890888,10981
1659429984.929826,11028
1659429984.968763,11065
1659429985.00975,11109
1659429985.050736,11147
1659429985.089674,11186
1659429985.128611,11246
1659429985.167549,11277
1659429985.205462,11292
1659429985.243374,11224
1659429985.281287,11131
1659429985.323298,11109
1659429985.36531,11111
1659429985.404247,11152
1659429985.443185,11183
1659429985.482122,11222
1659429985.523109,11244
1659429985.564096,11265
1659429985.603033,11280
1659429985.641971,11315
1659429985.680908,11372
1659429985.719846,11414
1659429985.758783,11456
1659429985.79772,11491
1659429985.839219,11526
1659429985.880718,11558
1659429985.919656,11516
1659429985.958593,11409
1659429985.997531,11325
1659429986.038517,11303
1659429986.079504,11318
1659429986.117759,11354
1659429986.156013,11398
1659429986.194267,11422
1659429986.236279,11445
1659429986.27829,11470
1659429986.322692,11486
1659429986.367095,11513
1659429986.411497,11559
1659429986.44941,11605
1659429986.487323,11651
1659429986.525235,11694
1659429986.563831,11721
1659429986.602427,11740
1659429986.641023,11658
1659429986.683034,11555
1659429986.725046,11504
1659429986.763642,11503
1659429986.802238,11518
1659429986.840834,11553
1659429986.883357,11596
1659429986.925881,11607
1659429986.96516,11631
1659429987.004439,11653
1659429987.043718,11691
1659429987.082655,11719
1659429987.121593,11770
1659429987.16053,11812
1659429987.201517,11837
1659429987.242504,11872
1659429987.282671,11902
1659429987.322838,11878
1659429987.363005,11780
1659429987.403172,11703
1659429987.443339,11686
1659429987.481935,11691
1659429987.520531,11716
1659429987.559127,11750
1659429987.603871,11764
1659429987.648614,11778
1659429987.693358,11807
1659429987.731954,11825
1659429987.77055,11858
1659429987.809146,11901
1659429987.850645,11935
1659429987.892144,11967
1659429987.931423,12002
1659429987.970702,12039
1659429988.009981,12070
1659429988.05148,12041
1659429988.092979,11935
1659429988.131917,11855
1659429988.170854,11844
1659429988.209792,11845
1659429988.248387,11865
1659429988.286983,11889
1659429988.325579,11901
1659429988.368103,11917
1659429988.410627,11940
1659429988.448881,11956
1659429988.487135,11990
1659429988.52539,12009
1659429988.566376,12033
1659429988.607363,12056
1659429988.646301,12086
1659429988.685238,12111
1659429988.724175,12139
1659429988.765675,12139
1659429988.807174,12074
1659429988.84577,11975
1659429988.884366,11927
1659429988.922961,11925
1659429988.964973,11949
1659429989.006984,11974
1659429989.04558,12000
1659429989.084176,12018
1659429989.122772,12023
1659429989.167174,12047
1659429989.211576,12067
1659429989.255979,12088
1659429989.29799,12102
1659429989.340002,12137
1659429989.378597,12161
1659429989.417193,12188
1659429989.455789,12219
1659429989.494044,12229
1659429989.532298,12190
1659429989.570552,12101
1659429989.612564,12039
1659429989.654575,12016
1659429989.692829,12037
1659429989.731084,12058
1659429989.769338,12081
1659429989.811349,12096
1659429989.853361,12095
1659429989.89264,12124
1659429989.931919,12142
1659429989.971198,12170
1659429990.009794,12195
1659429990.04839,12219
1659429990.086986,12257
1659429990.127972,12273
1659429990.168959,12309
1659429990.208921,12303
1659429990.248883,12214
1659429990.288845,12121
1659429990.330344,12065
1659429990.371844,12057
1659429990.410781,12059
1659429990.449718,12085
1659429990.488656,12095
1659429990.530155,12102
1659429990.571654,12115
1659429990.610933,12131
1659429990.650212,12162
1659429990.689491,12183
1659429990.729965,12205
1659429990.77044,12230
1659429990.815184,12253
1659429990.859928,12288
1659429990.904671,12318
1659429990.943267,12307
1659429990.981863,12217
1659429991.020459,12098
1659429991.061446,12032
1659429991.102433,12026
1659429991.142053,12009
1659429991.181674,12022
1659429991.221294,12047
1659429991.263306,12053
1659429991.305317,12057
1659429991.343571,12070
1659429991.381826,12097
1659429991.42008,12096
1659429991.459359,12108
1659429991.498638,12135
1659429991.537917,12167
1659429991.579928,12205
1659429991.62194,12226
1659429991.660194,12231
1659429991.698449,12170
1659429991.736703,12039
1659429991.77769,11931
1659429991.818676,11890
1659429991.857272,11870
1659429991.895868,11869
1659429991.934464,11874
1659429991.972718,11877
1659429992.010973,11879
1659429992.049227,11890
1659429992.091238,11917
1659429992.13325,11962
1659429992.175261,11999
1659429992.217273,12031
1659429992.255869,12061
1659429992.294464,12096
1659429992.33306,12135
1659429992.377121,12181
1659429992.421182,12168
1659429992.465243,12071
1659429992.499057,11954
1659429992.532871,11900
1659429992.572628,11879
1659429992.612385,11891
1659429992.652142,11903
1659429992.6919,11920
1659429992.731657,11939
1659429992.773668,11941
1659429992.81568,11966
1659429992.860082,11992
1659429992.904484,12018
1659429992.948886,12039
1659429992.987141,12054
1659429993.025395,12064
1659429993.063649,12075
1659429993.105149,12100
1659429993.146648,12099
1659429993.185244,12028
1659429993.22384,11896
1659429993.262435,11814
1659429993.301373,11790
1659429993.34031,11780
1659429993.379248,11780
1659429993.421771,11798
1659429993.464295,11806
1659429993.503574,11800
1659429993.542853,11806
1659429993.582132,11833
1659429993.623119,11861
1659429993.664106,11892
1659429993.703043,11903
1659429993.741981,11917
1659429993.780918,11950
1659429993.820197,11968
1659429993.859476,11981
1659429993.898755,11913
1659429993.940254,11796
1659429993.981753,11717
1659429994.020007,11701
1659429994.058262,11686
1659429994.096516,11701
1659429994.138527,11720
1659429994.180539,11724
1659429994.218793,11723
1659429994.257047,11735
1659429994.295302,11751
1659429994.339704,11769
1659429994.384106,11786
1659429994.428509,11809
1659429994.47052,11824
1659429994.512532,11851
1659429994.551469,11870
1659429994.590406,11877
1659429994.629344,11803
1659429994.670843,11678
1659429994.712342,11601
1659429994.751621,11572
1659429994.7909,11562
1659429994.830179,11569
1659429994.869117,11587
1659429994.908054,11588
1659429994.946991,11590
1659429994.987466,11590
1659429995.02794,11609
1659429995.067219,11629
1659429995.106498,11648
1659429995.145777,11667
1659429995.18369,11693
1659429995.221603,11718
1659429995.259516,11738
1659429995.301015,11730
1659429995.342514,11634
1659429995.381451,11526
1659429995.420388,11478
1659429995.459326,11462
1659429995.500825,11480
1659429995.542324,11497
1659429995.58092,11503
1659429995.619516,11498
1659429995.658112,11522
1659429995.703197,11530
1659429995.748283,11558
1659429995.793368,11579
1659429995.83538,11605
1659429995.877391,11627
1659429995.915645,11663
1659429995.9539,11685
1659429995.992154,11688
1659429996.034165,11641
1659429996.076177,11522
1659429996.114773,11441
1659429996.153368,11415
1659429996.191964,11416
1659429996.23056,11434
1659429996.269156,11445
1659429996.307752,11447
1659429996.349763,11453
1659429996.391775,11467
1659429996.430371,11482
1659429996.468967,11503
1659429996.507563,11514
1659429996.548037,11534
1659429996.588511,11553
1659429996.62779,11582
1659429996.667069,11606
1659429996.706348,11610
1659429996.745286,11527
1659429996.784223,11401
1659429996.823161,11352
1659429996.865172,11332
1659429996.907184,11345
1659429996.946121,11353
1659429996.985058,11364
1659429997.023996,11365
1659429997.066007,11368
1659429997.108019,11372
1659429997.146615,11385
1659429997.18521,11423
1659429997.223806,11455
1659429997.265818,11486
1659429997.307829,11510
1659429997.352573,11529
1659429997.397317,11550
1659429997.442061,11511
1659429997.474338,11406
1659429997.506615,11313
1659429997.550676,11278
1659429997.594737,11272
1659429997.638797,11300
1659429997.678076,11317
1659429997.717355,11329
1659429997.756634,11342
1659429997.795572,11354
1659429997.834509,11376
1659429997.873446,11391
1659429997.912384,11425
1659429997.951321,11444
1659429997.990259,11476
1659429998.031758,11514
1659429998.073257,11535
1659429998.112195,11552
1659429998.151132,11453
1659429998.190069,11338
1659429998.231568,11270
1659429998.273067,11247
1659429998.312005,11256
1659429998.350942,11279
1659429998.38988,11292
1659429998.429022,11287
1659429998.468164,11302
1659429998.507307,11313
1659429998.546449,11344
1659429998.585592,11365
1659429998.628115,11390
1659429998.670639,11421
1659429998.712138,11455
1659429998.753637,11483
1659429998.792233,11515
1659429998.830829,11502
1659429998.869425,11408
1659429998.914169,11315
1659429998.958913,11279
1659429999.003657,11278
1659429999.037983,11291
1659429999.072309,11313
1659429999.11637,11330
1659429999.160431,11345
1659429999.204492,11380
1659429999.237794,11394
1659429999.271095,11446
1659429999.316181,11473
1659429999.361266,11513
1659429999.406352,11562
1659429999.444606,11594
1659429999.48286,11626
1659429999.521115,11639
1659429999.563126,11565
1659429999.605138,11465
1659429999.644417,11425
1659429999.683696,11419
1659429999.722975,11439
1659429999.760887,11471
1659429999.7988,11483
1659429999.836713,11493
1659429999.877699,11502
1659429999.918686,11514
1659429999.958307,11542
1659429999.997927,11569
1659430000.037548,11596
1659430000.076144,11629
1659430000.11474,11657
1659430000.153336,11685
1659430000.195859,11664
1659430000.238383,11555
1659430000.280395,11459
1659430000.322406,11434
1659430000.361002,11431
1659430000.399598,11450
1659430000.438194,11471
1659430000.482254,11471
1659430000.526315,11479
1659430000.570376,11493
1659430000.604702,11494
1659430000.639029,11518
1659430000.683089,11548
1659430000.72715,11563
1659430000.771211,11586
1659430000.803488,11622
1659430000.835765,11632
1659430000.880509,11548
1659430000.925253,11427
1659430000.969997,11339
1659430001.008251,11291
1659430001.046505,11280
1659430001.08476,11282
1659430001.126259,11294
1659430001.167758,11300
1659430001.207037,11298
1659430001.246316,11314
1659430001.285595,11339
1659430001.327094,11365
1659430001.368593,11381
1659430001.407189,11403
1659430001.445785,11412
1659430001.484381,11433
1659430001.52366,11421
1659430001.562939,11343
1659430001.602218,11201
1659430001.643204,11107
1659430001.684191,11050
1659430001.722445,11031
1659430001.7607,11029
1659430001.798954,11043
1659430001.839941,11057
1659430001.880928,11041
1659430001.920207,11053
1659430001.959486,11073
1659430001.998765,11086
1659430002.039752,11104
1659430002.080738,11124
1659430002.119676,11153
1659430002.158613,11167
1659430002.197551,11195
1659430002.242294,11198
1659430002.287038,11147
1659430002.331782,11040
1659430002.372769,10941
1659430002.413756,10880
1659430002.453376,10859
1659430002.492997,10859
1659430002.532617,10879
1659430002.574629,10901
1659430002.61664,10902
1659430002.654895,10902
1659430002.693149,10924
1659430002.731403,10944
1659430002.769999,10980
1659430002.808595,10996
1659430002.847191,11037
1659430002.889714,11058
1659430002.932238,11098
1659430002.970834,11128
1659430003.00943,11156
1659430003.048026,11183
1659430003.087783,11143
1659430003.12754,11038
1659430003.167297,10947
1659430003.207055,10913
1659430003.246812,10914
1659430003.288823,10936
1659430003.330835,10950
1659430003.369772,10962
1659430003.40871,10981
1659430003.447647,10998
1659430003.486926,11043
1659430003.526205,11059
1659430003.565484,11079
1659430003.606983,11127
1659430003.648482,11150
1659430003.686736,11172
1659430003.724991,11195
1659430003.763245,11233
1659430003.805769,11261
1659430003.848293,11288
1659430003.890304,11260
1659430003.932315,11169
1659430003.970228,11093
1659430004.008141,11073
1659430004.046054,11082
1659430004.090114,11104
1659430004.134175,11135
1659430004.178236,11151
1659430004.212562,11180
1659430004.246889,11202
1659430004.290608,11233
1659430004.334327,11268
1659430004.378047,11306
1659430004.416642,11345
1659430004.455238,11369
1659430004.493834,11402
1659430004.535846,11440
1659430004.577857,11459
1659430004.616453,11500
1659430004.655049,11540
1659430004.693645,11537
1659430004.735144,11459
1659430004.776643,11391
1659430004.816263,11365
1659430004.855884,11375
1659430004.895504,11403
1659430004.933417,11417
1659430004.97133,11436
1659430005.009243,11441
1659430005.05023,11459
1659430005.091216,11477
1659430005.130154,11516
1659430005.169091,11535
1659430005.208029,11554
1659430005.25004,11586
1659430005.292051,11609
1659430005.330647,11636
1659430005.369243,11671
1659430005.407839,11708
1659430005.449851,11709
1659430005.491862,11648
1659430005.530458,11554
1659430005.569054,11514
1659430005.60765,11492
1659430005.650173,11500
1659430005.692697,11527
1659430005.731634,11532
1659430005.770572,11538
1659430005.809509,11554
1659430005.854253,11569
1659430005.898997,11600
1659430005.943741,11608
1659430005.976018,11641
1659430006.008295,11666
1659430006.053039,11687
1659430006.097783,11705
1659430006.142527,11717
1659430006.184538,11741
1659430006.22655,11752
1659430006.265146,11672
1659430006.303741,11540
1659430006.342337,11453
1659430006.381275,11398
1659430006.420212,11378
1659430006.45915,11359
1659430006.500649,11369
1659430006.542148,11380
1659430006.581085,11380
1659430006.620023,11385
1659430006.65896,11399
1659430006.700972,11423
1659430006.742983,11451
1659430006.78192,11484
1659430006.820858,11494
1659430006.859795,11503
1659430006.898391,11515
1659430006.936987,11538
1659430006.975583,11557
1659430007.017594,11503
1659430007.059606,11382
1659430007.098543,11284
1659430007.13748,11242
1659430007.176418,11217
1659430007.217405,11213
1659430007.258392,11235
1659430007.296988,11239
1659430007.335583,11247
1659430007.374179,11245
1659430007.415678,11255
1659430007.457177,11287
1659430007.501238,11305
1659430007.545299,11334
1659430007.58936,11348
1659430007.627956,11383
1659430007.666551,11414
1659430007.705147,11429
1659430007.747159,11426
1659430007.78917,11357
1659430007.827766,11250
1659430007.866362,11159
1659430007.904958,11121
1659430007.946969,11104
1659430007.988981,11121
1659430008.02826,11136
1659430008.067539,11150
1659430008.106818,11157
1659430008.148829,11158
1659430008.19084,11183
1659430008.229095,11207
1659430008.267349,11229
1659430008.305604,11248
1659430008.344199,11268
1659430008.382795,11285
1659430008.421391,11308
1659430008.459987,11320
1659430008.498583,11272
1659430008.537179,11178
1659430008.578678,11101
1659430008.620177,11078
1659430008.659114,11073
1659430008.698052,11086
1659430008.736989,11102
1659430008.779001,11111
1659430008.821012,11122
1659430008.859266,11134
1659430008.897521,11166
1659430008.935775,11188
1659430008.98086,11223
1659430009.025946,11232
1659430009.071031,11254
1659430009.113555,11285
1659430009.156079,11307
1659430009.195016,11293
1659430009.233954,11220
1659430009.272891,11127
1659430009.313878,11073
1659430009.354865,11076
1659430009.394144,11069
1659430009.433423,11092
1659430009.472702,11103
1659430009.511297,11104
1659430009.549893,11113
1659430009.588489,11128
1659430009.629988,11147
1659430009.671488,11157
1659430009.710425,11185
1659430009.749362,11220
1659430009.7883,11245
1659430009.826212,11271
1659430009.864125,11287
1659430009.902038,11267
1659430009.944562,11203
1659430009.987086,11134
1659430010.026023,11112
1659430010.06496,11102
1659430010.103898,11108
1659430010.144885,11125
1659430010.185871,11150
1659430010.224809,11165
1659430010.263746,11187
1659430010.302684,11196
1659430010.344695,11205
1659430010.386707,11237
1659430010.431109,11252
1659430010.475511,11271
1659430010.519913,11280
1659430010.552191,11303
1659430010.584468,11296
1659430010.629212,11237
1659430010.673955,11154
1659430010.718699,11123
1659430010.756612,11144
1659430010.794525,11172
1659430010.832438,11206
1659430010.874449,11221
1659430010.916461,11227
1659430010.955056,11227
1659430010.993652,11225
1659430011.032248,11230
1659430011.073747,11243
1659430011.115246,11267
1659430011.153842,11291
1659430011.192438,11332
1659430011.231034,11343
1659430011.269971,11309
1659430011.308909,11231
1659430011.347846,11192
1659430011.389858,11180
1659430011.431869,11198
1659430011.470465,11223
1659430011.509061,11238
1659430011.547657,11234
1659430011.586594,11220
1659430011.625532,11228
1659430011.664469,11246
1659430011.705456,11275
1659430011.746443,11303
1659430011.785038,11314
1659430011.823634,11330
1659430011.86223,11331
1659430011.904754,11284
1659430011.947278,11188
1659430011.988265,11131
1659430012.029251,11106
1659430012.06853,11099
1659430012.107809,11117
1659430012.147088,11137
1659430012.191832,11155
1659430012.236576,11158
1659430012.28132,11182
1659430012.315646,11177
1659430012.349973,11199
1659430012.394033,11217
1659430012.438094,11241
1659430012.482155,11259
1659430012.515457,11264
1659430012.548759,11198
1659430012.593161,11102
1659430012.637563,11042
1659430012.681966,11007
1659430012.720561,10989
1659430012.759157,10998
1659430012.797753,11011
1659430012.839765,11023
1659430012.881776,11026
1659430012.920713,11035
1659430012.959651,11056
1659430012.998588,11071
1659430013.039575,11089
1659430013.080562,11112
1659430013.119158,11149
1659430013.157753,11161
1659430013.196349,11136
1659430013.23597,11038
1659430013.27559,10965
1659430013.315211,10933
1659430013.35671,10917
1659430013.398209,10933
1659430013.436464,10955
1659430013.474718,10986
1659430013.512972,10998
1659430013.555496,11021
1659430013.59802,11030
1659430013.637777,11048
1659430013.677534,11080
1659430013.717291,11098
1659430013.757048,11128
1659430013.796806,11162
1659430013.835743,11202
1659430013.874681,11190
1659430013.913618,11127
1659430013.957679,11046
1659430014.00174,11017
1659430014.0458,11017
1659430014.086275,11031
1659430014.126749,11063
1659430014.166028,11090
1659430014.205307,11115
1659430014.244586,11139
1659430014.283182,11162
1659430014.321778,11189
1659430014.360373,11215
1659430014.40136,11240
1659430014.442347,11255
1659430014.481626,11289
1659430014.520905,11316
1659430014.560184,11351
1659430014.602708,11350
1659430014.645232,11309
1659430014.683486,11230
1659430014.72174,11171
1659430014.759995,11167
1659430014.799615,11168
1659430014.839236,11193
1659430014.878856,11217
1659430014.919843,11236
1659430014.96083,11267
1659430014.999084,11284
1659430015.037338,11307
1659430015.075593,11332
1659430015.118116,11365
1659430015.16064,11381
1659430015.199578,11418
1659430015.238515,11427
1659430015.277452,11456
1659430015.317927,11493
1659430015.358401,11503
1659430015.39768,11460
1659430015.436959,11378
1659430015.476238,11323
1659430015.518762,11300
1659430015.561286,11308
1659430015.605688,11321
1659430015.65009,11346
1659430015.694493,11368
1659430015.73343,11385
1659430015.772368,11406
1659430015.811305,11428
1659430015.853317,11449
1659430015.895328,11472
1659430015.933582,11493
1659430015.971837,11510
1659430016.010091,11532
1659430016.048687,11570
1659430016.087283,11597
1659430016.125879,11613
1659430016.168402,11567
1659430016.210926,11489
1659430016.249181,11453
1659430016.287435,11437
1659430016.325689,11460
1659430016.364285,11479
1659430016.402881,11507
1659430016.441477,11518
1659430016.482976,11525
1659430016.524475,11518
1659430016.563412,11526
1659430016.60235,11550
1659430016.641287,11559
1659430016.682786,11577
1659430016.724285,11589
1659430016.762881,11617
1659430016.801477,11632
1659430016.840073,11659
1659430016.882084,11611
1659430016.924096,11526
1659430016.968157,11478
1659430017.012218,11457
1659430017.056278,11462
1659430017.090092,11476
1659430017.123906,11495
1659430017.167967,11490
1659430017.212028,11498
1659430017.256089,11513
1659430017.294343,11524
1659430017.332597,11548
1659430017.370852,11564
1659430017.411839,11588
1659430017.452825,11601
1659430017.492104,11621
1659430017.531383,11636
1659430017.570662,11638
1659430017.611649,11566
1659430017.652636,11465
1659430017.691573,11404
1659430017.73051,11378
1659430017.769448,11369
1659430017.808727,11369
1659430017.848006,11380
1659430017.887285,11400
1659430017.929296,11404
1659430017.971308,11405
1659430018.009904,11411
1659430018.0485,11427
1659430018.087095,11436
1659430018.129619,11456
1659430018.172143,11464
1659430018.210397,11475
1659430018.248652,11498
1659430018.286906,11461
1659430018.325502,11367
1659430018.364098,11277
1659430018.402694,11224
1659430018.44573,11197
1659430018.488766,11203
1659430018.529752,11202
1659430018.570739,11209
1659430018.608652,11207
1659430018.646565,11201
1659430018.684478,11216
1659430018.729563,11237
1659430018.774648,11266
1659430018.819734,11292
1659430018.853548,11310
1659430018.887362,11331
1659430018.927324,11354
1659430018.967286,11353
1659430019.007248,11284
1659430019.04721,11186
1659430019.087173,11117
1659430019.131917,11079
1659430019.17666,11073
1659430019.221404,11077
1659430019.262903,11087
1659430019.304402,11088
1659430019.34334,11086
1659430019.382277,11085
1659430019.421215,11106
1659430019.462714,11121
1659430019.504213,11138
1659430019.542126,11163
1659430019.580038,11172
1659430019.617951,11180
1659430019.656888,11194
1659430019.695826,11181
1659430019.734763,11092
1659430019.777287,11010
1659430019.819811,10942
1659430019.857724,10922
1659430019.895637,10927
1659430019.933549,10950
1659430019.972828,10966
1659430020.012107,10975
1659430020.051386,10986
1659430020.092885,10995
1659430020.134384,11006
1659430020.17298,11014
1659430020.211576,11041
1659430020.250172,11061
1659430020.291671,11075
1659430020.33317,11105
1659430020.372449,11115
1659430020.411728,11074
1659430020.451007,10988
1659430020.491482,10919
1659430020.531956,10889
1659430020.576358,10888
1659430020.620761,10894
1659430020.665163,10907
1659430020.698977,10910
1659430020.732791,10914
1659430020.776852,10942
1659430020.820913,10969
1659430020.864974,11006
1659430020.903569,11039
1659430020.942165,11084
1659430020.980761,11115
1659430021.022773,11143
1659430021.064784,11153
1659430021.10338,11124
1659430021.141976,11062
1659430021.180572,10984
1659430021.223095,10949
1659430021.265619,10949
1659430021.304557,10960
1659430021.343494,10976
1659430021.382432,10996
1659430021.421369,11006
1659430021.460306,11021
1659430021.499244,11051
1659430021.539718,11076
1659430021.580193,11106
1659430021.619813,11126
1659430021.659434,11156
1659430021.699054,11179
1659430021.740041,11223
1659430021.781028,11216
1659430021.819624,11170
1659430021.85822,11111
1659430021.896815,11070
1659430021.935411,11073
1659430021.974007,11095
1659430022.012603,11126
1659430022.055639,11139
1659430022.098675,11158
1659430022.139662,11165
1659430022.180649,11180
1659430022.219586,11202
1659430022.258524,11226
1659430022.297461,11245
1659430022.342205,11278
1659430022.386949,11298
1659430022.431693,11318
1659430022.465507,11294
1659430022.499321,11218
1659430022.543723,11155
1659430022.588125,11157
1659430022.632528,11151
1659430022.66583,11171
1659430022.699131,11183
1659430022.742851,11189
1659430022.78657,11213
1659430022.830289,11221
1659430022.868885,11240
1659430022.907481,11252
1659430022.946077,11273
1659430022.988088,11303
1659430023.0301,11343
1659430023.069037,11352
1659430023.107974,11346
1659430023.146912,11278
1659430023.184824,11194
1659430023.222737,11154
1659430023.26065,11133
1659430023.303174,11150
1659430023.345698,11164
1659430023.384294,11190
1659430023.422889,11182
1659430023.461485,11193
1659430023.502984,11213
1659430023.544483,11231
1659430023.584104,11246
1659430023.623724,11261
1659430023.663345,11291
1659430023.704844,11315
1659430023.746343,11341
1659430023.784256,11311
1659430023.822169,11224
1659430023.860081,11156
1659430023.902605,11129
1659430023.945129,11129
1659430023.983725,11135
1659430024.022321,11154
1659430024.060917,11165
1659430024.104636,11179
1659430024.148355,11181
1659430024.192074,11197
1659430024.229731,11218
1659430024.267388,11235
1659430024.305044,11259
1659430024.342701,11289
1659430024.387103,11338
1659430024.431505,11390
1659430024.475908,11376
1659430024.515187,11279
1659430024.554466,11219
1659430024.593745,11187
1659430024.635756,11180
1659430024.677768,11166
1659430024.716022,11156
1659430024.754276,11166
1659430024.792531,11175
1659430024.831468,11183
1659430024.870405,11178
1659430024.909343,11179
1659430024.951867,11184
1659430024.99439,11207
1659430025.032645,11248
1659430025.070899,11288
1659430025.109153,11324
1659430025.150652,11340
1659430025.192152,11307
1659430025.231089,11232
1659430025.270026,11211
1659430025.308964,11187
1659430025.347901,11179
1659430025.386839,11181
1659430025.425776,11171
1659430025.467275,11175
1659430025.508774,11181
1659430025.548053,11182
1659430025.587332,11194
1659430025.626611,11210
1659430025.667598,11230
1659430025.708585,11247
1659430025.750596,11256
1659430025.792608,11262
1659430025.831887,11297
1659430025.871166,11292
1659430025.910444,11248
1659430025.954164,11201
1659430025.997883,11179
1659430026.041602,11176
1659430026.073879,11177
1659430026.106156,11185
1659430026.150559,11188
1659430026.194961,11209
1659430026.239363,11229
1659430026.278301,11280
1659430026.317238,11308
1659430026.356176,11338
1659430026.394772,11375
1659430026.433367,11391
1659430026.471963,11409
1659430026.51295,11419
1659430026.553937,11422
1659430026.592874,11376
1659430026.631812,11308
1659430026.670749,11267
1659430026.712248,11269
1659430026.753747,11300
1659430026.792685,11324
1659430026.831622,11326
1659430026.87056,11301
1659430026.909839,11294
1659430026.949118,11359
1659430026.988397,11396
1659430027.029383,11398
1659430027.07037,11434
1659430027.114772,11490
1659430027.159175,11546
1659430027.203577,11602
1659430027.237391,11630
1659430027.271205,11601
1659430027.314924,11524
1659430027.358644,11496
1659430027.402363,11504
1659430027.435152,11540
1659430027.467942,11608
1659430027.512344,11653
1659430027.556746,11691
1659430027.601149,11715
1659430027.640086,11712
1659430027.679024,11729
1659430027.717961,11741
1659430027.759972,11755
1659430027.801984,11788
1659430027.841604,11836
1659430027.881225,11879
1659430027.920846,11883
1659430027.961832,11820
1659430028.002819,11759
1659430028.041756,11742
1659430028.080694,11744
1659430028.119631,11762
1659430028.15891,11765
1659430028.198189,11750
1659430028.237468,11735
1659430028.27948,11729
1659430028.321491,11692
1659430028.359746,11666
1659430028.398,11701
1659430028.436254,11750
1659430028.478266,11773
1659430028.520277,11768
1659430028.558873,11681
1659430028.597469,11607
1659430028.636065,11574
1659430028.677564,11581
1659430028.719063,11612
1659430028.758683,11628
1659430028.798304,11639
1659430028.837924,11642
1659430028.879936,11649
1659430028.921947,11642
1659430028.960202,11641
1659430028.998456,11634
1659430029.03671,11636
1659430029.081796,11634
1659430029.126881,11627
1659430029.171967,11520
1659430029.205268,11371
1659430029.23857,11259
1659430029.282289,11168
1659430029.326009,11130
1659430029.369728,11108
1659430029.408324,11096
1659430029.446919,11074
1659430029.485515,11051
1659430029.524111,11037
1659430029.562707,11023
1659430029.601303,11025
1659430029.639557,11017
1659430029.677812,11026
1659430029.716066,11035
1659430029.76081,11028
1659430029.805554,10954
1659430029.850297,10873
1659430029.883087,10834
1659430029.915876,10836
1659430029.960279,10849
1659430030.004681,10895
1659430030.049083,10946
1659430030.088362,10970
1659430030.127641,10994
1659430030.16692,11020
1659430030.208419,11056
1659430030.249918,11095
1659430030.288856,11136
1659430030.327793,11188
1659430030.366731,11223
1659430030.409255,11284
1659430030.451778,11321
1659430030.490033,11354
1659430030.528287,11344
1659430030.566541,11330
1659430030.604796,11347
1659430030.64305,11375
1659430030.681304,11409
1659430030.722803,11451
1659430030.764302,11507
1659430030.803581,11537
1659430030.84286,11571
1659430030.882139,11602
1659430030.923126,11633
1659430030.964113,11669
1659430031.003392,11702
1659430031.042671,11745
1659430031.08195,11765
1659430031.123449,11803
1659430031.164948,11833
1659430031.204569,11866
1659430031.244189,11904
1659430031.28381,11934
1659430031.325309,11945
1659430031.366808,11964
1659430031.406429,11981
1659430031.446049,12013
1659430031.48567,12040
1659430031.529389,12083
1659430031.573108,12124
1659430031.616827,12154
1659430031.658326,12177
1659430031.699826,12213
1659430031.739105,12230
1659430031.778383,12259
1659430031.817662,12294
1659430031.858649,12308
1659430031.899636,12336
1659430031.93789,12351
1659430031.976145,12380
1659430032.014399,12407
1659430032.053336,12449
1659430032.092274,12474
1659430032.131211,12484
1659430032.173223,12512
1659430032.215234,12510
1659430032.254171,12539
1659430032.293109,12559
1659430032.332046,12583
1659430032.373033,12597
1659430032.41402,12613
1659430032.453299,12618
1659430032.492578,12625
1659430032.531857,12631
1659430032.56977,12624
1659430032.607682,12630
1659430032.645595,12633
1659430032.688631,12637
1659430032.731667,12642
1659430032.769922,12655
1659430032.808176,12668
1659430032.84643,12669
1659430032.886905,12676
1659430032.927379,12684
1659430032.97144,12707
1659430033.015501,12729
1659430033.059561,12738
1659430033.093888,12742
1659430033.128214,12749
1659430033.171933,12750
1659430033.215653,12754
1659430033.259372,12761
1659430033.298309,12764
1659430033.337247,12773
1659430033.376184,12771
1659430033.415941,12783
1659430033.455698,12774
1659430033.495456,12763
1659430033.535213,12769
1659430033.57497,12773
1659430033.614249,12764
1659430033.653528,12768
1659430033.692807,12765
1659430033.735331,12761
1659430033.777854,12755
1659430033.815767,12740
1659430033.85368,12741
1659430033.891593,12745
1659430033.933604,12743
1659430033.975616,12743
1659430034.014211,12733
1659430034.052807,12727
1659430034.091403,12728
1659430034.130682,12731
1659430034.169961,12721
1659430034.20924,12716
1659430034.250739,12714
1659430034.292238,12710
1659430034.331517,12706
1659430034.370796,12711
1659430034.410075,12705
1659430034.451062,12705
1659430034.492049,12713
1659430034.534573,12712
1659430034.577096,12715
1659430034.618766,12721
1659430034.660436,12715
1659430034.702106,12716
1659430034.743776,12715
1659430034.785446,12706
1659430034.827116,12703
1659430034.865712,12701
1659430034.904307,12700
1659430034.942903,12696
1659430034.984402,12699
1659430035.025902,12683
1659430035.064839,12678
1659430035.103776,12660
1659430035.142714,12649
1659430035.18131,12649
1659430035.219906,12641
1659430035.258502,12634
1659430035.300001,12625
1659430035.3415,12632
1659430035.380095,12617
1659430035.418691,12622
1659430035.457287,12598
1659430035.496225,12579
1659430035.535162,12581
1659430035.5741,12574
1659430035.616623,12570
1659430035.659147,12561
1659430035.697743,12566
1659430035.736339,12559
1659430035.774935,12562
1659430035.816434,12542
1659430035.857933,12529
1659430035.901994,12522
1659430035.946054,12510
1659430035.990115,12501
1659430036.02837,12487
1659430036.066624,12482
1659430036.104878,12459
1659430036.14689,12460
1659430036.188901,12445
1659430036.227497,12436
1659430036.266093,12429
1659430036.304689,12424
1659430036.345163,12420
1659430036.385638,12412
1659430036.422782,12403
1659430036.459926,12400
1659430036.49707,12380
1659430036.534214,12349
1659430036.576226,12324
1659430036.618237,12303
1659430036.657858,12286
1659430036.697479,12293
1659430036.737099,12283
1659430036.778086,12274
1659430036.819073,12269
1659430036.858352,12246
1659430036.897631,12226
1659430036.93691,12205
1659430036.978921,12199
1659430037.020932,12194
1659430037.060211,12205
1659430037.09949,12190
1659430037.138769,12164
1659430037.179756,12122
1659430037.220743,12075
1659430037.260022,12043
1659430037.299301,12026
1659430037.33858,12022
1659430037.379054,12009
1659430037.419529,11992
1659430037.463931,11960
1659430037.508333,11937
1659430037.552736,11927
1659430037.592356,11915
1659430037.631977,11923
1659430037.671597,11924
1659430037.712584,11928
1659430037.753571,11924
1659430037.792508,11904
1659430037.831446,11848
1659430037.870383,11779
1659430037.912395,11735
1659430037.954406,11726
1659430037.993685,11723
1659430038.032964,11710
1659430038.072243,11703
1659430038.110839,11708
1659430038.149435,11700
1659430038.188031,11653
1659430038.230042,11588
1659430038.272053,11563
1659430038.310308,11557
1659430038.348562,11556
1659430038.386817,11547
1659430038.428316,11511
1659430038.469815,11447
1659430038.509094,11384
1659430038.548373,11355
1659430038.587652,11335
1659430038.625564,11337
1659430038.663477,11334
1659430038.70139,11349
1659430038.742889,11335
1659430038.784388,11332
1659430038.826912,11335
1659430038.869436,11318
1659430038.908373,11312
1659430038.94731,11309
1659430038.986248,11313
1659430039.030309,11267
1659430039.074369,11165
1659430039.11843,11063
1659430039.152244,11003
1659430039.186059,10976
1659430039.230461,10952
1659430039.274863,10944
1659430039.319265,10916
1659430039.352567,10896
1659430039.385869,10876
1659430039.42993,10866
1659430039.47399,10856
1659430039.518051,10853
1659430039.556647,10850
1659430039.595243,10847
1659430039.633839,10853
1659430039.674313,10804
1659430039.714788,10701
1659430039.753725,10616
1659430039.792663,10567
1659430039.8316,10541
1659430039.870538,10547
1659430039.909475,10566
1659430039.948412,10562
1659430039.98735,10564
1659430040.026287,10558
1659430040.065225,10566
1659430040.107236,10579
1659430040.149247,10581
1659430040.188185,10578
1659430040.227122,10575
1659430040.26606,10588
1659430040.310804,10588
1659430040.355547,10570
1659430040.400291,10488
1659430040.441791,10410
1659430040.483289,10384
1659430040.522568,10368
1659430040.561847,10381
1659430040.601126,10389
1659430040.641601,10397
1659430040.682076,10392
1659430040.721013,10402
1659430040.75995,10410
1659430040.798888,10416
1659430040.837484,10429
1659430040.876079,10442
1659430040.914675,10460
1659430040.953613,10463
1659430040.99255,10471
1659430041.031488,10484
1659430041.073499,10506
1659430041.11551,10518
1659430041.154789,10516
1659430041.194068,10470
1659430041.233347,10415
1659430041.274334,10425
1659430041.315321,10428
1659430041.354258,10447
1659430041.393196,10493
1659430041.432133,10532
1659430041.474145,10567
1659430041.516156,10595
1659430041.554752,10622
1659430041.593348,10643
1659430041.631944,10690
1659430041.67293,10710
1659430041.713917,10729
1659430041.75832,10754
1659430041.802722,10781
1659430041.847124,10809
1659430041.885379,10842
1659430041.923633,10881
1659430041.961887,10865
1659430042.003899,10816
1659430042.04591,10759
1659430042.084847,10749
1659430042.123785,10780
1659430042.162722,10805
1659430042.204221,10843
1659430042.245721,10844
1659430042.284317,10855
1659430042.322912,10880
1659430042.361508,10903
1659430042.400787,10924
1659430042.440066,10940
1659430042.479345,10964
1659430042.521357,10985
1659430042.563368,11018
1659430042.601281,11042
1659430042.639194,11085
1659430042.677106,11109
1659430042.718605,11085
1659430042.760104,11033
1659430042.799042,11009
1659430042.837979,11016
1659430042.876917,11024
1659430042.915513,11061
1659430042.954108,11082
1659430042.992704,11098
1659430043.034716,11118
1659430043.076727,11130
1659430043.115323,11142
1659430043.153919,11160
1659430043.192515,11179
1659430043.233502,11202
1659430043.274488,11224
1659430043.319574,11232
1659430043.364659,11257
1659430043.409745,11277
1659430043.443559,11284
1659430043.477373,11261
1659430043.521775,11189
1659430043.566178,11135
1659430043.61058,11105
1659430043.643882,11099
1659430043.677183,11114
1659430043.721927,11127
1659430043.766671,11142
1659430043.811415,11149
1659430043.850011,11159
1659430043.888607,11158
1659430043.927203,11169
1659430043.968189,11178
1659430044.009176,11186
1659430044.048455,11187
1659430044.087734,11200
1659430044.127013,11210
1659430044.168,11218
1659430044.208987,11252
1659430044.248266,11258
1659430044.287545,11244
1659430044.326824,11187
1659430044.366103,11120
1659430044.405382,11101
1659430044.444661,11087
1659430044.485647,11098
1659430044.526634,11121
1659430044.565572,11148
1659430044.604509,11148
1659430044.643446,11150
1659430044.68597,11166
1659430044.728494,11179
1659430044.76709,11194
1659430044.805686,11205
1659430044.844282,11230
1659430044.885268,11244
1659430044.926255,11277
1659430044.965193,11288
1659430045.00413,11345
1659430045.043067,11432
1659430045.084567,11494
1659430045.126066,11541
1659430045.165413,11507
1659430045.20476,11449
1659430045.244107,11422
1659430045.283455,11416
1659430045.322802,11415
1659430045.36174,11389
1659430045.400677,11371
1659430045.439614,11373
1659430045.481626,11405
1659430045.523637,11440
1659430045.568381,11489
1659430045.613125,11520
1659430045.657869,11532
1659430045.690658,11556
1659430045.723448,11565
1659430045.76785,11572
1659430045.812253,11628
1659430045.856655,11707
1659430045.895592,11713
1659430045.93453,11693
1659430045.973467,11740
1659430046.015991,11762
1659430046.058515,11736
1659430046.096769,11704
1659430046.135023,11691
1659430046.173278,11646
1659430046.211532,11662
1659430046.249786,11738
1659430046.28804,11740
1659430046.329027,11725
1659430046.370014,11721
1659430046.408952,11732
1659430046.447889,11773
1659430046.486826,11837
1659430046.528325,11900
1659430046.569824,11942
1659430046.609103,11929
1659430046.648382,11923
1659430046.687661,11938
1659430046.726599,11955
1659430046.765536,11977
1659430046.804474,11969
1659430046.845973,11896
1659430046.887472,11835
1659430046.932216,11797
1659430046.97696,11790
1659430047.021704,11773
1659430047.05603,11767
1659430047.090356,11753
1659430047.134076,11736
1659430047.177795,11723
1659430047.221514,11748
1659430047.254816,11794
1659430047.288118,11841
1659430047.332178,11861
1659430047.376239,11869
1659430047.4203,11864
1659430047.458896,11886
1659430047.497492,11924
1659430047.536088,11974
1659430047.578099,11980
1659430047.620111,11947
1659430047.659389,11865
1659430047.698668,11784
1659430047.737947,11761
1659430047.778934,11743
1659430047.819921,11727
1659430047.858858,11728
1659430047.897796,11733
1659430047.936733,11741
1659430047.976012,11742
1659430048.015291,11772
1659430048.05457,11798
1659430048.095557,11840
1659430048.136544,11854
1659430048.175139,11865
1659430048.213735,11886
1659430048.252331,11898
1659430048.290927,11932
1659430048.329523,11957
1659430048.368119,11972
1659430048.409618,11925
1659430048.451117,11847
1659430048.492616,11808
1659430048.534115,11808
1659430048.57237,11817
1659430048.610624,11854
1659430048.648878,11892
1659430048.693281,11927
1659430048.737683,11922
1659430048.782085,11922
1659430048.815387,11932
1659430048.848689,11938
1659430048.893774,11945
1659430048.93886,11972
1659430048.983945,11984
1659430049.016222,11991
1659430049.048499,12014
1659430049.092901,12029
1659430049.137304,12039
1659430049.181706,12006
1659430049.220644,11932
1659430049.259581,11872
1659430049.298518,11837
1659430049.34053,11833
1659430049.382541,11837
1659430049.421137,11854
1659430049.459733,11877
1659430049.498329,11904
1659430049.539828,11922
1659430049.581327,11929
1659430049.619581,11928
1659430049.657836,11891
1659430049.69609,11869
1659430049.734686,11882
1659430049.773282,11904
1659430049.811878,11902
1659430049.851157,11890
1659430049.890436,11835
1659430049.929715,11744
1659430049.971726,11712
1659430050.013738,11684
1659430050.055237,11672
1659430050.096736,11676
1659430050.136015,11675
1659430050.175294,11668
1659430050.214573,11661
1659430050.256584,11656
1659430050.298596,11655
1659430050.337533,11656
1659430050.376471,11666
1659430050.415408,11672
1659430050.455165,11675
1659430050.494922,11691
1659430050.534679,11696
1659430050.574437,11689
1659430050.614194,11609
1659430050.655693,11513
1659430050.697192,11462
1659430050.738179,11419
1659430050.779166,11405
1659430050.818103,11403
1659430050.85704,11404
1659430050.895978,11400
1659430050.94038,11402
1659430050.984782,11391
1659430051.029185,11382
1659430051.067781,11395
1659430051.106376,11395
1659430051.144972,11399
1659430051.187496,11394
1659430051.23002,11410
1659430051.268616,11415
1659430051.307212,11431
1659430051.345808,11364
1659430051.387307,11268
1659430051.428806,11222
1659430051.46706,11183
1659430051.505314,11172
1659430051.543569,11166
1659430051.582506,11171
1659430051.621444,11164
1659430051.660381,11161
1659430051.70188,11159
1659430051.743379,11161
1659430051.782317,11179
1659430051.821254,11189
1659430051.860191,11213
1659430051.898446,11226
1659430051.9367,11244
1659430051.974954,11262
1659430052.015941,11281
1659430052.056928,11288
1659430052.09689,11228
1659430052.136852,11165
1659430052.176814,11119
1659430052.218313,11117
1659430052.259812,11112
1659430052.303873,11128
1659430052.347934,11162
1659430052.391995,11163
1659430052.425809,11174
1659430052.459623,11175
1659430052.504367,11193
1659430052.549111,11211
1659430052.593855,11239
1659430052.626644,11245
1659430052.659433,11263
1659430052.703836,11299
1659430052.748238,11322
1659430052.79264,11340
1659430052.831919,11340
1659430052.871198,11295
1659430052.910477,11227
1659430052.950952,11182
1659430052.991426,11172
1659430053.031047,11196
1659430053.070667,11215
1659430053.110288,11246
1659430053.151787,11322
1659430053.193286,11356
1659430053.231882,11376
1659430053.270478,11393
1659430053.309074,11400
1659430053.348353,11405
1659430053.387632,11440
1659430053.426911,11472
1659430053.469434,11450
1659430053.511958,11410
1659430053.550554,11395
1659430053.58915,11360
1659430053.627746,11332
1659430053.669757,11317
1659430053.711769,11326
1659430053.750706,11323
1659430053.789644,11314
1659430053.828581,11278
1659430053.87008,11256
1659430053.911579,11258
1659430053.949833,11274
1659430053.988088,11335
1659430054.026342,11396
1659430054.067841,11413
1659430054.10934,11394
1659430054.147595,11388
1659430054.185849,11430
1659430054.224103,11473
1659430054.268847,11462
1659430054.313591,11365
1659430054.358335,11301
1659430054.391637,11282
1659430054.424938,11302
1659430054.469341,11344
1659430054.513743,11366
1659430054.558145,11362
1659430054.599132,11345
1659430054.640119,11318
1659430054.679398,11312
1659430054.718677,11329
1659430054.757956,11346
1659430054.79621,11355
1659430054.834465,11373
1659430054.872719,11377
1659430054.91473,11373
1659430054.956742,11344
1659430054.995337,11272
1659430055.033933,11215
1659430055.072529,11183
1659430055.111125,11163
1659430055.149721,11164
1659430055.188317,11169
1659430055.228791,11164
1659430055.269266,11171
1659430055.308203,11197
1659430055.347141,11209
1659430055.386078,11218
1659430055.42809,11245
1659430055.470101,11271
1659430055.509038,11296
1659430055.547976,11345
1659430055.586913,11397
1659430055.6279,11424
1659430055.668887,11352
1659430055.709464,11262
1659430055.750041,11217
1659430055.790617,11204
1659430055.831194,11203
1659430055.871771,11208
1659430055.915832,11198
1659430055.959893,11183
1659430056.003954,11171
1659430056.036743,11183
1659430056.069532,11181
1659430056.113935,11202
1659430056.158337,11222
1659430056.202739,11253
1659430056.236553,11275
1659430056.270368,11264
1659430056.31477,11283
1659430056.359172,11313
1659430056.403574,11327
1659430056.44217,11279
1659430056.480766,11224
1659430056.519362,11159
1659430056.560861,11123
1659430056.60236,11138
1659430056.641639,11150
1659430056.680918,11165
1659430056.720197,11156
1659430056.762209,11153
1659430056.80422,11155
1659430056.842816,11177
1659430056.881412,11188
1659430056.920008,11201
1659430056.959287,11218
1659430056.998566,11232
1659430057.037845,11245
1659430057.078832,11258
1659430057.119818,11280
1659430057.158414,11299
1659430057.19701,11271
1659430057.235606,11200
1659430057.274543,11152
1659430057.313481,11148
1659430057.352418,11148
1659430057.393917,11180
1659430057.435416,11185
1659430057.475891,11196
1659430057.516365,11210
1659430057.555644,11210
1659430057.594923,11224
1659430057.634202,11244
1659430057.676214,11263
1659430057.718225,11269
1659430057.75648,11297
1659430057.794734,11303
1659430057.832988,11334
1659430057.87739,11374
1659430057.921793,11393
1659430057.966195,11402
1659430058.000009,11361
1659430058.033823,11310
1659430058.078226,11274
1659430058.122628,11291
1659430058.16703,11299
1659430058.205626,11318
1659430058.244222,11343
1659430058.282818,11343
1659430058.324317,11346
1659430058.365816,11367
1659430058.403729,11383
1659430058.441642,11398
1659430058.479554,11408
1659430058.521053,11418
1659430058.562552,11438
1659430058.601831,11455
1659430058.64111,11464
1659430058.680389,11493
1659430058.718985,11505
1659430058.757581,11503
1659430058.796177,11463
1659430058.838189,11416
1659430058.8802,11413
1659430058.919479,11425
1659430058.958758,11464
1659430058.998037,11483
1659430059.040048,11505
1659430059.08206,11501
1659430059.120997,11510
1659430059.159935,11532
1659430059.198872,11547
1659430059.240371,11559
1659430059.28187,11571
1659430059.320466,11586
1659430059.359062,11602
1659430059.397658,11624
1659430059.439669,11631
1659430059.481681,11646
1659430059.526425,11644
1659430059.571169,11616
1659430059.615912,11598
1659430059.654508,11618
1659430059.693104,11644
1659430059.7317,11675
1659430059.772175,11700
1659430059.812649,11718
1659430059.851928,11725
1659430059.891207,11748
1659430059.930486,11766
1659430059.969423,11814
1659430060.008361,11847
1659430060.047298,11877
1659430060.08931,11894
1659430060.131321,11945
1659430060.170259,11970
1659430060.209196,11982
1659430060.248133,11991
1659430060.290145,11945
1659430060.332156,11915
1659430060.37041,11871
1659430060.408665,11834
1659430060.446919,11836
1659430060.486198,11859
1659430060.525477,11902
1659430060.564756,11932
1659430060.605743,11951
1659430060.64673,11959
1659430060.685326,11982
1659430060.723921,11979
1659430060.762517,11992
1659430060.803504,11997
1659430060.844491,11998
1659430060.88377,11996
1659430060.923049,11954
1659430060.962328,11883
1659430061.003571,11816
1659430061.044814,11792
1659430061.086056,11780
1659430061.1273,11783
1659430061.166237,11799
1659430061.205174,11787
1659430061.244112,11778
1659430061.286123,11777
1659430061.328135,11777
1659430061.366389,11783
1659430061.404643,11793
1659430061.442898,11777
1659430061.483884,11781
1659430061.524871,11796
1659430061.56415,11781
1659430061.603429,11707
1659430061.642708,11640
1659430061.686427,11586
1659430061.730146,11573
1659430061.773866,11579
1659430061.815877,11588
1659430061.857889,11587
1659430061.896826,11575
1659430061.935763,11567
1659430061.974701,11582
1659430062.0162,11596
1659430062.057699,11584
1659430062.095356,11549
1659430062.133012,11537
1659430062.170669,11575
1659430062.208325,11562
1659430062.250849,11449
1659430062.293373,11349
1659430062.331627,11291
1659430062.369882,11287
1659430062.408136,11295
1659430062.450147,11285
1659430062.492159,11272
1659430062.531438,11262
1659430062.570717,11267
1659430062.609996,11257
1659430062.652007,11245
1659430062.694019,11241
1659430062.732615,11236
1659430062.77121,11242
1659430062.809806,11248
1659430062.851305,11212
1659430062.892804,11133
1659430062.931059,11076
1659430062.969313,11019
1659430063.007567,11003
1659430063.051628,11006
1659430063.095689,11000
1659430063.13975,11000
1659430063.174076,10987
1659430063.208403,10994
1659430063.252805,10989
1659430063.297207,11003
1659430063.341609,11007
1659430063.382596,11016
1659430063.423583,11033
1659430063.463204,11036
1659430063.502824,11054
1659430063.542445,11043
1659430063.580699,10978
1659430063.618953,10918
1659430063.657208,10890
1659430063.699219,10881
1659430063.74123,10880
1659430063.779826,10895
1659430063.818422,10901
1659430063.857018,10914
1659430063.898005,10908
1659430063.938992,10911
1659430063.977246,10930
1659430064.0155,10946
1659430064.053755,10966
1659430064.092692,10992
1659430064.131629,11030
1659430064.170567,11046
1659430064.212066,11084
1659430064.253565,11097
1659430064.292161,11055
1659430064.330757,10996
1659430064.369353,10947
1659430064.410852,10942
1659430064.452351,10946
1659430064.491288,10977
1659430064.530226,10987
1659430064.569163,11020
1659430064.611175,11031
1659430064.653186,11053
1659430064.69793,11085
1659430064.742674,11101
1659430064.787418,11129
1659430064.819695,11160
1659430064.851972,11188
1659430064.896033,11203
1659430064.940094,11241
1659430064.984154,11263
1659430065.023092,11273
1659430065.062029,11252
1659430065.100966,11201
1659430065.14349,11195
1659430065.186014,11184
1659430065.224268,11175
1659430065.262523,11190
1659430065.300777,11215
1659430065.342788,11236
1659430065.3848,11270
1659430065.423737,11306
1659430065.462675,11337
1659430065.501612,11362
1659430065.540891,11370
1659430065.58017,11388
1659430065.619449,11411
1659430065.660948,11426
1659430065.702447,11454
1659430065.741726,11456
1659430065.781005,11415
1659430065.820284,11348
1659430065.861271,11328
1659430065.902258,11313
1659430065.941537,11319
1659430065.980816,11352
1659430066.020095,11356
1659430066.059032,11356
1659430066.09797,11358
1659430066.136907,11382
1659430066.178406,11389
1659430066.219905,11416
1659430066.259867,11431
1659430066.299829,11452
1659430066.339792,11480
1659430066.379754,11497
1659430066.419716,11515
1659430066.461215,11523
1659430066.502714,11496
1659430066.540968,11422
1659430066.579223,11371
1659430066.617477,11343
1659430066.658976,11317
1659430066.700475,11335
1659430066.740437,11335
1659430066.780399,11352
1659430066.820361,11352
1659430066.861348,11348
1659430066.902335,11365
1659430066.946737,11379
1659430066.99114,11386
1659430067.035542,11398
1659430067.074479,11417
1659430067.113417,11417
1659430067.152354,11437
1659430067.192829,11451
1659430067.233303,11466
1659430067.271899,11432
1659430067.310495,11363
1659430067.349091,11299
1659430067.38837,11274
1659430067.427649,11249
1659430067.466928,11257
1659430067.507402,11262
1659430067.547877,11273
1659430067.586814,11270
1659430067.625751,11280
1659430067.664689,11281
1659430067.707213,11287
1659430067.749736,11297
1659430067.788332,11308
1659430067.826928,11328
1659430067.865524,11349
1659430067.904461,11365
1659430067.943399,11379
1659430067.982336,11399
1659430068.024348,11379
1659430068.066359,11324
1659430068.104614,11268
1659430068.142868,11231
1659430068.181122,11225
1659430068.223646,11243
1659430068.26617,11255
1659430068.305107,11263
1659430068.344044,11270
1659430068.382982,11279
1659430068.423969,11295
1659430068.464956,11314
1659430068.508675,11332
1659430068.552394,11337
1659430068.596113,11349
1659430068.63044,11353
1659430068.664766,11370
1659430068.70951,11397
1659430068.754254,11410
1659430068.798998,11408
1659430068.837935,11348
1659430068.876873,11297
1659430068.91581,11266
1659430068.957309,11268
1659430068.998808,11276
1659430069.038087,11302
1659430069.077366,11305
1659430069.116645,11311
1659430069.158144,11320
1659430069.199643,11341
1659430069.238581,11357
1659430069.277518,11370
1659430069.316456,11389
1659430069.355052,11389
1659430069.393647,11417
1659430069.432243,11424
1659430069.47323,11444
1659430069.514217,11467
1659430069.552813,11447
1659430069.591408,11384
1659430069.630004,11324
1659430069.669625,11310
1659430069.709245,11304
1659430069.748866,11338
1659430069.78934,11345
1659430069.829815,11353
1659430069.874559,11379
1659430069.919302,11393
1659430069.964046,11416
1659430069.996836,11432
1659430070.029625,11469
1659430070.074028,11496
1659430070.11843,11516
1659430070.162832,11533
1659430070.20177,11550
1659430070.240707,11583
1659430070.279644,11594
1659430070.318582,11575
1659430070.357519,11509
1659430070.396457,11469
1659430070.437443,11466
1659430070.47843,11479
1659430070.517026,11495
1659430070.555622,11502
1659430070.594218,11518
1659430070.632814,11524
1659430070.67141,11532
1659430070.710006,11543
1659430070.752017,11546
1659430070.794029,11565
1659430070.831941,11578
1659430070.869854,11600
1659430070.907767,11598
1659430070.95029,11601
1659430070.992814,11583
1659430071.03141,11538
1659430071.070006,11467
1659430071.108602,11430
1659430071.150101,11431
1659430071.1916,11437
1659430071.230879,11442
1659430071.270158,11444
1659430071.309437,11442
1659430071.350936,11446
1659430071.392435,11457
1659430071.433764,11464
1659430071.475092,11465
1659430071.51642,11486
1659430071.557749,11513
1659430071.599077,11524
1659430071.640405,11539
1659430071.679001,11510
1659430071.717597,11444
1659430071.756193,11383
1659430071.797692,11349
1659430071.839191,11339
1659430071.88069,11343
1659430071.922189,11348
1659430071.96181,11354
1659430072.00143,11373
1659430072.041051,11374
1659430072.08255,11388
1659430072.124049,11395
1659430072.163328,11402
1659430072.202607,11409
1659430072.241886,11424
1659430072.283897,11436
1659430072.325909,11443
1659430072.364163,11408
1659430072.402417,11330
1659430072.440672,11258
1659430072.479609,11221
1659430072.518547,11205
1659430072.557484,11240
1659430072.600008,11278
1659430072.642532,11255
1659430072.680444,11195
1659430072.718357,11174
1659430072.75627,11181
1659430072.795208,11215
1659430072.834145,11234
1659430072.873082,11255
1659430072.914581,11276
1659430072.95608,11299
1659430072.99758,11311
1659430073.039079,11238
1659430073.077333,11133
1659430073.115587,11076
1659430073.153841,11045
1659430073.195853,11035
1659430073.237864,10982
1659430073.27646,10902
1659430073.315056,10860
1659430073.353652,10881
1659430073.398396,10973
1659430073.44314,11073
1659430073.487884,11204
1659430073.521185,11311
1659430073.554487,11420
1659430073.59889,11493
1659430073.643292,11547
1659430073.687694,11573
1659430073.725949,11544
1659430073.764203,11468
1659430073.802457,11382
1659430073.843956,11350
1659430073.885455,11344
1659430073.924393,11346
1659430073.96333,11374
1659430074.002268,11383
1659430074.043254,11352
1659430074.084241,11298
1659430074.121642,11283
1659430074.159042,11275
1659430074.196443,11284
1659430074.233843,11315
1659430074.275854,11348
1659430074.317866,11366
1659430074.362268,11356
1659430074.40667,11354
1659430074.451073,11334
1659430074.490352,11262
1659430074.529631,11165
1659430074.56891,11097
1659430074.610409,11004
1659430074.651908,10961
1659430074.690845,10957
1659430074.729783,10952
1659430074.76872,10969
1659430074.810219,10972
1659430074.851718,10992
1659430074.890314,11011
1659430074.92891,11036
1659430074.967506,11048
1659430075.006102,11065
1659430075.044698,11095
1659430075.083294,11111
1659430075.125818,11134
1659430075.168341,11132
1659430075.207279,11076
1659430075.246216,11004
1659430075.285153,10967
1659430075.326653,10962
1659430075.368152,10976
1659430075.407089,10998
1659430075.446027,11008
1659430075.484964,11010
1659430075.524926,11033
1659430075.564888,11044
1659430075.60485,11092
1659430075.645837,11143
1659430075.686824,11187
1659430075.725761,11211
1659430075.764699,11233
1659430075.803636,11258
1659430075.845648,11263
1659430075.887659,11221
1659430075.931037,11121
1659430075.974414,11049
1659430076.017792,11022
1659430076.057071,11003
1659430076.09635,11014
1659430076.135629,11033
1659430076.176616,11031
1659430076.217602,11026
1659430076.256198,11033
1659430076.294794,11059
1659430076.33339,11071
1659430076.371644,11099
1659430076.409899,11108
1659430076.448153,11137
1659430076.490677,11152
1659430076.533201,11176
1659430076.571796,11199
1659430076.610392,11154
1659430076.648988,11069
1659430076.689155,11011
1659430076.729322,10983
1659430076.769489,10969
1659430076.809656,10987
1659430076.849823,10993
1659430076.888078,11008
1659430076.926332,11029
1659430076.964586,11033
1659430077.008989,11040
1659430077.053391,11053
1659430077.097793,11075
1659430077.131607,11089
1659430077.165421,11118
1659430077.209482,11134
1659430077.253543,11157
1659430077.297604,11192
1659430077.3362,11168
1659430077.374795,11094
1659430077.413391,11028
1659430077.45489,11013
1659430077.49639,11003
1659430077.534644,11022
1659430077.572898,11042
1659430077.611152,11058
1659430077.650431,11076
1659430077.68971,11090
1659430077.728989,11119
1659430077.771001,11143
1659430077.813012,11160
1659430077.851608,11178
1659430077.890204,11201
1659430077.9288,11219
1659430077.970811,11246
1659430078.012823,11280
1659430078.052443,11264
1659430078.092064,11203
1659430078.131685,11142
1659430078.172671,11118
1659430078.213658,11137
1659430078.252254,11141
1659430078.29085,11172
1659430078.329446,11181
1659430078.370945,11200
1659430078.412444,11215
1659430078.451723,11241
1659430078.491002,11254
1659430078.530281,11268
1659430078.571268,11278
1659430078.612254,11305
1659430078.651533,11336
1659430078.690812,11372
1659430078.730091,11394
1659430078.774494,11398
1659430078.818896,11346
1659430078.863298,11290
1659430078.904285,11272
1659430078.945272,11279
1659430078.984892,11283
1659430079.024513,11301
1659430079.064133,11318
1659430079.105633,11316
1659430079.147132,11328
1659430079.185728,11339
1659430079.224323,11361
1659430079.262919,11381
1659430079.301515,11411
1659430079.340111,11448
1659430079.378707,11494
1659430079.421231,11512
1659430079.463754,11502
1659430079.502009,11490
1659430079.540263,11450
1659430079.578517,11428
1659430079.617113,11425
1659430079.655709,11468
1659430079.694305,11507
1659430079.735292,11536
1659430079.776278,11536
1659430079.815216,11533
1659430079.854153,11556
1659430079.893091,11563
1659430079.935102,11581
1659430079.977114,11598
1659430080.016051,11621
1659430080.054988,11648
1659430080.093926,11670
1659430080.135425,11677
1659430080.176924,11643
1659430080.215178,11595
1659430080.253433,11544
1659430080.291687,11534
1659430080.334211,11547
1659430080.376735,11568
1659430080.420795,11590
1659430080.464856,11589
1659430080.508917,11586
1659430080.547171,11598
1659430080.585426,11607
1659430080.62368,11611
1659430080.665179,11626
1659430080.706678,11644
1659430080.745615,11642
1659430080.784553,11658
1659430080.82349,11638
1659430080.862086,11569
1659430080.900682,11490
1659430080.939278,11448
1659430080.97924,11427
1659430081.019202,11414
1659430081.059164,11414
1659430081.103567,11417
1659430081.147969,11425
1659430081.192371,11442
1659430081.225161,11456
1659430081.25795,11469
1659430081.303377,11461
1659430081.348804,11448
1659430081.394231,11453
1659430081.427533,11454
1659430081.460835,11457
1659430081.504895,11435
1659430081.548956,11367
1659430081.593017,11311
1659430081.632296,11291
1659430081.671575,11271
1659430081.710854,11275
1659430081.751841,11273
1659430081.792827,11262
1659430081.83074,11245
1659430081.868653,11233
1659430081.906566,11242
1659430081.947143,11267
1659430081.98772,11278
1659430082.028296,11264
1659430082.068873,11270
1659430082.10945,11280
1659430082.150437,11292
1659430082.191424,11287
1659430082.230703,11237
1659430082.269982,11164
1659430082.309261,11113
1659430082.348198,11102
1659430082.387136,11097
1659430082.426073,11119
1659430082.467572,11131
1659430082.509071,11126
1659430082.548009,11134
1659430082.586946,11160
1659430082.625884,11182
1659430082.66687,11195
1659430082.707857,11209
1659430082.746111,11218
1659430082.784366,11248
1659430082.82262,11263
1659430082.864631,11272
1659430082.906643,11260
1659430082.945239,11191
1659430082.983835,11140
1659430083.02243,11092
1659430083.06615,11092
1659430083.109869,11113
1659430083.153588,11139
1659430083.18689,11137
1659430083.220191,11139
1659430083.261947,11145
1659430083.303702,11151
1659430083.345457,11150
1659430083.387213,11164
1659430083.425808,11177
1659430083.464404,11181
1659430083.503,11195
1659430083.545524,11212
1659430083.588048,11230
1659430083.626985,11238
1659430083.665923,11189
1659430083.70486,11141
1659430083.745847,11134
1659430083.786834,11137
1659430083.825429,11164
1659430083.864025,11191
1659430083.902621,11208
1659430083.944633,11212
1659430083.986644,11234
1659430084.030705,11249
1659430084.074766,11275
1659430084.118826,11291
1659430084.151616,11310
1659430084.184405,11331
1659430084.229491,11358
1659430084.274576,11379
1659430084.319662,11401
1659430084.358258,11398
1659430084.396853,11366
1659430084.435449,11325
1659430084.477973,11312
1659430084.520497,11318
1659430084.559434,11356
1659430084.598372,11383
1659430084.637309,11407
1659430084.679321,11410
1659430084.721332,11420
1659430084.759586,11427
1659430084.797841,11443
1659430084.836095,11459
1659430084.875032,11474
1659430084.91397,11496
1659430084.952907,11502
1659430084.991503,11521
1659430085.030099,11535
1659430085.068695,11530
1659430085.110706,11480
1659430085.152718,11435
1659430085.191655,11409
1659430085.230592,11408
1659430085.26953,11427
1659430085.311029,11427
1659430085.352528,11432
1659430085.396589,11448
1659430085.44065,11449
1659430085.48471,11454
1659430085.519037,11466
1659430085.553363,11476
1659430085.593895,11490
1659430085.634426,11495
1659430085.674957,11511
1659430085.715489,11528
1659430085.75602,11539
1659430085.796551,11495
1659430085.837083,11439
1659430085.877614,11389
1659430085.918145,11361
1659430085.958254,11344
1659430085.998363,11361
1659430086.038471,11374
1659430086.078579,11372
1659430086.118688,11372
1659430086.158796,11369
1659430086.198905,11391
1659430086.236988,11388
1659430086.275072,11395
1659430086.313155,11400
1659430086.351239,11401
1659430086.389323,11404
1659430086.427406,11424
1659430086.46993,11424
1659430086.512454,11376
1659430086.551391,11319
1659430086.590328,11263
1659430086.629266,11234
1659430086.670253,11238
1659430086.71124,11242
1659430086.750519,11254
1659430086.789798,11258
1659430086.829077,11260
1659430086.871088,11255
1659430086.913099,11263
1659430086.957502,11262
1659430087.001904,11267
1659430087.046306,11275
1659430087.085244,11281
1659430087.124181,11307
1659430087.163119,11330
1659430087.202466,11346
1659430087.241813,11303
1659430087.28116,11244
1659430087.320508,11210
1659430087.359855,11198
1659430087.399134,11212
1659430087.438413,11222
1659430087.477692,11245
1659430087.516629,11244
1659430087.555567,11253
1659430087.594504,11281
1659430087.636003,11296
1659430087.677502,11304
1659430087.716781,11310
1659430087.75606,11327
1659430087.795339,11344
1659430087.837351,11374
1659430087.879362,11392
1659430087.917958,11399
1659430087.956554,11381
1659430087.99515,11325
1659430088.037161,11291
1659430088.079173,11282
1659430088.11811,11297
1659430088.157048,11316
1659430088.195985,11358
1659430088.240046,11363
1659430088.284107,11375
1659430088.328167,11392
1659430088.369667,11406
1659430088.411166,11420
1659430088.450103,11431
1659430088.48904,11447
1659430088.527978,11466
1659430088.569477,11486
1659430088.610976,11511
1659430088.649914,11517
1659430088.688851,11473
1659430088.727788,11429
1659430088.767067,11418
1659430088.806346,11420
1659430088.845625,11435
1659430088.886612,11447
1659430088.927599,11466
1659430088.966878,11467
1659430089.006157,11469
1659430089.045436,11492
1659430089.087447,11499
1659430089.129459,11506
1659430089.167713,11509
1659430089.205967,11517
1659430089.244222,11537
1659430089.282476,11544
1659430089.32073,11523
1659430089.358985,11454
1659430089.400996,11404
1659430089.443007,11372
1659430089.481945,11366
1659430089.520882,11364
1659430089.55982,11370
1659430089.600294,11383
1659430089.640769,11383
1659430089.679364,11385
1659430089.71796,11388
1659430089.756556,11398
1659430089.79908,11396
1659430089.841604,11403
1659430089.885664,11414
1659430089.929725,11425
1659430089.973786,11436
1659430090.007088,11397
1659430090.04039,11318
1659430090.085134,11264
1659430090.129877,11240
1659430090.174621,11226
1659430090.213559,11235
1659430090.252496,11247
1659430090.291434,11245
1659430090.333957,11250
1659430090.376481,11241
1659430090.415419,11250
1659430090.454356,11244
1659430090.493293,11248
1659430090.531548,11261
1659430090.569802,11258
1659430090.608056,11263
1659430090.649043,11275
1659430090.69003,11252
1659430090.729309,11180
1659430090.768588,11119
1659430090.807867,11075
1659430090.849366,11063
1659430090.890865,11073
1659430090.929461,11077
1659430090.968057,11076
1659430091.006653,11071
1659430091.046273,11073
1659430091.085894,11076
1659430091.125514,11100
1659430091.167013,11090
1659430091.208513,11104
1659430091.250012,11115
1659430091.291511,11130
1659430091.331131,11135
1659430091.370752,11140
1659430091.410372,11090
1659430091.451359,11017
1659430091.492346,10987
1659430091.5306,10965
1659430091.568855,10975
1659430091.607109,10983
1659430091.651853,10994
1659430091.696597,11006
1659430091.74134,11006
1659430091.774642,11018
1659430091.807944,11019
1659430091.851663,11027
1659430091.895382,11039
1659430091.939102,11048
1659430091.972916,11065
1659430092.00673,11079
1659430092.051132,11102
1659430092.095534,11086
1659430092.139937,11035
1659430092.178191,10984
1659430092.216445,10971
1659430092.2547,10977
1659430092.297224,10992
1659430092.339747,11005
1659430092.378343,11017
1659430092.416939,11035
1659430092.455535,11039
1659430092.494131,11049
1659430092.532727,11069
1659430092.571322,11076
1659430092.609918,11101
1659430092.648514,11114
1659430092.68711,11139
1659430092.731171,11150
1659430092.775232,11164
1659430092.819293,11124
1659430092.857547,11075
1659430092.895801,11042
1659430092.934055,11036
1659430092.976579,11057
1659430093.019103,11089
1659430093.057357,11121
1659430093.095612,11131
1659430093.133866,11142
1659430093.175365,11162
1659430093.216864,11183
1659430093.256143,11216
1659430093.295422,11231
1659430093.334701,11261
1659430093.373638,11278
1659430093.412576,11306
1659430093.451513,11326
1659430093.493012,11338
1659430093.534512,11328
1659430093.573791,11286
1659430093.61307,11243
1659430093.652349,11222
1659430093.693335,11250
1659430093.734322,11265
1659430093.772918,11283
1659430093.811514,11318
1659430093.85011,11323
1659430093.892121,11335
1659430093.934133,11339
1659430093.973412,11347
1659430094.012691,11364
1659430094.05197,11393
1659430094.092444,11395
1659430094.132918,11404
1659430094.177662,11397
1659430094.222406,11366
1659430094.26715,11306
1659430094.306087,11278
1659430094.345025,11286
1659430094.383962,11283
1659430094.425974,11283
1659430094.467985,11287
1659430094.506922,11301
1659430094.54586,11308
1659430094.584797,11317
1659430094.626809,11327
1659430094.66882,11329
1659430094.707075,11339
1659430094.745329,11349
1659430094.783583,11363
1659430094.822862,11384
1659430094.862141,11404
1659430094.90142,11396
1659430094.942919,11319
1659430094.984418,11269
1659430095.023014,11238
1659430095.06161,11214
1659430095.100206,11213
1659430095.140681,11218
1659430095.181155,11227
1659430095.220775,11235
1659430095.260396,11242
1659430095.300016,11251
1659430095.338612,11264
1659430095.377208,11259
1659430095.415804,11255
1659430095.456791,11268
1659430095.497778,11282
1659430095.537057,11282
1659430095.576336,11251
1659430095.615615,11175
1659430095.657626,11120
1659430095.699637,11111
1659430095.743698,11105
1659430095.787759,11122
1659430095.83182,11119
1659430095.864609,11121
1659430095.897399,11120
1659430095.941801,11124
1659430095.986203,11129
1659430096.030606,11133
1659430096.068518,11148
1659430096.106431,11158
1659430096.144344,11168
1659430096.186355,11180
1659430096.228367,11172
1659430096.267646,11126
1659430096.306925,11062
1659430096.346204,11039
1659430096.386678,11038
1659430096.427153,11059
1659430096.466432,11084
1659430096.505711,11111
1659430096.54499,11114
1659430096.583927,11117
1659430096.622864,11132
1659430096.661802,11146
1659430096.703301,11172
1659430096.7448,11190
1659430096.784079,11199
1659430096.823358,11212
1659430096.862637,11236
1659430096.904649,11230
1659430096.94666,11190
1659430096.984914,11145
1659430097.023169,11137
1659430097.061423,11169
1659430097.103947,11184
1659430097.14647,11208
1659430097.185408,11220
1659430097.224345,11239
1659430097.263283,11236
1659430097.304269,11258
1659430097.345256,11257
1659430097.383852,11263
1659430097.422448,11294
1659430097.461044,11318
1659430097.503567,11338
1659430097.546091,11336
1659430097.585029,11296
1659430097.623966,11230
1659430097.662904,11208
1659430097.704915,11192
1659430097.746927,11195
1659430097.788938,11210
1659430097.830949,11208
1659430097.869887,11204
1659430097.908824,11203
1659430097.947762,11215
1659430097.989261,11214
1659430098.03076,11229
1659430098.069014,11242
1659430098.107269,11254
1659430098.145523,11281
1659430098.189925,11290
1659430098.234328,11248
1659430098.27873,11162
1659430098.312032,11094
1659430098.345333,11067
1659430098.389394,11059
1659430098.433455,11077
1659430098.477516,11082
1659430098.516111,11094
1659430098.554707,11093
1659430098.593303,11100
1659430098.63429,11108
1659430098.675277,11106
1659430098.714214,11116
1659430098.753152,11127
1659430098.792089,11138
1659430098.834613,11154
1659430098.877137,11150
1659430098.915732,11083
1659430098.954328,11018
1659430098.992924,10970
1659430099.031862,10936
1659430099.070799,10954
1659430099.109736,10950
1659430099.151236,10957
1659430099.192735,10962
1659430099.231672,10964
1659430099.27061,10971
1659430099.309547,10984
1659430099.351046,10983
1659430099.392545,10993
1659430099.431141,11014
1659430099.469737,11023
1659430099.508333,11045
1659430099.549832,11043
1659430099.591331,10984
1659430099.629244,10905
1659430099.667156,10858
1659430099.705069,10847
1659430099.747081,10843
1659430099.789092,10863
1659430099.828713,10881
1659430099.868333,10881
1659430099.907954,10888
1659430099.952014,10887
1659430099.996075,10907
1659430100.040136,10908
1659430100.082148,10920
1659430100.124159,10930
1659430100.163438,10951
1659430100.202717,10961
1659430100.241996,10986
1659430100.284007,10983
1659430100.326019,10945
1659430100.364615,10894
1659430100.403211,10869
1659430100.441806,10865
1659430100.481085,10870
1659430100.520364,10893
1659430100.559643,10916
1659430100.600118,10922
1659430100.640592,10927
1659430100.679871,10938
1659430100.71915,10968
1659430100.758429,10978
1659430100.800441,11000
1659430100.842452,11024
1659430100.880706,11052
1659430100.918961,11079
1659430100.957215,11101
1659430100.996152,11126
1659430101.03509,11113
1659430101.074027,11081
1659430101.116551,11052
1659430101.159075,11066
1659430101.197329,11066
1659430101.235584,11081
1659430101.273838,11099
1659430101.315849,11133
1659430101.357861,11159
1659430101.396456,11178
1659430101.435052,11213
1659430101.473648,11250
1659430101.51566,11274
1659430101.557671,11299
1659430101.60139,11313
1659430101.64511,11346
1659430101.688829,11364
1659430101.722131,11388
1659430101.755432,11394
1659430101.799493,11341
1659430101.843554,11276
1659430101.887615,11285
1659430101.92621,11294
1659430101.964806,11297
1659430102.003402,11305
1659430102.045926,11309
1659430102.08845,11319
1659430102.127046,11362
1659430102.165642,11406
1659430102.204237,11422
1659430102.242833,11453
1659430102.281429,11468
1659430102.320025,11477
1659430102.362036,11497
1659430102.404048,11495
1659430102.442302,11457
1659430102.480556,11369
1659430102.518811,11282
1659430102.560822,11248
1659430102.602834,11257
1659430102.64143,11294
1659430102.680026,11342
1659430102.718621,11385
1659430102.757217,11403
1659430102.795813,11410
1659430102.834409,11374
1659430102.875396,11352
1659430102.916383,11359
1659430102.956549,11369
1659430102.996716,11396
1659430103.036884,11412
1659430103.077051,11417
1659430103.117218,11406
1659430103.159229,11388
1659430103.201241,11333
1659430103.240178,11254
1659430103.279115,11231
1659430103.318053,11258
1659430103.360577,11295
1659430103.4031,11320
1659430103.442038,11352
1659430103.480975,11385
1659430103.519913,11416
1659430103.564656,11411
1659430103.609401,11401
1659430103.654144,11412
1659430103.695643,11413
1659430103.737143,11426
1659430103.775738,11415
1659430103.814334,11370
1659430103.85293,11311
1659430103.891184,11291
1659430103.929439,11275
1659430103.967693,11280
1659430104.010217,11296
1659430104.052741,11288
1659430104.091336,11307
1659430104.129932,11332
1659430104.168528,11361
1659430104.210027,11379
1659430104.251526,11395
1659430104.290464,11388
1659430104.329401,11400
1659430104.368339,11443
1659430104.407959,11437
1659430104.44758,11366
1659430104.4872,11253
1659430104.528187,11195
1659430104.569174,11172
1659430104.608453,11159
1659430104.647732,11156
1659430104.687011,11148
1659430104.727998,11144
1659430104.768984,11132
1659430104.80758,11150
1659430104.846176,11149
1659430104.884772,11132
1659430104.928833,11143
1659430104.972893,11155
1659430105.016954,11155
1659430105.050256,11133
1659430105.083558,11067
1659430105.127277,10960
1659430105.170996,10913
1659430105.214715,10870
1659430105.256215,10853
1659430105.297714,10862
1659430105.337334,10850
1659430105.376955,10851
1659430105.416575,10850
1659430105.45483,10831
1659430105.493084,10839
1659430105.531338,10862
1659430105.572837,10856
1659430105.614336,10849
1659430105.653957,10864
1659430105.693578,10873
1659430105.733198,10893
1659430105.774697,10856
1659430105.816196,10782
1659430105.854792,10749
1659430105.893388,10733
1659430105.931984,10720
1659430105.97058,10731
1659430106.009176,10749
1659430106.047771,10753
1659430106.088758,10757
1659430106.129745,10743
1659430106.168341,10737
1659430106.206937,10768
1659430106.245533,10785
1659430106.288056,10793
1659430106.33058,10794
1659430106.370337,10807
1659430106.410094,10828
1659430106.449852,10866
1659430106.489609,10855
1659430106.529366,10811
1659430106.57189,10755
1659430106.614413,10742
1659430106.653351,10740
1659430106.692288,10750
1659430106.731226,10758
1659430106.772213,10767
1659430106.813199,10799
1659430106.852478,10796
1659430106.891757,10805
1659430106.931036,10816
1659430106.97356,10815
1659430107.016084,10839
1659430107.054338,10847
1659430107.092592,10876
1659430107.130847,10894
1659430107.175249,10908
1659430107.219651,10931
1659430107.264054,10942
1659430107.296843,10932
1659430107.329633,10864
1659430107.373352,10840
1659430107.417071,10834
1659430107.46079,10838
1659430107.500069,10874
1659430107.539348,10891
1659430107.578627,10895
1659430107.620639,10900
1659430107.66265,10919
1659430107.701246,10924
1659430107.739842,10960
1659430107.778438,10960
1659430107.819937,10955
1659430107.861436,10989
1659430107.900373,11003
1659430107.939311,11019
1659430107.978248,11035
1659430108.016503,11046
1659430108.054757,11011
1659430108.093011,10996
1659430108.135023,11007
1659430108.177034,11038
1659430108.216586,11075
1659430108.256139,11096
1659430108.295691,11126
1659430108.335243,11133
1659430108.374795,11130
1659430108.416294,11147
1659430108.457793,11153
1659430108.496389,11166
1659430108.534985,11180
1659430108.573581,11204
1659430108.61286,11214
1659430108.652139,11245
1659430108.691418,11276
1659430108.732405,11297
1659430108.773391,11295
1659430108.815403,11280
1659430108.857414,11287
1659430108.896693,11292
1659430108.935972,11331
1659430108.975251,11355
1659430109.019312,11371
1659430109.063373,11374
1659430109.107434,11398
1659430109.140735,11409
1659430109.174037,11403
1659430109.21844,11411
1659430109.262842,11409
1659430109.307244,11430
1659430109.34584,11453
1659430109.384436,11485
1659430109.423032,11481
1659430109.465555,11452
1659430109.508079,11424
1659430109.547017,11401
1659430109.585954,11406
1659430109.624892,11416
1659430109.665366,11446
1659430109.70584,11443
1659430109.744778,11436
1659430109.783715,11440
1659430109.822653,11436
1659430109.862615,11442
1659430109.902577,11426
1659430109.942539,11445
1659430109.983526,11438
1659430110.024513,11445
1659430110.063108,11433
1659430110.101704,11373
1659430110.1403,11308
1659430110.182824,11285
1659430110.225348,11278
1659430110.264627,11267
1659430110.303906,11277
1659430110.343185,11264
1659430110.383659,11246
1659430110.424134,11247
1659430110.463413,11238
1659430110.502692,11231
1659430110.54197,11224
1659430110.582957,11228
1659430110.623944,11230
1659430110.662881,11255
1659430110.701819,11225
1659430110.740756,11154
1659430110.7855,11085
1659430110.830244,11044
1659430110.874988,11020
1659430110.907777,11008
1659430110.940567,11002
1659430110.984627,10986
1659430111.028688,10985
1659430111.072749,10984
1659430111.114761,10968
1659430111.156772,10971
1659430111.195709,10959
1659430111.234647,10968
1659430111.273584,10968
1659430111.311839,10973
1659430111.350093,10956
1659430111.388347,10900
1659430111.429846,10847
1659430111.471345,10826
1659430111.509941,10823
1659430111.548537,10840
1659430111.587133,10842
1659430111.625387,10841
1659430111.663642,10835
1659430111.701896,10838
1659430111.74442,10839
1659430111.786943,10851
1659430111.825539,10839
1659430111.864135,10850
1659430111.902731,10849
1659430111.943718,10855
1659430111.984705,10850
1659430112.023984,10809
1659430112.063263,10779
1659430112.102542,10757
1659430112.145065,10754
1659430112.187589,10771
1659430112.226185,10792
1659430112.264781,10798
1659430112.303377,10799
1659430112.345388,10800
1659430112.3874,10813
1659430112.431802,10840
1659430112.476204,10847
1659430112.520607,10852
1659430112.558861,10858
1659430112.597115,10867
1659430112.63537,10870
1659430112.677893,10854
1659430112.720417,10814
1659430112.759355,10785
1659430112.798292,10798
1659430112.837229,10817
1659430112.877704,10842
1659430112.918178,10849
1659430112.956774,10847
1659430112.99537,10857
1659430113.033966,10883
1659430113.073245,10906
1659430113.112524,10916
1659430113.151803,10934
1659430113.193814,10944
1659430113.235826,10961
1659430113.274763,10985
1659430113.313701,10986
1659430113.352638,10954
1659430113.39465,10909
1659430113.436661,10899
1659430113.478416,10912
1659430113.520171,10950
1659430113.561927,10973
1659430113.603682,11006
1659430113.642278,11003
1659430113.680874,11003
1659430113.71947,11027
1659430113.758407,11008
1659430113.797344,11010
1659430113.836282,11010
1659430113.877781,11025
1659430113.91928,11045
1659430113.957876,11065
1659430113.996472,11077
1659430114.035068,11049
1659430114.074005,11037
1659430114.112942,11028
1659430114.15188,11027
1659430114.192867,11057
1659430114.233854,11095
1659430114.272108,11129
1659430114.310362,11149
1659430114.348617,11154
1659430114.391653,11163
1659430114.434689,11175
1659430114.473284,11192
1659430114.51188,11224
1659430114.550476,11246
1659430114.591463,11262
1659430114.63245,11277
1659430114.676511,11263
1659430114.720571,11213
1659430114.764632,11182
1659430114.798959,11206
1659430114.833285,11239
1659430114.877004,11288
1659430114.920723,11300
1659430114.964443,11311
1659430115.00338,11342
1659430115.042318,11343
1659430115.081255,11345
1659430115.122242,11341
1659430115.163229,11353
1659430115.201483,11352
1659430115.239737,11369
1659430115.277992,11376
1659430115.320515,11350
1659430115.363039,11303
1659430115.402318,11276
1659430115.441597,11272
1659430115.480876,11266
1659430115.51913,11299
1659430115.557384,11299
1659430115.595639,11309
1659430115.638163,11311
1659430115.680686,11297
1659430115.719965,11313
1659430115.759244,11318
1659430115.798523,11329
1659430115.83951,11327
1659430115.880497,11331
1659430115.919434,11343
1659430115.958372,11327
1659430115.997309,11268
1659430116.036247,11204
1659430116.075184,11184
1659430116.114121,11166
1659430116.155621,11168
1659430116.19712,11159
1659430116.238619,11142
1659430116.280118,11133
1659430116.319055,11126
1659430116.357993,11142
1659430116.39693,11143
1659430116.440991,11141
1659430116.485052,11148
1659430116.529113,11150
1659430116.562927,11138
1659430116.596741,11132
1659430116.641826,11104
1659430116.686912,11027
1659430116.731997,10968
1659430116.764274,10950
1659430116.796551,10950
1659430116.841295,10953
1659430116.886039,10969
1659430116.930783,10959
1659430116.96972,10946
1659430117.008658,10952
1659430117.047595,10942
1659430117.089094,10943
1659430117.130593,10943
1659430117.168848,10942
1659430117.207102,10950
1659430117.245356,10951
1659430117.286855,10958
1659430117.328354,10945
1659430117.366609,10896
1659430117.404863,10848
1659430117.443117,10851
1659430117.482055,10856
1659430117.520992,10875
1659430117.55993,10926
1659430117.601941,10939
1659430117.643953,10941
1659430117.68289,10958
1659430117.721828,10995
1659430117.760765,11012
1659430117.801752,11023
1659430117.842738,11018
1659430117.881676,11014
1659430117.920613,11027
1659430117.959551,11046
1659430118.001562,11068
1659430118.043574,11063
1659430118.082169,11027
1659430118.120765,10989
1659430118.159361,11005
1659430118.200348,11025
1659430118.241335,11048
1659430118.285737,11065
1659430118.330139,11064
1659430118.374542,11070
1659430118.412796,11062
1659430118.45105,11071
1659430118.489305,11077
1659430118.531828,11090
1659430118.574352,11087
1659430118.61329,11088
1659430118.652227,11118
1659430118.691164,11117
1659430118.731127,11103
1659430118.771089,11036
1659430118.811051,11003
1659430118.851013,10990
1659430118.890975,11002
1659430118.933499,11017
1659430118.976022,11012
1659430119.015301,11032
1659430119.05458,11031
1659430119.093859,11045
1659430119.132114,11043
1659430119.170368,11041
1659430119.208622,11055
1659430119.250122,11059
1659430119.29162,11077
1659430119.330558,11076
1659430119.369495,11091
1659430119.408433,11055
1659430119.450444,11012
1659430119.492456,10968
1659430119.531393,10950
1659430119.570331,10971
1659430119.609268,10990
1659430119.647864,10991
1659430119.68646,10999
1659430119.725056,11001
1659430119.766042,11002
1659430119.807029,11013
1659430119.849553,11010
1659430119.892077,11014
1659430119.931356,11029
1659430119.970635,11032
1659430120.009914,11033
1659430120.053974,11045
1659430120.098035,11033
1659430120.142096,10982
1659430120.175398,10936
1659430120.208699,10930
1659430120.253102,10933
1659430120.297504,10957
1659430120.341907,10965
1659430120.374696,10969
1659430120.407485,10955
1659430120.451546,10955
1659430120.495607,10965
1659430120.539668,10965
1659430120.578605,10957
1659430120.617543,10967
1659430120.65648,10976
1659430120.696954,10981
1659430120.737429,10994
1659430120.776708,10958
1659430120.815987,10911
1659430120.855266,10877
1659430120.897277,10875
1659430120.939289,10879
1659430120.977543,10896
1659430121.015797,10907
1659430121.054052,10908
1659430121.092989,10945
1659430121.131927,10964
1659430121.170864,11008
1659430121.212875,11060
1659430121.254887,11084
1659430121.293483,11109
1659430121.332078,11126
1659430121.370674,11163
1659430121.415077,11178
1659430121.459479,11175
1659430121.503881,11140
1659430121.536671,11124
1659430121.56946,11146
1659430121.613179,11180
1659430121.656898,11209
1659430121.700618,11212
1659430121.73392,11204
1659430121.767221,11212
1659430121.811965,11247
1659430121.856709,11257
1659430121.901453,11261
1659430121.940049,11283
1659430121.978645,11314
1659430122.017241,11331
1659430122.059252,11291
1659430122.101264,11239
1659430122.140543,11208
1659430122.179821,11207
1659430122.2191,11225
1659430122.261112,11233
1659430122.303123,11229
1659430122.342061,11217
1659430122.380998,11236
1659430122.419936,11227
1659430122.458873,11237
1659430122.49781,11250
1659430122.536748,11241
1659430122.577735,11257
1659430122.618721,11257
1659430122.657317,11237
1659430122.695913,11160
1659430122.734509,11116
1659430122.777033,11094
1659430122.819556,11095
1659430122.858152,11102
1659430122.896748,11116
1659430122.935344,11126
1659430122.975819,11122
1659430123.016293,11114
1659430123.05523,11106
1659430123.094168,11103
1659430123.133105,11095
1659430123.175117,11111
1659430123.217128,11123
1659430123.256066,11108
1659430123.295003,11075
1659430123.333941,10997
1659430123.378343,10945
1659430123.422745,10921
1659430123.467148,10928
1659430123.509159,10926
1659430123.55117,10926
1659430123.589425,10920
1659430123.627679,10920
1659430123.665933,10931
1659430123.707945,10931
1659430123.749956,10919
1659430123.788552,10914
1659430123.827148,10919
1659430123.865744,10911
1659430123.90434,10912
1659430123.942935,10903
1659430123.981531,10850
1659430124.021493,10779
1659430124.061455,10737
1659430124.101418,10729
1659430124.14138,10726
1659430124.181342,10724
1659430124.219938,10718
1659430124.258534,10725
1659430124.29713,10741
1659430124.338116,10757
1659430124.379103,10764
1659430124.418724,10764
1659430124.458344,10773
1659430124.497965,10771
1659430124.539464,10789
1659430124.580963,10804
1659430124.619217,10822
1659430124.657471,10818
1659430124.695726,10794
1659430124.737737,10749
1659430124.779749,10743
1659430124.824151,10765
1659430124.868553,10805
1659430124.912956,10840
1659430124.945745,10858
1659430124.978534,10882
1659430125.023278,10902
1659430125.068022,10931
1659430125.112766,10955
1659430125.151704,10973
1659430125.190641,10997
1659430125.229578,11002
1659430125.271078,11014
1659430125.312577,11026
1659430125.351856,11057
1659430125.391135,11093
1659430125.430414,11092
1659430125.472937,11047
1659430125.515461,11009
1659430125.553715,11014
1659430125.59197,11032
1659430125.630224,11053
1659430125.672235,11069
1659430125.714247,11073
1659430125.753184,11086
1659430125.792122,11090
1659430125.831059,11107
1659430125.869313,11121
1659430125.907568,11148
1659430125.945822,11147
1659430125.988346,11168
1659430126.03087,11177
1659430126.069466,11182
1659430126.108062,11183
1659430126.146657,11120
1659430126.184912,11068
1659430126.223166,11053
1659430126.26142,11065
1659430126.302407,11075
1659430126.343394,11100
1659430126.385918,11096
1659430126.428441,11091
1659430126.467037,11111
1659430126.505633,11120
1659430126.544229,11135
1659430126.588973,11146
1659430126.633717,11161
1659430126.678461,11169
1659430126.711762,11180
1659430126.745064,11195
1659430126.789125,11189
1659430126.833186,11156
1659430126.877247,11102
1659430126.911061,11088
1659430126.944875,11079
1659430126.988935,11079
1659430127.032996,11112
1659430127.077057,11137
1659430127.115311,11160
1659430127.153566,11169
1659430127.19182,11202
1659430127.232807,11225
1659430127.273793,11264
1659430127.312731,11289
1659430127.351668,11323
1659430127.390606,11338
1659430127.429543,11331
1659430127.468481,11316
1659430127.507418,11280
1659430127.548405,11237
1659430127.589391,11204
1659430127.62867,11232
1659430127.667949,11253
1659430127.707228,11272
1659430127.748728,11308
1659430127.790227,11319
1659430127.829506,11317
1659430127.868785,11315
1659430127.908064,11326
1659430127.949563,11334
1659430127.991062,11343
1659430128.029999,11354
1659430128.068937,11359
1659430128.107874,11387
1659430128.148861,11379
1659430128.189848,11349
1659430128.228785,11273
1659430128.267723,11252
1659430128.30666,11253
1659430128.348671,11263
1659430128.390683,11277
1659430128.428937,11279
1659430128.467191,11292
1659430128.505446,11305
1659430128.55019,11309
1659430128.594934,11312
1659430128.639678,11312
1659430128.681177,11324
1659430128.722676,11330
1659430128.761955,11341
1659430128.801234,11351
1659430128.840513,11350
1659430128.882012,11278
1659430128.923511,11243
1659430128.96279,11215
1659430129.002069,11207
1659430129.041348,11221
1659430129.079944,11228
1659430129.11854,11238
1659430129.157135,11231
1659430129.199147,11226
1659430129.241158,11233
1659430129.280915,11234
1659430129.320673,11238
1659430129.36043,11225
1659430129.400187,11227
1659430129.439944,11222
1659430129.477857,11232
1659430129.51577,11224
1659430129.553682,11176
1659430129.596719,11123
1659430129.639755,11107
1659430129.678009,11112
1659430129.716263,11118
1659430129.754518,11124
1659430129.793113,11132
1659430129.831709,11134
1659430129.870305,11123
1659430129.912317,11129
1659430129.954328,11131
1659430129.99634,11137
1659430130.038351,11135
1659430130.076605,11136
1659430130.11486,11154
1659430130.153114,11182
1659430130.197858,11191
1659430130.242602,11162
1659430130.287345,11136
1659430130.320135,11142
1659430130.352924,11153
1659430130.396644,11170
1659430130.440363,11177
1659430130.484082,11178
1659430130.522678,11194
1659430130.561274,11226
1659430130.59987,11227
1659430130.642393,11219
1659430130.684917,11236
1659430130.72283,11238
1659430130.760743,11254
1659430130.798656,11265
1659430130.840667,11279
1659430130.882678,11286
1659430130.921616,11266
1659430130.960553,11233
1659430130.99949,11222
1659430131.038086,11235
1659430131.076682,11255
1659430131.115278,11260
1659430131.157802,11255
1659430131.200326,11253
1659430131.239605,11262
1659430131.278884,11281
1659430131.318163,11281
1659430131.358637,11298
1659430131.399112,11320
1659430131.438049,11330
1659430131.476986,11346
1659430131.515924,11347
1659430131.558448,11301
1659430131.600971,11236
1659430131.639567,11211
1659430131.678163,11227
1659430131.716759,11214
1659430131.757233,11225
1659430131.797708,11251
1659430131.836987,11257
1659430131.876266,11238
1659430131.915545,11239
1659430131.959947,11236
1659430132.004349,11242
1659430132.048752,11238
1659430132.082566,11250
1659430132.11638,11252
1659430132.161124,11252
1659430132.205868,11222
1659430132.250612,11161
1659430132.292623,11115
1659430132.334635,11104
1659430132.37323,11093
1659430132.411826,11107
1659430132.450422,11112
1659430132.490043,11112
1659430132.529663,11116
1659430132.569284,11121
1659430132.610271,11119
1659430132.651257,11117
1659430132.689853,11127
1659430132.728449,11126
1659430132.767045,11136
1659430132.808032,11144
1659430132.849019,11133
1659430132.888639,11097
1659430132.92826,11032
1659430132.96788,11000
1659430133.006135,10985
1659430133.044389,10984
1659430133.082643,10995
1659430133.124142,11017
1659430133.165641,10996
1659430133.20492,11000
1659430133.244199,10996
1659430133.283478,11003
1659430133.324977,11016
1659430133.366476,11027
1659430133.404731,11050
1659430133.442985,11090
1659430133.481239,11126
1659430133.523763,11129
1659430133.566287,11104
1659430133.610006,11078
1659430133.653725,11069
1659430133.697444,11080
1659430133.730746,11108
1659430133.764048,11131
1659430133.80845,11146
1659430133.852853,11158
1659430133.897255,11163
1659430133.936193,11161
1659430133.97513,11159
1659430134.014067,11162
1659430134.052322,11181
1659430134.090576,11209
1659430134.12883,11232
1659430134.171354,11246
1659430134.213878,11258
1659430134.252474,11220
1659430134.29107,11164
1659430134.329665,11162
1659430134.371677,11179
1659430134.413688,11203
1659430134.453309,11207
1659430134.492929,11215
1659430134.53255,11217
1659430134.574049,11212
1659430134.615548,11235
1659430134.657047,11237
1659430134.698546,11249
1659430134.737484,11246
1659430134.776421,11275
1659430134.815359,11272
1659430134.856858,11287
1659430134.898357,11243
1659430134.93627,11170
1659430134.974182,11142
1659430135.012095,11143
1659430135.051033,11142
1659430135.08997,11146
1659430135.128907,11158
1659430135.171431,11165
1659430135.213955,11164
1659430135.252551,11173
1659430135.291147,11165
1659430135.329742,11180
1659430135.371754,11193
1659430135.413765,11195
1659430135.453044,11202
1659430135.492323,11209
1659430135.531602,11212
1659430135.573102,11178
1659430135.614601,11118
1659430135.653538,11066
1659430135.692475,11062
1659430135.731413,11055
1659430135.772912,11070
1659430135.814411,11071
1659430135.858472,11061
1659430135.902533,11057
1659430135.946593,11069
1659430135.979895,11085
1659430136.013197,11093
1659430136.057599,11093
1659430136.102001,11090
1659430136.146404,11091
1659430136.184317,11103
1659430136.222229,11107
1659430136.260142,11101
1659430136.300617,11084
1659430136.341091,11050
1659430136.38037,11047
1659430136.419649,11090
1659430136.458928,11112
1659430136.497524,11140
1659430136.53612,11171
1659430136.574716,11185
1659430136.616727,11203
1659430136.658738,11202
1659430136.697676,11215
1659430136.736613,11241
1659430136.775551,11278
1659430136.81705,11304
1659430136.858549,11341
1659430136.896803,11377
1659430136.935058,11419
1659430136.973312,11457
1659430137.012591,11475
1659430137.05187,11445
1659430137.091149,11377
1659430137.132136,11344
1659430137.173122,11359
1659430137.211718,11407
1659430137.250314,11446
1659430137.28891,11465
1659430137.329897,11490
1659430137.370883,11494
1659430137.415627,11494
1659430137.460371,11502
1659430137.505115,11509
1659430137.538929,11504
1659430137.572743,11524
1659430137.617146,11541
1659430137.661548,11561
1659430137.70595,11572
1659430137.739252,11517
1659430137.772554,11489
1659430137.816956,11471
1659430137.861358,11460
1659430137.905761,11476
1659430137.94504,11488
1659430137.984319,11488
1659430138.023598,11483
1659430138.065097,11489
1659430138.106596,11489
1659430138.145192,11510
1659430138.183788,11517
1659430138.222384,11522
1659430138.260979,11523
1659430138.299575,11526
1659430138.338171,11533
1659430138.380695,11532
1659430138.423219,11476
1659430138.461815,11401
1659430138.500411,11370
1659430138.539006,11356
1659430138.580506,11357
1659430138.622005,11369
1659430138.661283,11377
1659430138.700562,11378
1659430138.739841,11368
1659430138.781853,11374
1659430138.823864,11388
1659430138.862119,11393
1659430138.900373,11406
1659430138.938627,11406
1659430138.980639,11418
1659430139.02265,11414
1659430139.061929,11418
1659430139.101208,11405
1659430139.140487,11348
1659430139.181986,11292
1659430139.223485,11290
1659430139.262081,11310
1659430139.300677,11335
1659430139.339273,11377
1659430139.383675,11380
1659430139.428078,11397
1659430139.47248,11406
1659430139.512954,11410
1659430139.553429,11396
1659430139.591683,11405
1659430139.629937,11419
1659430139.668192,11434
1659430139.707471,11466
1659430139.74675,11489
1659430139.786029,11485
1659430139.827272,11451
1659430139.868515,11400
1659430139.909758,11383
1659430139.951,11378
1659430139.990621,11380
1659430140.030241,11392
1659430140.069862,11407
1659430140.111361,11407
1659430140.15286,11399
1659430140.191456,11401
1659430140.230052,11406
1659430140.268648,11413
1659430140.310659,11422
1659430140.352671,11430
1659430140.390925,11436
1659430140.429179,11444
1659430140.467434,11450
1659430140.50603,11429
1659430140.544626,11367
1659430140.583221,11310
1659430140.625745,11303
1659430140.668269,11276
1659430140.706523,11268
1659430140.744778,11276
1659430140.783032,11283
1659430140.821969,11287
1659430140.860907,11280
1659430140.899844,11275
1659430140.941856,11278
1659430140.983867,11280
1659430141.026391,11279
1659430141.068915,11285
1659430141.107511,11302
1659430141.146106,11305
1659430141.184702,11267
1659430141.226714,11202
1659430141.268725,11171
1659430141.307321,11168
1659430141.345917,11201
1659430141.384513,11214
1659430141.428915,11211
1659430141.473317,11193
1659430141.51772,11171
1659430141.551534,11175
1659430141.585348,11157
1659430141.630092,11153
1659430141.674836,11164
1659430141.719579,11170
1659430141.760054,11178
1659430141.800528,11170
1659430141.839807,11163
1659430141.879086,11129
1659430141.918365,11089
1659430141.957303,11055
1659430141.99624,11052
1659430142.035178,11072
1659430142.077189,11060
1659430142.1192,11058
1659430142.157796,11050
1659430142.196392,11047
1659430142.234988,11043
1659430142.276999,11076
1659430142.319011,11079
1659430142.360254,11082
1659430142.401497,11089
1659430142.44274,11093
1659430142.483983,11101
1659430142.517797,11097
1659430142.551611,11066
1659430142.595672,10995
1659430142.639732,10966
1659430142.683793,10978
1659430142.722048,10982
1659430142.760302,10998
1659430142.798556,10993
1659430142.839543,11011
1659430142.88053,11013
1659430142.919126,10999
1659430142.957721,10999
1659430142.996317,11032
1659430143.035255,11053
1659430143.074192,11064
1659430143.11313,11082
1659430143.155141,11073
1659430143.197152,11074
1659430143.23609,11044
1659430143.275027,10984
1659430143.313965,10981
1659430143.355464,10990
1659430143.396963,11009
1659430143.435217,11015
1659430143.473472,11033
1659430143.511726,11028
1659430143.551005,11049
1659430143.590284,11052
1659430143.629563,11044
1659430143.671062,11060
1659430143.712561,11049
1659430143.750474,11054
1659430143.788387,11060
1659430143.826299,11078
1659430143.868311,11048
1659430143.910322,10999
1659430143.954725,10984
1659430143.999127,10992
1659430144.043529,10999
1659430144.076319,11000
1659430144.109108,11011
1659430144.154193,11012
1659430144.199279,11008
1659430144.244364,11018
1659430144.277666,11044
1659430144.310968,11068
1659430144.355712,11095
1659430144.400456,11147
1659430144.445199,11193
1659430144.484478,11242
1659430144.523757,11256
1659430144.563036,11264
1659430144.60556,11289
1659430144.648084,11319
1659430144.685997,11354
1659430144.72391,11372
1659430144.761822,11426
1659430144.803321,11463
1659430144.84482,11511
1659430144.883758,11522
1659430144.922695,11531
1659430144.961633,11549
1659430145.000399,11556
1659430145.039166,11590
1659430145.077933,11631
1659430145.116699,11643
1659430145.155466,11615
1659430145.194233,11585
1659430145.235732,11554
1659430145.277231,11557
1659430145.321292,11587
1659430145.365352,11611
1659430145.409413,11622
1659430145.443227,11629
1659430145.477041,11642
1659430145.522127,11659
1659430145.567212,11666
1659430145.612298,11679
1659430145.650552,11699
1659430145.688806,11715
1659430145.727061,11716
1659430145.76856,11717
1659430145.810059,11674
1659430145.848655,11618
1659430145.887251,11616
1659430145.925847,11611
1659430145.967345,11622
1659430146.008845,11640
1659430146.047441,11657
1659430146.086036,11648
1659430146.124632,11646
1659430146.163228,11659
1659430146.201824,11661
1659430146.24042,11662
1659430146.280894,11668
1659430146.321369,11684
1659430146.360306,11679
1659430146.399244,11689
1659430146.438181,11651
1659430146.477118,11570
1659430146.516056,11536
1659430146.554993,11525
1659430146.597005,11534
1659430146.639016,11529
1659430146.677612,11530
1659430146.716208,11523
1659430146.754804,11510
1659430146.796815,11505
1659430146.838827,11502
1659430146.882888,11487
1659430146.926948,11481
1659430146.971009,11486
1659430147.004823,11477
1659430147.038637,11475
1659430147.083381,11465
1659430147.128125,11409
1659430147.172869,11337
1659430147.211465,11293
1659430147.250061,11271
1659430147.288656,11262
1659430147.329643,11273
1659430147.37063,11257
1659430147.409909,11248
1659430147.449188,11223
1659430147.488467,11207
1659430147.530478,11194
1659430147.57249,11202
1659430147.611427,11221
1659430147.650365,11231
1659430147.689302,11284
1659430147.728581,11335
1659430147.76786,11368
1659430147.807139,11355
1659430147.84915,11327
1659430147.891162,11292
1659430147.930099,11266
1659430147.969037,11258
1659430148.007974,11242
1659430148.048961,11248
1659430148.089948,11243
1659430148.129227,11255
1659430148.168506,11270
1659430148.207785,11273
1659430148.248259,11261
1659430148.288734,11269
1659430148.327671,11284
1659430148.366608,11287
1659430148.405546,11280
1659430148.447557,11285
1659430148.489569,11290
1659430148.528165,11234
1659430148.566761,11168
1659430148.605356,11136
1659430148.649759,11133
1659430148.694161,11141
1659430148.738563,11147
1659430148.77289,11156
1659430148.807216,11161
1659430148.851277,11154
1659430148.895338,11163
1659430148.939399,11167
1659430148.977994,11174
1659430149.01659,11170
1659430149.055186,11172
1659430149.096685,11169
1659430149.138184,11182
1659430149.176439,11204
1659430149.214693,11162
1659430149.252947,11086
1659430149.291543,11038
1659430149.330139,11013
1659430149.368735,10999
1659430149.411259,11029
1659430149.453783,11037
1659430149.491695,11021
1659430149.529608,11026
1659430149.567521,11025
1659430149.606117,11033
1659430149.644712,11038
1659430149.683308,11046
1659430149.72532,11055
1659430149.767331,11062
1659430149.809343,11065
1659430149.851354,11045
1659430149.88995,11026
1659430149.928546,10966
1659430149.967142,10903
1659430150.012227,10902
1659430150.057312,10900
1659430150.102398,10904
1659430150.135187,10922
1659430150.167977,10927
1659430150.209476,10907
1659430150.250975,10913
1659430150.292474,10903
1659430150.333973,10915
1659430150.375472,10917
1659430150.416971,10907
1659430150.455909,10919
1659430150.494846,10944
1659430150.533784,10966
1659430150.572721,10979
1659430150.611659,10993
1659430150.650596,10985
1659430150.692095,11007
1659430150.733594,11028
1659430150.772532,11058
1659430150.811469,11080
1659430150.850407,11095
1659430150.891906,11118
1659430150.933405,11122
1659430150.972684,11109
1659430151.011963,11109
1659430151.051242,11136
1659430151.092228,11152
1659430151.133215,11174
1659430151.177959,11197
1659430151.222703,11219
1659430151.267447,11230
1659430151.306043,11175
1659430151.344639,11131
1659430151.383235,11111
1659430151.425246,11132
1659430151.467257,11153
1659430151.505512,11156
1659430151.543766,11173
1659430151.58202,11180
1659430151.620958,11201
1659430151.659895,11192
1659430151.698833,11191
1659430151.739307,11201
1659430151.779782,11210
1659430151.818719,11214
1659430151.857656,11238
1659430151.896594,11235
1659430151.938605,11178
1659430151.980617,11117
1659430152.019896,11076
1659430152.059175,11065
1659430152.098454,11094
1659430152.137049,11108
1659430152.175645,11112
1659430152.214241,11095
1659430152.25574,11094
1659430152.29724,11085
1659430152.336177,11104
1659430152.375114,11105
1659430152.414052,11111
1659430152.455551,11110
1659430152.49705,11111
1659430152.534963,11114
1659430152.572875,11075
1659430152.610788,11004
1659430152.6528,10966
1659430152.694811,10969
1659430152.73853,10963
1659430152.782249,10968
1659430152.825969,10995
1659430152.864565,11003
1659430152.903161,11011
1659430152.941756,11017
1659430152.983768,10998
1659430153.025779,10983
1659430153.065058,10993
1659430153.104337,11017
1659430153.143616,11012
1659430153.184603,11016
1659430153.22559,11016
1659430153.26521,10959
1659430153.304831,10886
1659430153.344451,10868
1659430153.386463,10876
1659430153.428474,10880
1659430153.46707,10870
1659430153.505666,10870
1659430153.544262,10876
1659430153.583541,10880
1659430153.62282,10905
1659430153.662099,10906
1659430153.703085,10945
1659430153.744072,10981
1659430153.782668,11004
1659430153.821264,11048
1659430153.85986,11097
1659430153.901871,11117
1659430153.943883,11091
1659430153.982479,11083
1659430154.021075,11077
1659430154.05967,11105
1659430154.100657,11146
1659430154.141644,11192
1659430154.181264,11214
1659430154.220885,11232
1659430154.260506,11263
1659430154.305591,11295
1659430154.350677,11351
1659430154.395762,11393
1659430154.428039,11412
1659430154.460316,11437
1659430154.505402,11468
1659430154.550487,11490
1659430154.595572,11466
1659430154.629386,11426
1659430154.663201,11384
1659430154.70692,11360
1659430154.750639,11370
1659430154.794358,11428
1659430154.833296,11483
1659430154.872233,11487
1659430154.91117,11508
1659430154.95267,11515
1659430154.994169,11504
1659430155.032081,11511
1659430155.069994,11526
1659430155.107907,11537
1659430155.147186,11573
1659430155.186465,11647
1659430155.225744,11640
1659430155.267755,11614
1659430155.309767,11574
1659430155.348363,11644
1659430155.386959,11710
1659430155.425555,11714
1659430155.466541,11620
1659430155.507528,11575
1659430155.547695,11585
1659430155.587862,11593
1659430155.628029,11599
1659430155.668196,11648
1659430155.708363,11681
1659430155.74935,11692
1659430155.790337,11697
1659430155.829274,11678
1659430155.868212,11638
1659430155.907149,11560
1659430155.94916,11531
1659430155.991172,11538
1659430156.029426,11558
1659430156.06768,11568
1659430156.105935,11598
1659430156.144872,11630
1659430156.18381,11665
1659430156.222747,11639
1659430156.263734,11593
1659430156.304721,11613
1659430156.346732,11647
1659430156.388743,11624
1659430156.428022,11568
1659430156.467301,11452
1659430156.50658,11374
1659430156.551324,11313
1659430156.596068,11286
1659430156.640812,11306
1659430156.674114,11403
1659430156.707416,11596
1659430156.751818,11929
1659430156.79622,12395
