LocalTimestamp,PG
1659514080.456002,9442
1659514080.494961,9599
1659514080.533919,9749
1659514080.572878,9900
1659514080.614399,10040
1659514080.655921,10160
1659514080.694879,10224
1659514080.733838,10261
1659514080.772796,10300
1659514080.815343,10327
1659514080.85789,10406
1659514080.896165,10458
1659514080.934439,10456
1659514080.972714,10387
1659514081.013723,10319
1659514081.054732,10341
1659514081.099159,10419
1659514081.143585,10507
1659514081.188011,10568
1659514081.221843,10634
1659514081.255676,10696
1659514081.300102,10747
1659514081.344528,10787
1659514081.388955,10799
1659514081.427913,10808
1659514081.466872,10824
1659514081.50583,10846
1659514081.546839,10861
1659514081.587848,10883
1659514081.626806,10899
1659514081.665765,10906
1659514081.704723,10913
1659514081.746758,10904
1659514081.788792,10864
1659514081.827408,10803
1659514081.866025,10792
1659514081.904642,10814
1659514081.942917,10831
1659514081.981192,10865
1659514082.019467,10896
1659514082.060988,10924
1659514082.10251,10958
1659514082.140785,10978
1659514082.17906,10999
1659514082.217335,11042
1659514082.256635,11074
1659514082.295935,11093
1659514082.335235,11108
1659514082.377269,11122
1659514082.419303,11166
1659514082.460312,11188
1659514082.501321,11213
1659514082.539596,11187
1659514082.577871,11170
1659514082.616146,11164
1659514082.661598,11171
1659514082.707049,11168
1659514082.752501,11180
1659514082.78582,11194
1659514082.81914,11203
1659514082.863225,11206
1659514082.907309,11218
1659514082.951394,11241
1659514082.984714,11248
1659514083.018033,11277
1659514083.062118,11276
1659514083.106203,11299
1659514083.150287,11326
1659514083.188904,11343
1659514083.22752,11365
1659514083.266137,11330
1659514083.308171,11300
1659514083.350205,11291
1659514083.388822,11305
1659514083.427439,11314
1659514083.466056,11325
1659514083.507065,11350
1659514083.548073,11366
1659514083.588057,11360
1659514083.628041,11350
1659514083.668024,11355
1659514083.706983,11350
1659514083.745941,11360
1659514083.7849,11368
1659514083.825909,11398
1659514083.866918,11437
1659514083.906218,11461
1659514083.945518,11505
1659514083.984818,11502
1659514084.027365,11463
1659514084.069912,11426
1659514084.108187,11419
1659514084.146461,11427
1659514084.184736,11438
1659514084.225745,11449
1659514084.266754,11472
1659514084.305713,11480
1659514084.344671,11483
1659514084.38363,11504
1659514084.425151,11527
1659514084.466673,11543
1659514084.50529,11554
1659514084.543906,11576
1659514084.582523,11581
1659514084.627291,11588
1659514084.672059,11593
1659514084.716827,11583
1659514084.757836,11579
1659514084.798845,11514
1659514084.837803,11431
1659514084.876762,11393
1659514084.91572,11372
1659514084.957754,11348
1659514084.999789,11368
1659514085.038405,11360
1659514085.077022,11363
1659514085.115638,11374
1659514085.154255,11369
1659514085.192872,11375
1659514085.231489,11379
1659514085.27301,11400
1659514085.314532,11406
1659514085.352807,11421
1659514085.391082,11442
1659514085.429357,11455
1659514085.467632,11476
1659514085.505907,11450
1659514085.544182,11373
1659514085.586216,11302
1659514085.62825,11256
1659514085.66755,11233
1659514085.70685,11232
1659514085.74615,11249
1659514085.790235,11269
1659514085.83432,11285
1659514085.878404,11296
1659514085.911724,11314
1659514085.945044,11325
1659514085.989812,11349
1659514086.03458,11367
1659514086.079348,11379
1659514086.120869,11395
1659514086.162391,11409
1659514086.201349,11434
1659514086.240308,11451
1659514086.279266,11459
1659514086.318225,11394
1659514086.357183,11299
1659514086.396142,11243
1659514086.436638,11209
1659514086.477134,11178
1659514086.516776,11176
1659514086.556418,11191
1659514086.59606,11191
1659514086.635018,11203
1659514086.673977,11206
1659514086.712935,11220
1659514086.753432,11242
1659514086.793928,11263
1659514086.833228,11276
1659514086.872528,11297
1659514086.911828,11323
1659514086.954375,11335
1659514086.996922,11357
1659514087.035197,11378
1659514087.073472,11371
1659514087.111747,11315
1659514087.153268,11202
1659514087.19479,11148
1659514087.23409,11106
1659514087.27339,11078
1659514087.31269,11081
1659514087.354212,11098
1659514087.395733,11113
1659514087.439818,11128
1659514087.483902,11137
1659514087.527987,11151
1659514087.566946,11168
1659514087.605904,11194
1659514087.644862,11207
1659514087.685359,11228
1659514087.725855,11256
1659514087.76413,11264
1659514087.802405,11300
1659514087.84068,11320
1659514087.87998,11276
1659514087.91928,11185
1659514087.95858,11123
1659514088.000102,11089
1659514088.041624,11083
1659514088.080582,11081
1659514088.11954,11087
1659514088.158499,11107
1659514088.200533,11107
1659514088.242567,11121
1659514088.280842,11115
1659514088.319117,11124
1659514088.357392,11153
1659514088.395667,11160
1659514088.433942,11184
1659514088.472217,11206
1659514088.514764,11224
1659514088.557311,11239
1659514088.595585,11272
1659514088.63386,11256
1659514088.672135,11162
1659514088.713144,11031
1659514088.754153,10915
1659514088.793112,10857
1659514088.83207,10808
1659514088.871029,10788
1659514088.91255,10784
1659514088.954072,10782
1659514088.998156,10744
1659514089.042241,10705
1659514089.086325,10671
1659514089.120158,10627
1659514089.15399,10600
1659514089.198758,10554
1659514089.243526,10522
1659514089.288294,10498
1659514089.327253,10476
1659514089.366211,10465
1659514089.405169,10444
1659514089.447716,10410
1659514089.490263,10245
1659514089.52888,9994
1659514089.567496,9792
1659514089.606113,9661
1659514089.646609,9577
1659514089.687106,9516
1659514089.726064,9484
1659514089.765023,9447
1659514089.803981,9405
1659514089.843281,9372
1659514089.882581,9372
1659514089.921882,9365
1659514089.962891,9366
1659514090.003899,9388
1659514090.042516,9399
1659514090.081133,9418
1659514090.11975,9424
1659514090.161784,9453
1659514090.203818,9451
1659514090.242776,9347
1659514090.281735,9144
1659514090.320693,9017
1659514090.362215,8956
1659514090.403736,8918
1659514090.442695,8898
1659514090.481653,8909
1659514090.520612,8915
1659514090.562133,8891
1659514090.603655,8897
1659514090.645176,8907
1659514090.686697,8919
1659514090.728219,8952
1659514090.769741,8976
1659514090.808699,9009
1659514090.847657,9030
1659514090.886616,9057
1659514090.924891,9075
1659514090.963166,9111
1659514091.001441,9089
1659514091.043475,8933
1659514091.085509,8761
1659514091.124468,8676
1659514091.163426,8635
1659514091.202384,8596
1659514091.243393,8595
1659514091.284402,8619
1659514091.322677,8628
1659514091.360952,8621
1659514091.399227,8635
1659514091.441774,8653
1659514091.484321,8677
1659514091.522937,8715
1659514091.561554,8738
1659514091.600171,8771
1659514091.64118,8804
1659514091.682189,8835
1659514091.721489,8865
1659514091.760789,8896
1659514091.800089,8924
1659514091.844174,8873
1659514091.888258,8715
1659514091.932343,8567
1659514091.973864,8505
1659514092.015386,8485
1659514092.054686,8462
1659514092.093986,8479
1659514092.133286,8503
1659514092.171561,8503
1659514092.209836,8507
1659514092.248111,8529
1659514092.289633,8549
1659514092.331155,8573
1659514092.371138,8606
1659514092.411122,8672
1659514092.451106,8735
1659514092.492627,8768
1659514092.534148,8821
1659514092.572423,8857
1659514092.610698,8811
1659514092.648973,8678
1659514092.69152,8571
1659514092.734067,8535
1659514092.773367,8520
1659514092.812667,8539
1659514092.851968,8565
1659514092.890584,8595
1659514092.929201,8613
1659514092.967818,8639
1659514093.008826,8669
1659514093.049835,8711
1659514093.088452,8758
1659514093.127069,8829
1659514093.165686,8911
1659514093.207207,8988
1659514093.248729,9081
1659514093.293497,9152
1659514093.338265,9225
1659514093.383033,9287
1659514093.41584,9311
1659514093.448647,9269
1659514093.492732,9227
1659514093.536816,9221
1659514093.580901,9256
1659514093.614733,9313
1659514093.648565,9368
1659514093.693675,9433
1659514093.738785,9474
1659514093.783895,9532
1659514093.82217,9573
1659514093.860445,9635
1659514093.89872,9667
1659514093.940754,9718
1659514093.982788,9756
1659514094.021405,9790
1659514094.060021,9833
1659514094.098638,9864
1659514094.136913,9898
1659514094.175188,9907
1659514094.213463,9888
1659514094.254984,9842
1659514094.296506,9814
1659514094.335464,9818
1659514094.374423,9823
1659514094.413381,9855
1659514094.453878,9875
1659514094.494374,9894
1659514094.533332,9913
1659514094.572291,9940
1659514094.611249,9972
1659514094.650208,10002
1659514094.689166,10038
1659514094.728125,10063
1659514094.770159,10100
1659514094.812193,10131
1659514094.853202,10152
1659514094.894211,10183
1659514094.933511,10184
1659514094.972811,10148
1659514095.012111,10095
1659514095.056196,10064
1659514095.100281,10055
1659514095.144365,10066
1659514095.178197,10073
1659514095.21203,10095
1659514095.256798,10103
1659514095.301566,10114
1659514095.346334,10141
1659514095.379141,10161
1659514095.411948,10190
1659514095.455691,10210
1659514095.499434,10234
1659514095.543177,10258
1659514095.582477,10273
1659514095.621777,10281
1659514095.661077,10298
1659514095.703111,10288
1659514095.745145,10247
1659514095.784104,10157
1659514095.823062,10084
1659514095.862021,10035
1659514095.903542,10003
1659514095.945064,10004
1659514095.984706,10010
1659514096.024348,10016
1659514096.06399,10031
1659514096.102948,10042
1659514096.141906,10061
1659514096.180865,10086
1659514096.221874,10113
1659514096.262883,10128
1659514096.302183,10163
1659514096.341483,10187
1659514096.380783,10214
1659514096.42128,10236
1659514096.461776,10262
1659514096.500734,10275
1659514096.539693,10264
1659514096.578651,10178
1659514096.620685,10080
1659514096.662719,10033
1659514096.700994,10001
1659514096.739269,9986
1659514096.777544,9982
1659514096.818553,9988
1659514096.859562,10010
1659514096.90433,10012
1659514096.949098,10037
1659514096.993866,10067
1659514097.033167,10122
1659514097.072467,10159
1659514097.111767,10208
1659514097.152776,10241
1659514097.193785,10274
1659514097.232743,10306
1659514097.271702,10337
1659514097.31066,10325
1659514097.348935,10252
1659514097.38721,10178
1659514097.425485,10123
1659514097.467006,10121
1659514097.508528,10129
1659514097.547828,10156
1659514097.587128,10180
1659514097.626429,10198
1659514097.667438,10218
1659514097.708447,10242
1659514097.74638,10279
1659514097.784313,10297
1659514097.822246,10339
1659514097.861888,10365
1659514097.90153,10398
1659514097.941172,10444
1659514097.983206,10478
1659514098.02524,10511
1659514098.063857,10500
1659514098.102473,10451
1659514098.14109,10398
1659514098.183125,10379
1659514098.225158,10379
1659514098.264117,10375
1659514098.303076,10412
1659514098.342034,10433
1659514098.383555,10456
1659514098.425077,10463
1659514098.469845,10480
1659514098.514613,10510
1659514098.559381,10533
1659514098.592188,10561
1659514098.624995,10583
1659514098.668738,10621
1659514098.712481,10645
1659514098.756224,10684
1659514098.795182,10707
1659514098.834141,10726
1659514098.873099,10728
1659514098.915133,10674
1659514098.957167,10625
1659514098.995784,10590
1659514099.034401,10574
1659514099.073018,10573
1659514099.115052,10596
1659514099.157086,10612
1659514099.196386,10627
1659514099.235686,10652
1659514099.274987,10667
1659514099.313603,10688
1659514099.35222,10714
1659514099.390836,10731
1659514099.432871,10758
1659514099.474905,10783
1659514099.513863,10807
1659514099.552822,10827
1659514099.59178,10839
1659514099.630055,10813
1659514099.66833,10761
1659514099.706605,10714
1659514099.747614,10698
1659514099.788623,10707
1659514099.83117,10734
1659514099.873716,10768
1659514099.911991,10801
1659514099.950266,10827
1659514099.988541,10867
1659514100.032284,10901
1659514100.076027,10899
1659514100.11977,10923
1659514100.15309,10967
1659514100.186409,11006
1659514100.230835,11046
1659514100.275262,11098
1659514100.319688,11099
1659514100.358988,11077
1659514100.398288,11016
1659514100.437589,10913
1659514100.47911,10817
1659514100.520632,10714
1659514100.559248,10622
1659514100.597865,10565
1659514100.636482,10553
1659514100.676978,10549
1659514100.717474,10548
1659514100.756775,10547
1659514100.796075,10588
1659514100.835375,10616
1659514100.874333,10652
1659514100.913292,10665
1659514100.95225,10677
1659514100.992747,10714
1659514101.033243,10739
1659514101.07186,10789
1659514101.110476,10806
1659514101.149093,10795
1659514101.191127,10778
1659514101.233161,10787
1659514101.275195,10835
1659514101.31723,10895
1659514101.355846,10989
1659514101.394463,11092
1659514101.43308,11191
1659514101.472722,11268
1659514101.512364,11321
1659514101.552006,11372
1659514101.593527,11419
1659514101.635049,11450
1659514101.673665,11454
1659514101.712282,11466
1659514101.750899,11480
1659514101.792933,11490
1659514101.834967,11495
1659514101.873584,11456
1659514101.9122,11385
1659514101.950817,11348
1659514101.992339,11351
1659514102.03386,11380
1659514102.078628,11408
1659514102.123396,11443
1659514102.168164,11456
1659514102.200971,11444
1659514102.233778,11419
1659514102.278205,11390
1659514102.322631,11371
1659514102.367057,11380
1659514102.406358,11376
1659514102.445658,11384
1659514102.484958,11393
1659514102.526992,11402
1659514102.569026,11422
1659514102.607301,11412
1659514102.645576,11348
1659514102.683851,11204
1659514102.725885,11107
1659514102.76792,11035
1659514102.806536,10984
1659514102.845153,10961
1659514102.88377,10944
1659514102.921703,10924
1659514102.959636,10889
1659514102.997569,10868
1659514103.040116,10886
1659514103.082663,10914
1659514103.120938,10953
1659514103.159213,10990
1659514103.197488,11047
1659514103.235763,11084
1659514103.274038,11129
1659514103.312313,11166
1659514103.353322,11193
1659514103.39433,11173
1659514103.436364,11096
1659514103.478399,11025
1659514103.517015,10986
1659514103.555632,10987
1659514103.594249,11011
1659514103.639017,11066
1659514103.683785,11134
1659514103.728553,11268
1659514103.761873,11430
1659514103.795192,11526
1659514103.839277,11587
1659514103.883362,11629
1659514103.927446,11660
1659514103.961278,11679
1659514103.995111,11719
1659514104.039537,11724
1659514104.083963,11749
1659514104.12839,11758
1659514104.166665,11736
1659514104.20494,11667
1659514104.243215,11582
1659514104.284736,11556
1659514104.326258,11533
1659514104.365216,11542
1659514104.404175,11545
1659514104.443133,11564
1659514104.482091,11562
1659514104.52105,11555
1659514104.560008,11548
1659514104.60153,11539
1659514104.643051,11547
1659514104.68201,11574
1659514104.720968,11600
1659514104.759927,11619
1659514104.801448,11643
1659514104.84297,11648
1659514104.88227,11653
1659514104.92157,11659
1659514104.96087,11619
1659514105.002904,11448
1659514105.044939,11190
1659514105.083555,10951
1659514105.122172,10763
1659514105.160789,10619
1659514105.201798,10518
1659514105.242806,10505
1659514105.282107,10520
1659514105.321407,10544
1659514105.360707,10587
1659514105.402741,10639
1659514105.444775,10694
1659514105.48305,10761
1659514105.521325,10814
1659514105.5596,10861
1659514105.604368,10898
1659514105.649136,10927
1659514105.693904,10953
1659514105.735426,10974
1659514105.776947,10894
1659514105.815906,10714
1659514105.854864,10568
1659514105.893823,10488
1659514105.932781,10447
1659514105.97174,10435
1659514106.010698,10472
1659514106.05222,10490
1659514106.093741,10508
1659514106.132358,10513
1659514106.170975,10538
1659514106.209591,10584
1659514106.251626,10613
1659514106.29366,10656
1659514106.332276,10699
1659514106.370893,10731
1659514106.40951,10777
1659514106.450006,10810
1659514106.490502,10839
1659514106.530998,10775
1659514106.571495,10609
1659514106.613529,10447
1659514106.655563,10365
1659514106.694522,10324
1659514106.73348,10304
1659514106.772439,10309
1659514106.810714,10327
1659514106.848989,10321
1659514106.887263,10320
1659514106.929297,10351
1659514106.971332,10380
1659514107.010974,10422
1659514107.050616,10472
1659514107.090257,10500
1659514107.128532,10524
1659514107.166807,10560
1659514107.205082,10588
1659514107.247629,10619
1659514107.290176,10575
1659514107.328793,10407
1659514107.367409,10189
1659514107.406026,10042
1659514107.447547,9949
1659514107.489069,9885
1659514107.528028,9862
1659514107.566986,9872
1659514107.605944,9868
1659514107.647466,9854
1659514107.688987,9857
1659514107.727262,9876
1659514107.765537,9908
1659514107.803812,9939
1659514107.846359,9991
1659514107.888906,10023
1659514107.934016,10060
1659514107.979125,10119
1659514108.024235,10157
1659514108.05653,10199
1659514108.088824,10172
1659514108.13325,10006
1659514108.177677,9800
1659514108.222103,9696
1659514108.261745,9620
1659514108.301387,9591
1659514108.341029,9601
1659514108.383063,9628
1659514108.425097,9652
1659514108.463714,9656
1659514108.502331,9685
1659514108.540947,9713
1659514108.582469,9741
1659514108.62399,9767
1659514108.662265,9800
1659514108.70054,9824
1659514108.738815,9858
1659514108.77709,9893
1659514108.815365,9930
1659514108.85364,9883
1659514108.896187,9678
1659514108.938734,9447
1659514108.97735,9279
1659514109.015967,9173
1659514109.054584,9101
1659514109.093542,9084
1659514109.132501,9084
1659514109.171459,9072
1659514109.212981,9053
1659514109.254502,9055
1659514109.296536,9073
1659514109.33857,9093
1659514109.377187,9134
1659514109.415804,9165
1659514109.454421,9207
1659514109.49543,9249
1659514109.536438,9283
1659514109.575055,9335
1659514109.613672,9333
1659514109.652288,9188
1659514109.696373,8939
1659514109.740458,8772
1659514109.784542,8674
1659514109.818374,8606
1659514109.852207,8582
1659514109.896633,8583
1659514109.941059,8594
1659514109.985486,8591
1659514110.023761,8578
1659514110.062036,8588
1659514110.100311,8624
1659514110.142345,8661
1659514110.184379,8710
1659514110.223337,8746
1659514110.262296,8790
1659514110.301254,8838
1659514110.343288,8893
1659514110.385323,8939
1659514110.424281,8985
1659514110.463239,8908
1659514110.502198,8685
1659514110.541498,8518
1659514110.580798,8422
1659514110.620099,8362
1659514110.661107,8350
1659514110.702116,8376
1659514110.741075,8403
1659514110.780033,8419
1659514110.818992,8431
1659514110.860513,8466
1659514110.902035,8521
1659514110.940993,8572
1659514110.979952,8624
1659514111.01891,8679
1659514111.059919,8747
1659514111.100928,8812
1659514111.14057,8866
1659514111.180212,8874
1659514111.219854,8732
1659514111.261888,8542
1659514111.303922,8426
1659514111.342197,8359
1659514111.380472,8339
1659514111.418747,8354
1659514111.463857,8386
1659514111.508966,8391
1659514111.554076,8395
1659514111.595598,8413
1659514111.637119,8455
1659514111.676078,8484
1659514111.715036,8538
1659514111.753994,8589
1659514111.792953,8628
1659514111.831912,8685
1659514111.87087,8733
1659514111.911879,8785
1659514111.952888,8790
1659514111.990821,8657
1659514112.028754,8432
1659514112.066687,8291
1659514112.105646,8215
1659514112.144604,8152
1659514112.183563,8151
1659514112.225084,8181
1659514112.266606,8210
1659514112.304881,8216
1659514112.343156,8233
1659514112.381431,8261
1659514112.423465,8304
1659514112.465499,8347
1659514112.504457,8402
1659514112.543416,8445
1659514112.582374,8496
1659514112.623896,8544
1659514112.665417,8594
1659514112.704718,8656
1659514112.744018,8688
1659514112.783318,8671
1659514112.824839,8474
1659514112.866361,8277
1659514112.910445,8167
1659514112.95453,8094
1659514112.998615,8054
1659514113.037231,8061
1659514113.075848,8096
1659514113.114465,8114
1659514113.157012,8117
1659514113.199558,8127
1659514113.237492,8162
1659514113.275425,8201
1659514113.313358,8244
1659514113.351975,8296
1659514113.390591,8337
1659514113.429208,8397
1659514113.471242,8431
1659514113.513276,8480
1659514113.551893,8473
1659514113.59051,8316
1659514113.629127,8126
1659514113.671673,8016
1659514113.71422,7973
1659514113.75352,7951
1659514113.79282,7975
1659514113.832121,8000
1659514113.870737,8012
1659514113.909354,8024
1659514113.947971,8042
1659514113.98898,8073
1659514114.029989,8110
1659514114.06963,8158
1659514114.109272,8197
1659514114.148914,8255
1659514114.189923,8283
1659514114.230932,8323
1659514114.275358,8366
1659514114.319785,8404
1659514114.364211,8452
1659514114.397018,8469
1659514114.429825,8360
1659514114.474252,8137
1659514114.518678,7987
1659514114.563104,7916
1659514114.596424,7858
1659514114.629744,7850
1659514114.674512,7875
1659514114.71928,7903
1659514114.764048,7908
1659514114.802665,7918
1659514114.841281,7938
1659514114.879898,7982
1659514114.921419,8015
1659514114.962941,8065
1659514115.002241,8116
1659514115.041541,8159
1659514115.080842,8211
1659514115.119458,8256
1659514115.158075,8303
1659514115.196692,8358
1659514115.237188,8399
1659514115.277684,8324
1659514115.316301,8149
1659514115.354918,8003
1659514115.393534,7931
1659514115.435569,7892
1659514115.477603,7874
1659514115.516219,7911
1659514115.554836,7939
1659514115.593453,7957
1659514115.63207,7963
1659514115.670686,7999
1659514115.709303,8035
1659514115.751337,8079
1659514115.793371,8123
1659514115.835405,8166
1659514115.877439,8203
1659514115.915715,8245
1659514115.953989,8288
1659514115.992264,8327
1659514116.037032,8329
1659514116.0818,8206
1659514116.126569,8024
1659514116.159888,7926
1659514116.193208,7878
1659514116.236951,7870
1659514116.280694,7891
1659514116.324436,7928
1659514116.358781,7944
1659514116.393126,7961
1659514116.437211,7985
1659514116.481295,8012
1659514116.52538,8055
1659514116.563655,8103
1659514116.60193,8154
1659514116.640205,8193
1659514116.681726,8249
1659514116.723248,8293
1659514116.762548,8337
1659514116.801848,8381
1659514116.841149,8440
1659514116.879765,8449
1659514116.918382,8313
1659514116.956999,8117
1659514116.999545,7987
1659514117.042092,7931
1659514117.084639,7876
1659514117.127186,7868
1659514117.168707,7902
1659514117.210229,7914
1659514117.249187,7919
1659514117.288146,7927
1659514117.327104,7962
1659514117.369138,7995
1659514117.411172,8052
1659514117.449106,8085
1659514117.487039,8130
1659514117.524972,8173
1659514117.563589,8214
1659514117.602205,8262
1659514117.640822,8306
1659514117.683369,8308
1659514117.725916,8154
1659514117.763849,7980
1659514117.801782,7872
1659514117.839715,7837
1659514117.881749,7817
1659514117.923784,7833
1659514117.962742,7867
1659514118.0017,7879
1659514118.040659,7891
1659514118.082181,7896
1659514118.123702,7936
1659514118.162319,7982
1659514118.200935,8017
1659514118.239552,8068
1659514118.281586,8115
1659514118.32362,8169
1659514118.361895,8206
1659514118.40017,8261
1659514118.438445,8272
1659514118.48253,8156
1659514118.526614,7966
1659514118.570699,7861
1659514118.604531,7809
1659514118.638364,7791
1659514118.682448,7814
1659514118.726533,7852
1659514118.770617,7870
1659514118.808892,7889
1659514118.847167,7907
1659514118.885442,7940
1659514118.927476,7982
1659514118.969511,8032
1659514119.008127,8074
1659514119.046744,8141
1659514119.085361,8175
1659514119.127395,8227
1659514119.169429,8283
1659514119.208387,8323
1659514119.247346,8327
1659514119.286304,8194
1659514119.325263,7992
1659514119.364221,7877
1659514119.40318,7821
1659514119.444188,7782
1659514119.485197,7799
1659514119.524839,7835
1659514119.564481,7860
1659514119.604123,7869
1659514119.645132,7893
1659514119.686141,7926
1659514119.724758,7961
1659514119.763374,8008
1659514119.801991,8058
1659514119.843,8106
1659514119.884009,8146
1659514119.923993,8192
1659514119.963976,8237
1659514120.00396,8300
1659514120.044456,8327
1659514120.084953,8255
1659514120.12972,8071
1659514120.174489,7924
1659514120.219257,7874
1659514120.258215,7839
1659514120.297174,7832
1659514120.336132,7876
1659514120.378166,7899
1659514120.4202,7905
1659514120.459159,7923
1659514120.498117,7952
1659514120.537076,7976
1659514120.57911,8029
1659514120.621144,8075
1659514120.659761,8123
1659514120.698377,8156
1659514120.736994,8200
1659514120.775611,8256
1659514120.814227,8284
1659514120.852844,8225
1659514120.894878,8040
1659514120.936912,7913
1659514120.975871,7853
1659514121.014829,7837
1659514121.053788,7829
1659514121.094284,7868
1659514121.13478,7902
1659514121.174081,7904
1659514121.213381,7927
1659514121.252681,7949
1659514121.291298,7984
1659514121.329914,8033
1659514121.368531,8090
1659514121.410053,8137
1659514121.451574,8176
1659514121.493096,8231
1659514121.534617,8282
1659514121.573917,8325
1659514121.613218,8310
1659514121.652518,8151
1659514121.69626,7967
1659514121.740003,7870
1659514121.783746,7820
1659514121.817579,7789
1659514121.851411,7807
1659514121.895837,7845
1659514121.940264,7877
1659514121.98469,7876
1659514122.022623,7890
1659514122.060556,7922
1659514122.09849,7960
1659514122.139498,8007
1659514122.180507,8052
1659514122.219807,8100
1659514122.259108,8131
1659514122.298408,8183
1659514122.336683,8217
1659514122.374958,8266
1659514122.413233,8281
1659514122.456292,8163
1659514122.499352,7983
1659514122.53831,7874
1659514122.577268,7825
1659514122.616227,7793
1659514122.654844,7825
1659514122.69346,7852
1659514122.732077,7875
1659514122.773598,7893
1659514122.81512,7910
1659514122.854762,7945
1659514122.894404,7987
1659514122.934046,8042
1659514122.974542,8086
1659514123.015038,8151
1659514123.059465,8210
1659514123.103891,8271
1659514123.148317,8351
1659514123.181637,8423
1659514123.214957,8406
1659514123.259041,8268
1659514123.303126,8144
1659514123.34721,8092
1659514123.386511,8088
1659514123.425811,8095
1659514123.465111,8149
1659514123.507145,8187
1659514123.549179,8211
1659514123.587796,8236
1659514123.626413,8256
1659514123.66503,8302
1659514123.707064,8349
1659514123.749098,8411
1659514123.788398,8469
1659514123.827698,8536
1659514123.866998,8600
1659514123.905273,8661
1659514123.943548,8728
1659514123.981823,8782
1659514124.022832,8839
1659514124.063841,8802
1659514124.102799,8627
1659514124.141758,8469
1659514124.180716,8389
1659514124.218991,8335
1659514124.257266,8312
1659514124.295541,8359
1659514124.337575,8411
1659514124.37961,8449
1659514124.420619,8480
1659514124.461627,8550
1659514124.500586,8610
1659514124.539544,8686
1659514124.578503,8741
1659514124.622587,8799
1659514124.666672,8858
1659514124.710756,8910
1659514124.744589,8971
1659514124.778421,9032
1659514124.822847,9094
1659514124.867274,9095
1659514124.9117,8955
1659514124.94502,8791
1659514124.978339,8708
1659514125.022424,8662
1659514125.066509,8650
1659514125.110593,8686
1659514125.14921,8732
1659514125.187827,8752
1659514125.226443,8782
1659514125.268477,8809
1659514125.310512,8860
1659514125.349128,8914
1659514125.387745,8965
1659514125.426362,9022
1659514125.46532,9085
1659514125.504279,9135
1659514125.543237,9195
1659514125.584246,9253
1659514125.625255,9286
1659514125.663872,9231
1659514125.702488,9041
1659514125.741105,8865
1659514125.781089,8767
1659514125.821072,8707
1659514125.861056,8674
1659514125.902065,8714
1659514125.943074,8759
1659514125.984595,8790
1659514126.026117,8832
1659514126.065417,8874
1659514126.104717,8931
1659514126.144017,8986
1659514126.18776,9054
1659514126.231503,9122
1659514126.275246,9193
1659514126.308566,9241
1659514126.341885,9292
1659514126.386653,9351
1659514126.431422,9405
1659514126.47619,9420
1659514126.508997,9292
1659514126.541804,9098
1659514126.585888,8965
1659514126.629973,8915
1659514126.674057,8876
1659514126.713699,8886
1659514126.753341,8939
1659514126.792983,8975
1659514126.834505,8991
1659514126.876026,9018
1659514126.914301,9059
1659514126.952576,9110
1659514126.990851,9171
1659514127.033398,9235
1659514127.075945,9290
1659514127.114903,9346
1659514127.153862,9401
1659514127.19282,9464
1659514127.231437,9506
1659514127.270053,9540
1659514127.30867,9514
1659514127.350192,9338
1659514127.391713,9159
1659514127.432978,9089
1659514127.474244,9052
1659514127.515509,9032
1659514127.556774,9086
1659514127.595391,9114
1659514127.634007,9138
1659514127.672624,9167
1659514127.714146,9202
1659514127.755667,9260
1659514127.793942,9308
1659514127.832217,9363
1659514127.870492,9424
1659514127.912014,9484
1659514127.953535,9531
1659514127.992494,9585
1659514128.031452,9635
1659514128.07041,9640
1659514128.109027,9516
1659514128.147644,9328
1659514128.186261,9233
1659514128.227782,9185
1659514128.269304,9172
1659514128.308946,9202
1659514128.348588,9250
1659514128.388229,9290
1659514128.429238,9306
1659514128.470247,9346
1659514128.508522,9375
1659514128.546797,9432
1659514128.585072,9480
1659514128.62984,9542
1659514128.674608,9600
1659514128.719376,9640
1659514128.752696,9695
1659514128.786016,9733
1659514128.830442,9782
1659514128.874868,9808
1659514128.919295,9731
1659514128.961329,9553
1659514129.003363,9390
1659514129.042321,9321
1659514129.08128,9271
1659514129.120238,9252
1659514129.158855,9287
1659514129.197472,9328
1659514129.236089,9338
1659514129.278635,9354
1659514129.321182,9395
1659514129.36014,9436
1659514129.399099,9484
1659514129.438057,9539
1659514129.479066,9587
1659514129.520075,9640
1659514129.558692,9679
1659514129.597309,9728
1659514129.635925,9770
1659514129.674542,9817
1659514129.713159,9806
1659514129.751776,9660
1659514129.793297,9491
1659514129.834818,9406
1659514129.873435,9379
1659514129.912052,9377
1659514129.950669,9415
1659514129.99219,9453
1659514130.033712,9489
1659514130.07267,9501
1659514130.111629,9538
1659514130.150587,9571
1659514130.192621,9611
1659514130.234655,9675
1659514130.279423,9719
1659514130.324191,9769
1659514130.368959,9804
1659514130.402279,9853
1659514130.435599,9885
1659514130.479683,9897
1659514130.523768,9755
1659514130.567852,9569
1659514130.606469,9468
1659514130.645086,9430
1659514130.683703,9406
1659514130.725737,9420
1659514130.767771,9465
1659514130.806046,9497
1659514130.844321,9522
1659514130.882596,9540
1659514130.921554,9579
1659514130.960513,9627
1659514130.999471,9673
1659514131.04048,9726
1659514131.081489,9773
1659514131.119764,9831
1659514131.158039,9873
1659514131.196314,9937
1659514131.238861,9973
1659514131.281407,9982
1659514131.320366,9892
1659514131.359324,9740
1659514131.398283,9687
1659514131.436558,9672
1659514131.474833,9694
1659514131.513108,9750
1659514131.555654,9837
1659514131.598201,9894
1659514131.637501,9924
1659514131.676801,9969
1659514131.716102,9988
1659514131.756598,9998
1659514131.797094,10014
1659514131.841862,10040
1659514131.88663,10085
1659514131.931398,10137
1659514131.964206,10180
1659514131.997013,10225
1659514132.041097,10276
1659514132.085182,10270
1659514132.129266,10113
1659514132.163099,9833
1659514132.196931,9642
1659514132.242041,9549
1659514132.287151,9522
1659514132.33226,9530
1659514132.370535,9599
1659514132.40881,9664
1659514132.447085,9740
1659514132.488607,9846
1659514132.530128,9933
1659514132.570112,10006
1659514132.610096,10082
1659514132.650079,10083
1659514132.688696,9970
1659514132.727313,9855
1659514132.765929,9779
1659514132.804888,9707
1659514132.843846,9635
1659514132.882805,9373
1659514132.924326,8948
1659514132.965848,8604
1659514133.004123,8375
1659514133.042398,8227
1659514133.080673,8125
1659514133.125099,8089
1659514133.169525,8082
1659514133.213952,8087
1659514133.256499,8110
1659514133.299045,8141
1659514133.336978,8167
1659514133.374912,8186
1659514133.412845,8226
1659514133.454879,8267
1659514133.496913,8383
1659514133.535872,8589
1659514133.57483,8794
1659514133.613789,9009
1659514133.652405,9222
1659514133.691022,9417
1659514133.729639,9483
1659514133.77116,9463
1659514133.812682,9444
1659514133.85164,9473
1659514133.890599,9402
1659514133.929557,9301
1659514133.970053,9308
1659514134.01055,9311
1659514134.049166,9283
1659514134.087783,9270
1659514134.1264,9285
1659514134.1657,9311
1659514134.205,9303
1659514134.2443,9283
1659514134.285822,9266
1659514134.327343,9241
1659514134.365618,9203
1659514134.403893,9174
1659514134.442168,9129
1659514134.484202,9058
1659514134.526237,8814
1659514134.565878,8456
1659514134.60552,8186
1659514134.645162,7996
1659514134.686171,7863
1659514134.72718,7781
1659514134.77229,7716
1659514134.8174,7629
1659514134.862509,7559
1659514134.895829,7509
1659514134.929149,7488
1659514134.972892,7488
1659514135.016635,7485
1659514135.060377,7520
1659514135.100019,7527
1659514135.139661,7531
1659514135.179303,7541
1659514135.220312,7548
1659514135.261321,7554
1659514135.299938,7531
1659514135.338554,7399
1659514135.377171,7210
1659514135.415788,7167
1659514135.454405,7302
1659514135.493021,7546
1659514135.535568,7786
1659514135.578115,7959
1659514135.616731,8051
1659514135.655348,8056
1659514135.693965,8061
1659514135.735487,8094
1659514135.777008,8198
1659514135.81665,8321
1659514135.856292,8428
1659514135.895934,8511
1659514135.935712,8571
1659514135.975491,8606
1659514136.01527,8628
1659514136.055048,8642
1659514136.094827,8678
1659514136.136861,8705
1659514136.178895,8700
1659514136.21717,8602
1659514136.255445,8474
1659514136.29372,8405
1659514136.337805,8405
1659514136.381889,8395
1659514136.425974,8428
1659514136.460319,8480
1659514136.494664,8516
1659514136.538407,8527
1659514136.582149,8529
1659514136.625892,8546
1659514136.663826,8568
1659514136.701759,8608
1659514136.739692,8615
1659514136.782239,8639
1659514136.824785,8662
1659514136.863402,8691
1659514136.902019,8726
1659514136.940635,8745
1659514136.982157,8692
1659514137.023679,8533
1659514137.06332,8399
1659514137.102962,8331
1659514137.142604,8279
1659514137.180879,8284
1659514137.219154,8310
1659514137.257429,8332
1659514137.297925,8356
1659514137.338422,8392
1659514137.37738,8447
1659514137.416339,8546
1659514137.455297,8656
1659514137.497331,8764
1659514137.539366,8861
1659514137.57764,8944
1659514137.615915,9025
1659514137.65419,9077
1659514137.698958,9138
1659514137.743726,9198
1659514137.788495,9239
1659514137.821302,9214
1659514137.854109,9210
1659514137.895887,9239
1659514137.937664,9266
1659514137.979442,9303
1659514138.02122,9327
1659514138.063767,9323
1659514138.106313,9314
1659514138.14493,9296
1659514138.183547,9278
1659514138.222164,9284
1659514138.263685,9298
1659514138.305207,9316
1659514138.346728,9335
1659514138.38825,9337
1659514138.430796,9348
1659514138.473343,9341
1659514138.511618,9317
1659514138.549893,9308
1659514138.588168,9302
1659514138.629689,9245
1659514138.671211,9044
1659514138.71017,8786
1659514138.749128,8622
1659514138.788086,8528
1659514138.827045,8456
1659514138.866003,8429
1659514138.904962,8429
1659514138.946483,8422
1659514138.988005,8411
1659514139.027305,8417
1659514139.066605,8445
1659514139.105905,8490
1659514139.144522,8550
1659514139.183139,8587
1659514139.221756,8635
1659514139.26379,8661
1659514139.305824,8701
1659514139.344782,8746
1659514139.383741,8783
1659514139.422699,8763
1659514139.463708,8587
1659514139.504717,8396
1659514139.542992,8297
1659514139.581267,8278
1659514139.619542,8267
1659514139.661063,8293
1659514139.702585,8353
1659514139.74667,8378
1659514139.790754,8394
1659514139.834839,8429
1659514139.873455,8472
1659514139.912072,8521
1659514139.950689,8558
1659514139.991698,8593
1659514140.032706,8625
1659514140.071665,8655
1659514140.110623,8677
1659514140.149582,8722
1659514140.188199,8755
1659514140.226815,8792
1659514140.265432,8703
1659514140.307466,8506
1659514140.3495,8340
1659514140.3888,8253
1659514140.428101,8193
1659514140.467401,8148
1659514140.50841,8156
1659514140.549419,8190
1659514140.59094,8189
1659514140.632462,8195
1659514140.673983,8228
1659514140.715505,8259
1659514140.748824,8295
1659514140.782144,8345
1659514140.825887,8396
1659514140.86963,8456
1659514140.913373,8504
1659514140.953015,8546
1659514140.992656,8595
1659514141.032299,8648
1659514141.07382,8684
1659514141.115341,8633
1659514141.153958,8449
1659514141.192575,8275
1659514141.231192,8197
1659514141.272713,8143
1659514141.314235,8112
1659514141.353877,8145
1659514141.393518,8178
1659514141.433161,8174
1659514141.471435,8190
1659514141.50971,8222
1659514141.547985,8265
1659514141.590532,8330
1659514141.633079,8372
1659514141.671695,8431
1659514141.710312,8494
1659514141.748929,8545
1659514141.790451,8600
1659514141.831972,8656
1659514141.87093,8699
1659514141.909889,8628
1659514141.948847,8460
1659514141.990369,8322
1659514142.03189,8283
1659514142.069824,8270
1659514142.107757,8284
1659514142.14569,8328
1659514142.188237,8375
1659514142.230783,8401
1659514142.270084,8433
1659514142.309384,8486
1659514142.348684,8536
1659514142.392769,8595
1659514142.436853,8653
1659514142.480938,8714
1659514142.513745,8782
1659514142.546552,8827
1659514142.591662,8881
1659514142.636772,8940
1659514142.681881,8984
1659514142.723403,8962
1659514142.764925,8819
1659514142.803541,8648
1659514142.842158,8561
1659514142.880774,8518
1659514142.917683,8478
1659514142.954591,8498
1659514142.991499,8551
1659514143.028407,8586
1659514143.068903,8611
1659514143.109399,8666
1659514143.148016,8727
1659514143.186633,8795
1659514143.225249,8879
1659514143.269676,8945
1659514143.314102,9018
1659514143.358528,9074
1659514143.399537,9127
1659514143.440546,9189
1659514143.480188,9234
1659514143.51983,9283
1659514143.559472,9315
1659514143.600993,9286
1659514143.642515,9161
1659514143.681132,9046
1659514143.719748,8996
1659514143.758365,8976
1659514143.797665,8976
1659514143.836966,9004
1659514143.876266,9045
1659514143.918812,9077
1659514143.961359,9086
1659514143.999634,9102
1659514144.037909,9148
1659514144.076184,9187
1659514144.114801,9228
1659514144.153417,9278
1659514144.192034,9319
1659514144.233556,9368
1659514144.275077,9412
1659514144.313694,9459
1659514144.352311,9489
1659514144.390927,9445
1659514144.432961,9354
1659514144.474996,9311
1659514144.514296,9281
1659514144.553596,9298
1659514144.592896,9338
1659514144.63493,9388
1659514144.676965,9418
1659514144.715581,9435
1659514144.754198,9471
1659514144.792814,9506
1659514144.834849,9550
1659514144.876883,9592
1659514144.921651,9642
1659514144.966419,9692
1659514145.011187,9739
1659514145.043994,9787
1659514145.076801,9833
1659514145.121228,9845
1659514145.165654,9770
1659514145.21008,9630
1659514145.248697,9472
1659514145.287313,9330
1659514145.32593,9214
1659514145.367452,9114
1659514145.408973,9051
1659514145.44759,8980
1659514145.486207,8900
1659514145.524823,8821
1659514145.564124,8762
1659514145.603424,8717
1659514145.642724,8683
1659514145.683733,8660
1659514145.724742,8629
1659514145.763359,8609
1659514145.801975,8610
1659514145.840592,8615
1659514145.883139,8629
1659514145.925685,8633
1659514145.964302,8540
1659514146.002919,8352
1659514146.041536,8196
1659514146.080152,8112
1659514146.118769,8066
1659514146.157386,8028
1659514146.198907,8037
1659514146.240429,8031
1659514146.28195,8013
1659514146.323472,7991
1659514146.361747,7998
1659514146.400022,8006
1659514146.438297,8016
1659514146.483065,8043
1659514146.527833,8058
1659514146.572601,8081
1659514146.604895,8104
1659514146.63719,8141
1659514146.681616,8149
1659514146.726043,8075
1659514146.770469,7911
1659514146.804814,7785
1659514146.839159,7732
1659514146.883585,7683
1659514146.928011,7675
1659514146.972438,7691
1659514147.011054,7686
1659514147.049671,7679
1659514147.088288,7689
1659514147.130834,7702
1659514147.173381,7737
1659514147.21234,7755
1659514147.251298,7782
1659514147.290257,7814
1659514147.330753,7840
1659514147.371249,7882
1659514147.409182,7916
1659514147.447116,7911
1659514147.485049,7786
1659514147.522982,7650
1659514147.563991,7559
1659514147.605,7521
1659514147.649084,7501
1659514147.693169,7508
1659514147.737253,7534
1659514147.776896,7555
1659514147.816537,7567
1659514147.856179,7569
1659514147.898213,7605
1659514147.940248,7637
1659514147.979206,7675
1659514148.018164,7718
1659514148.057123,7752
1659514148.099157,7800
1659514148.141191,7835
1659514148.179808,7873
1659514148.218425,7901
1659514148.257041,7869
1659514148.295316,7733
1659514148.333591,7626
1659514148.371866,7578
1659514148.411508,7549
1659514148.45115,7556
1659514148.490792,7573
1659514148.531288,7600
1659514148.571785,7619
1659514148.610401,7635
1659514148.649018,7655
1659514148.687635,7694
1659514148.728644,7738
1659514148.769653,7770
1659514148.808611,7823
1659514148.847569,7857
1659514148.886528,7897
1659514148.927537,7944
1659514148.968546,7975
1659514149.007504,7977
1659514149.046463,7874
1659514149.085421,7752
1659514149.129848,7673
1659514149.174274,7658
1659514149.2187,7652
1659514149.260221,7684
1659514149.301743,7714
1659514149.341385,7731
1659514149.381027,7736
1659514149.420669,7754
1659514149.461678,7787
1659514149.502687,7822
1659514149.540962,7861
1659514149.579237,7902
1659514149.617512,7942
1659514149.656128,7980
1659514149.694745,8015
1659514149.733362,8047
1659514149.77232,8016
1659514149.811279,7874
1659514149.850237,7718
1659514149.893638,7638
1659514149.937039,7605
1659514149.98044,7596
1659514150.014273,7618
1659514150.048105,7655
1659514150.092873,7684
1659514150.137641,7701
1659514150.182409,7719
1659514150.221368,7758
1659514150.260326,7798
1659514150.299284,7835
1659514150.341319,7884
1659514150.383353,7925
1659514150.422653,7966
1659514150.461953,8006
1659514150.501253,8036
1659514150.542775,8084
1659514150.584296,8116
1659514150.622913,8053
1659514150.66153,7890
1659514150.700146,7759
1659514150.739447,7691
1659514150.778747,7650
1659514150.818047,7618
1659514150.858543,7635
1659514150.89904,7667
1659514150.93834,7680
1659514150.97764,7684
1659514151.01694,7696
1659514151.055899,7734
1659514151.094857,7760
1659514151.133816,7808
1659514151.174824,7845
1659514151.215833,7879
1659514151.256842,7915
1659514151.297851,7959
1659514151.337835,8003
1659514151.377819,8029
1659514151.417802,7979
1659514151.458811,7823
1659514151.49982,7718
1659514151.538779,7662
1659514151.577737,7642
1659514151.616695,7654
1659514151.66078,7689
1659514151.704865,7715
1659514151.748949,7716
1659514151.782269,7730
1659514151.815589,7752
1659514151.859331,7787
1659514151.903074,7825
1659514151.946817,7865
1659514151.985548,7900
1659514152.024278,7934
1659514152.063009,7965
1659514152.10174,7992
1659514152.14047,8032
1659514152.179201,8027
1659514152.217932,7897
1659514152.256662,7725
1659514152.295393,7620
1659514152.336914,7571
1659514152.378436,7539
1659514152.419957,7549
1659514152.461479,7571
1659514152.503,7588
1659514152.544522,7591
1659514152.582455,7606
1659514152.620388,7639
1659514152.658322,7683
1659514152.696255,7720
1659514152.739998,7754
1659514152.78374,7802
1659514152.827483,7843
1659514152.86798,7877
1659514152.908476,7915
1659514152.947434,7965
1659514152.986393,8006
1659514153.025351,8029
1659514153.06431,7928
1659514153.103268,7742
1659514153.142226,7586
1659514153.183748,7521
1659514153.22527,7492
1659514153.264228,7483
1659514153.303186,7520
1659514153.342145,7557
1659514153.381103,7580
1659514153.420062,7600
1659514153.45902,7628
1659514153.501054,7665
1659514153.543088,7717
1659514153.582389,7770
1659514153.621689,7818
1659514153.660989,7859
1659514153.702511,7900
1659514153.744032,7942
1659514153.78299,7987
1659514153.821949,8037
1659514153.860908,8026
1659514153.903454,7884
1659514153.946001,7723
1659514153.984618,7640
1659514154.023234,7627
1659514154.061851,7611
1659514154.102347,7637
1659514154.142844,7687
1659514154.18727,7692
1659514154.231696,7709
1659514154.276123,7729
1659514154.314398,7758
1659514154.352673,7799
1659514154.390948,7845
1659514154.432982,7885
1659514154.475016,7931
1659514154.513974,7980
1659514154.552933,8025
1659514154.591891,8070
1659514154.633413,8121
1659514154.674934,8107
1659514154.713551,7951
1659514154.752167,7777
1659514154.790784,7690
1659514154.829743,7654
1659514154.868701,7632
1659514154.90766,7659
1659514154.949694,7703
1659514154.991728,7728
1659514155.030344,7730
1659514155.068961,7745
1659514155.107578,7780
1659514155.145853,7820
1659514155.184128,7869
1659514155.222403,7908
1659514155.263924,7951
1659514155.305446,8000
1659514155.343721,8032
1659514155.381996,8075
1659514155.420271,8131
1659514155.461792,8173
1659514155.503314,8204
1659514155.545348,8146
1659514155.587382,7945
1659514155.626341,7765
1659514155.665299,7680
1659514155.704257,7631
1659514155.748342,7605
1659514155.792427,7634
1659514155.836511,7670
1659514155.870856,7670
1659514155.905201,7693
1659514155.949969,7702
1659514155.994737,7740
1659514156.039505,7769
1659514156.07778,7801
1659514156.116055,7840
1659514156.15433,7886
1659514156.195852,7920
1659514156.237373,7954
1659514156.27599,8009
1659514156.314607,8045
1659514156.353223,8086
1659514156.395257,7997
1659514156.437292,7800
1659514156.47625,7664
1659514156.515208,7604
1659514156.554167,7579
1659514156.592784,7586
1659514156.6314,7625
1659514156.670017,7654
1659514156.711026,7674
1659514156.752035,7673
1659514156.792019,7697
1659514156.832002,7740
1659514156.871986,7769
1659514156.913507,7819
1659514156.955029,7857
1659514156.993646,7911
1659514157.032262,7949
1659514157.070879,7992
1659514157.112913,8045
1659514157.154947,8085
1659514157.194589,8071
1659514157.234231,7901
1659514157.273873,7711
1659514157.314369,7623
1659514157.354866,7578
1659514157.393482,7553
1659514157.432099,7573
1659514157.470716,7624
1659514157.512237,7647
1659514157.553759,7648
1659514157.592717,7667
1659514157.631676,7708
1659514157.670634,7745
1659514157.71506,7793
1659514157.759487,7842
1659514157.803913,7887
1659514157.845947,7942
1659514157.887981,7995
1659514157.926256,8037
1659514157.964531,8082
1659514158.002806,8137
1659514158.041765,8183
1659514158.080723,8221
1659514158.119682,8191
1659514158.161716,7997
1659514158.20375,7798
1659514158.242367,7708
1659514158.280983,7674
1659514158.3196,7651
1659514158.360609,7673
1659514158.401618,7716
1659514158.440576,7750
1659514158.479535,7752
1659514158.518493,7777
1659514158.556768,7806
1659514158.595043,7853
1659514158.633318,7896
1659514158.67484,7949
1659514158.716361,7999
1659514158.754978,8041
1659514158.793595,8095
1659514158.832211,8132
1659514158.873733,8187
1659514158.915254,8240
1659514158.957289,8230
1659514158.999323,8065
1659514159.041357,7888
1659514159.083391,7795
1659514159.122349,7764
1659514159.161308,7756
1659514159.200266,7791
1659514159.239566,7827
1659514159.278867,7843
1659514159.318167,7852
1659514159.359688,7872
1659514159.40121,7917
1659514159.44051,7955
1659514159.47981,8003
1659514159.51911,8055
1659514159.560119,8095
1659514159.601128,8152
1659514159.639403,8183
1659514159.677678,8233
1659514159.715953,8286
1659514159.7585,8320
1659514159.801047,8211
1659514159.840005,8002
1659514159.878963,7879
1659514159.917922,7816
1659514159.958418,7796
1659514159.998914,7789
1659514160.043683,7827
1659514160.088451,7860
1659514160.133219,7879
1659514160.172177,7896
1659514160.211136,7927
1659514160.250094,7964
1659514160.292128,8005
1659514160.334162,8075
1659514160.373121,8105
1659514160.412079,8151
1659514160.451038,8206
1659514160.492559,8244
1659514160.534081,8297
1659514160.572356,8353
1659514160.610631,8360
1659514160.648906,8234
1659514160.687864,8035
1659514160.726823,7906
1659514160.765781,7846
1659514160.807815,7815
1659514160.849849,7815
1659514160.887782,7858
1659514160.925716,7891
1659514160.963649,7904
1659514161.004658,7919
1659514161.045667,7955
1659514161.084967,7996
1659514161.124267,8038
1659514161.163567,8086
1659514161.201842,8122
1659514161.240117,8172
1659514161.278392,8210
1659514161.320939,8263
1659514161.363486,8307
1659514161.40552,8350
1659514161.447554,8302
1659514161.485829,8141
1659514161.524104,7992
1659514161.562379,7930
1659514161.606463,7902
1659514161.650548,7902
1659514161.694633,7934
1659514161.728977,7972
1659514161.763322,7986
1659514161.807407,7997
1659514161.851492,8031
1659514161.895576,8063
1659514161.934193,8116
1659514161.97281,8153
1659514162.011426,8188
1659514162.052948,8245
1659514162.094469,8294
1659514162.132744,8339
1659514162.171019,8385
1659514162.209294,8412
1659514162.250816,8288
1659514162.292337,8114
1659514162.331979,7985
1659514162.371621,7937
1659514162.411263,7917
1659514162.44988,7916
1659514162.488497,7959
1659514162.527113,7987
1659514162.569147,8008
1659514162.611181,8019
1659514162.650823,8065
1659514162.690465,8098
1659514162.730107,8139
1659514162.771116,8204
1659514162.812125,8249
1659514162.8504,8300
1659514162.888675,8350
1659514162.92695,8386
1659514162.968472,8428
1659514163.009993,8491
1659514163.049293,8517
1659514163.088593,8415
1659514163.127894,8230
1659514163.168902,8087
1659514163.209911,8029
1659514163.248528,7964
1659514163.287145,7944
1659514163.325762,7970
1659514163.37053,8001
1659514163.415298,8005
1659514163.460066,8004
1659514163.493385,8028
1659514163.526705,8057
1659514163.571473,8100
1659514163.616241,8133
1659514163.661009,8177
1659514163.702531,8220
1659514163.744052,8260
1659514163.782669,8300
1659514163.821286,8347
1659514163.859902,8352
1659514163.898519,8225
1659514163.937136,8062
1659514163.975753,7956
1659514164.018299,7914
1659514164.060846,7903
1659514164.099121,7921
1659514164.137396,7963
1659514164.175671,7984
1659514164.214288,7985
1659514164.252904,8000
1659514164.291521,8043
1659514164.335606,8079
1659514164.37969,8128
1659514164.423775,8174
1659514164.457094,8212
1659514164.490414,8254
1659514164.534499,8301
1659514164.578583,8345
1659514164.622668,8384
1659514164.661285,8290
1659514164.699901,8094
1659514164.738518,7953
1659514164.780552,7893
1659514164.822586,7848
1659514164.861545,7845
1659514164.900503,7879
1659514164.939462,7910
1659514164.980471,7923
1659514165.02148,7938
1659514165.060438,7958
1659514165.099396,7997
1659514165.138355,8038
1659514165.177313,8087
1659514165.216272,8127
1659514165.25523,8168
1659514165.297264,8204
1659514165.339298,8254
1659514165.377573,8295
1659514165.415848,8345
1659514165.454123,8387
1659514165.495645,8304
1659514165.537166,8108
1659514165.57715,7929
1659514165.617134,7845
1659514165.657117,7798
1659514165.698639,7765
1659514165.74016,7791
1659514165.778435,7813
1659514165.81671,7828
1659514165.854985,7833
1659514165.897532,7847
1659514165.940079,7877
1659514165.979379,7912
1659514166.018679,7955
1659514166.057979,7993
1659514166.098476,8028
1659514166.138972,8068
1659514166.177931,8116
1659514166.216889,8157
1659514166.255847,8217
1659514166.299932,8142
1659514166.344017,7958
1659514166.388101,7820
1659514166.428597,7748
1659514166.469094,7730
1659514166.508736,7728
1659514166.548378,7771
1659514166.588019,7799
1659514166.626636,7811
1659514166.665253,7824
1659514166.70387,7855
1659514166.744879,7892
1659514166.785887,7938
1659514166.825188,7997
1659514166.864488,8042
1659514166.903788,8085
1659514166.946335,8134
1659514166.988882,8188
1659514167.027156,8236
1659514167.065431,8272
1659514167.103706,8189
1659514167.143007,7988
1659514167.182307,7860
1659514167.221607,7778
1659514167.262616,7739
1659514167.303625,7741
1659514167.3419,7781
1659514167.380175,7812
1659514167.41845,7831
1659514167.459971,7848
1659514167.501493,7877
1659514167.540451,7920
1659514167.57941,7957
1659514167.618368,8016
1659514167.658864,8077
1659514167.699361,8123
1659514167.738319,8172
1659514167.777277,8227
1659514167.816236,8272
1659514167.858783,8317
1659514167.90133,8375
1659514167.945414,8352
1659514167.989499,8186
1659514168.033583,7987
1659514168.072542,7870
1659514168.1115,7810
1659514168.150459,7780
1659514168.192493,7778
1659514168.234527,7823
1659514168.272802,7850
1659514168.311077,7843
1659514168.349352,7857
1659514168.38831,7893
1659514168.427269,7932
1659514168.466227,7976
1659514168.508774,8018
1659514168.551321,8064
1659514168.589937,8114
1659514168.628554,8155
1659514168.667171,8206
1659514168.707667,8249
1659514168.748163,8204
1659514168.787463,8025
1659514168.826764,7871
1659514168.866064,7806
1659514168.908098,7784
1659514168.950132,7790
1659514168.98909,7830
1659514169.028049,7873
1659514169.067008,7878
1659514169.105966,7898
1659514169.144924,7932
1659514169.183883,7977
1659514169.226429,8016
1659514169.268976,8067
1659514169.310498,8105
1659514169.352019,8154
1659514169.393797,8200
1659514169.435575,8250
1659514169.477353,8297
1659514169.51913,8301
1659514169.557747,8146
1659514169.596364,7935
1659514169.634981,7834
1659514169.673597,7777
1659514169.712214,7755
1659514169.750831,7761
1659514169.79184,7810
1659514169.832849,7838
1659514169.871807,7856
1659514169.910766,7866
1659514169.949724,7891
1659514169.991246,7937
1659514170.032767,7984
1659514170.071726,8032
1659514170.110684,8084
1659514170.149642,8132
1659514170.191677,8172
1659514170.233711,8226
1659514170.271986,8273
1659514170.310261,8298
1659514170.348536,8212
1659514170.390057,7993
1659514170.431579,7843
1659514170.470879,7773
1659514170.510179,7728
1659514170.549479,7719
1659514170.593222,7763
1659514170.636965,7799
1659514170.680708,7803
1659514170.713515,7816
1659514170.746322,7841
1659514170.790748,7895
1659514170.835175,7928
1659514170.879601,7970
1659514170.917876,8027
1659514170.956151,8069
1659514170.994426,8112
1659514171.03646,8163
1659514171.078494,8220
1659514171.118136,8255
1659514171.157778,8204
1659514171.19742,7996
1659514171.238429,7840
1659514171.279438,7779
1659514171.318054,7755
1659514171.356671,7764
1659514171.395288,7808
1659514171.43493,7856
1659514171.474572,7865
1659514171.514214,7889
1659514171.555735,7923
1659514171.597257,7969
1659514171.635873,8022
1659514171.67449,8069
1659514171.713107,8117
1659514171.754628,8169
1659514171.79615,8214
1659514171.835108,8258
1659514171.874067,8313
1659514171.913025,8352
1659514171.954547,8265
1659514171.996068,8045
1659514172.034685,7874
1659514172.073302,7817
1659514172.111918,7762
1659514172.156345,7746
1659514172.200771,7781
1659514172.245197,7814
1659514172.286206,7818
1659514172.327215,7837
1659514172.367199,7859
1659514172.407182,7892
1659514172.447166,7941
1659514172.488688,7981
1659514172.530209,8024
1659514172.568826,8071
1659514172.607442,8114
1659514172.646059,8150
1659514172.686248,8209
1659514172.726437,8254
1659514172.766625,8256
1659514172.806814,8096
1659514172.847003,7875
1659514172.885278,7760
1659514172.923553,7712
1659514172.961828,7689
1659514173.000786,7692
1659514173.039745,7746
1659514173.078703,7758
1659514173.119199,7761
1659514173.159696,7772
1659514173.197971,7801
1659514173.236246,7850
1659514173.274521,7897
1659514173.316555,7944
1659514173.358589,7988
1659514173.397547,8032
1659514173.436506,8084
1659514173.475464,8140
1659514173.516986,8175
1659514173.558507,8107
1659514173.602933,7912
1659514173.64736,7753
1659514173.691786,7689
1659514173.730403,7667
1659514173.76902,7667
1659514173.807636,7707
1659514173.849158,7752
1659514173.890679,7772
1659514173.929296,7784
1659514173.967913,7823
1659514174.006529,7858
1659514174.048051,7920
1659514174.089572,7965
1659514174.127847,8003
1659514174.166122,8048
1659514174.204397,8103
1659514174.243014,8147
1659514174.281631,8188
1659514174.320247,8220
1659514174.362282,8103
1659514174.404316,7913
1659514174.443616,7761
1659514174.482916,7696
1659514174.522216,7657
1659514174.563225,7647
1659514174.604234,7680
1659514174.643534,7703
1659514174.682835,7719
1659514174.722135,7725
1659514174.761435,7766
1659514174.800735,7789
1659514174.840035,7827
1659514174.881557,7882
1659514174.923078,7919
1659514174.965112,7962
1659514175.007147,8001
1659514175.049181,8042
1659514175.091215,8083
1659514175.12949,8135
1659514175.167765,8127
1659514175.20604,8005
1659514175.244998,7840
1659514175.283957,7747
1659514175.322915,7698
1659514175.364437,7679
1659514175.405958,7691
1659514175.444233,7716
1659514175.482508,7737
1659514175.520783,7740
1659514175.562817,7761
1659514175.604851,7792
1659514175.644493,7828
1659514175.684135,7881
1659514175.723777,7916
1659514175.764786,7957
1659514175.805795,7997
1659514175.850221,8042
1659514175.894648,8089
1659514175.939074,8123
1659514175.973419,8084
1659514176.007764,7927
1659514176.051848,7815
1659514176.095933,7744
1659514176.140018,7711
1659514176.177951,7716
1659514176.215884,7758
1659514176.253817,7785
1659514176.295851,7794
1659514176.337885,7820
1659514176.37616,7838
1659514176.414435,7882
1659514176.45271,7915
1659514176.492011,7961
1659514176.531311,8013
1659514176.570611,8052
1659514176.61162,8088
1659514176.652629,8134
1659514176.691245,8180
1659514176.729862,8220
1659514176.768479,8259
1659514176.809488,8259
1659514176.850497,8139
1659514176.890139,7967
1659514176.92978,7863
1659514176.969422,7810
1659514177.008039,7768
1659514177.046656,7762
1659514177.085273,7802
1659514177.126794,7817
1659514177.168316,7812
1659514177.209837,7828
1659514177.251359,7849
1659514177.29288,7883
1659514177.334402,7916
1659514177.375923,7955
1659514177.417445,7982
1659514177.456061,8023
1659514177.494678,8070
1659514177.533295,8101
1659514177.572253,8153
1659514177.611212,8170
1659514177.65017,8112
1659514177.691692,7951
1659514177.733213,7826
1659514177.772172,7768
1659514177.81113,7753
1659514177.850089,7762
1659514177.892123,7792
1659514177.934157,7823
1659514177.972774,7836
1659514178.01139,7847
1659514178.050007,7869
1659514178.092041,7904
1659514178.134075,7956
1659514178.173375,7986
1659514178.212676,8032
1659514178.251976,8060
1659514178.292985,8114
1659514178.333994,8154
1659514178.37261,8201
1659514178.411227,8222
1659514178.449844,8141
1659514178.49427,7967
1659514178.538696,7836
1659514178.583123,7784
1659514178.617468,7739
1659514178.651813,7733
1659514178.695555,7763
1659514178.739298,7794
1659514178.783041,7799
1659514178.825075,7814
1659514178.867109,7841
1659514178.906068,7874
1659514178.945026,7915
1659514178.983985,7956
1659514179.022943,7997
1659514179.061902,8042
1659514179.10086,8087
1659514179.142381,8125
1659514179.183903,8165
1659514179.222862,8219
1659514179.26182,8256
1659514179.300778,8198
1659514179.341787,7997
1659514179.382796,7850
1659514179.422096,7780
1659514179.461396,7734
1659514179.500697,7712
1659514179.539314,7730
1659514179.57793,7773
1659514179.616547,7787
1659514179.657043,7792
1659514179.69754,7794
1659514179.735473,7835
1659514179.773406,7879
1659514179.811339,7918
1659514179.854398,7960
1659514179.897458,7995
1659514179.936826,8048
1659514179.976195,8075
1659514180.015563,8134
1659514180.054932,8178
1659514180.094301,8209
1659514180.136335,8130
1659514180.178369,7951
1659514180.218011,7828
1659514180.257653,7775
1659514180.297295,7758
1659514180.338304,7763
1659514180.379313,7808
1659514180.418613,7833
1659514180.457913,7840
1659514180.497213,7854
1659514180.541639,7887
1659514180.586066,7929
1659514180.630492,7970
1659514180.663299,8009
1659514180.696106,8058
1659514180.740532,8096
1659514180.784959,8144
1659514180.829385,8201
1659514180.862705,8241
1659514180.896024,8259
1659514180.940109,8141
1659514180.984194,7953
1659514181.028278,7851
1659514181.067579,7804
1659514181.106879,7777
1659514181.146179,7772
1659514181.188725,7817
1659514181.231272,7846
1659514181.269547,7854
1659514181.307822,7869
1659514181.346097,7903
1659514181.387619,7943
1659514181.42914,7982
1659514181.468782,8033
1659514181.508424,8076
1659514181.548066,8132
1659514181.586341,8164
1659514181.624616,8220
1659514181.662891,8261
1659514181.705438,8293
1659514181.747984,8244
1659514181.786943,8047
1659514181.825901,7884
1659514181.86486,7798
1659514181.905356,7757
1659514181.945852,7730
1659514181.984127,7766
1659514182.022402,7793
1659514182.060677,7806
1659514182.103224,7814
1659514182.145771,7830
1659514182.184387,7867
1659514182.223004,7909
1659514182.261621,7948
1659514182.306389,7984
1659514182.351157,8037
1659514182.395925,8079
1659514182.437447,8115
1659514182.478968,8169
1659514182.517585,8216
1659514182.556201,8233
1659514182.594818,8117
1659514182.63634,7913
1659514182.677861,7801
1659514182.71682,7759
1659514182.755778,7737
1659514182.794737,7759
1659514182.833012,7798
1659514182.871287,7814
1659514182.909562,7831
1659514182.95057,7841
1659514182.991579,7869
1659514183.030538,7911
1659514183.069496,7950
1659514183.108455,7995
1659514183.150489,8040
1659514183.192523,8087
1659514183.230798,8125
1659514183.269073,8182
1659514183.307348,8203
1659514183.346306,8146
1659514183.385265,7954
1659514183.424223,7777
1659514183.465745,7691
1659514183.507266,7659
1659514183.546566,7636
1659514183.585867,7649
1659514183.625167,7691
1659514183.666176,7691
1659514183.707185,7687
1659514183.751953,7704
1659514183.796721,7743
1659514183.841489,7772
1659514183.874296,7807
1659514183.907103,7836
1659514183.951188,7851
1659514183.995272,7869
1659514184.039357,7889
1659514184.073189,7909
1659514184.107021,7924
1659514184.1468,7919
1659514184.186579,7833
1659514184.226357,7587
1659514184.266136,7377
1659514184.305915,7269
1659514184.347949,7206
1659514184.389983,7169
1659514184.429625,7180
1659514184.469267,7207
1659514184.508909,7218
1659514184.549917,7226
1659514184.590926,7256
1659514184.635695,7292
1659514184.680463,7353
1659514184.72523,7411
1659514184.759576,7475
1659514184.793921,7557
1659514184.837663,7619
1659514184.881406,7693
1659514184.925149,7763
1659514184.957443,7746
1659514184.989738,7603
1659514185.034164,7466
1659514185.078591,7398
1659514185.123017,7391
1659514185.163001,7410
1659514185.202984,7445
1659514185.242968,7486
1659514185.282952,7503
1659514185.322935,7512
1659514185.361552,7535
1659514185.400169,7570
1659514185.438785,7607
1659514185.47706,7645
1659514185.515335,7691
1659514185.55361,7735
1659514185.594619,7775
1659514185.635628,7813
1659514185.675612,7853
1659514185.715595,7878
1659514185.755579,7779
1659514185.796588,7585
1659514185.837597,7458
1659514185.876214,7410
1659514185.91483,7379
1659514185.953447,7381
1659514185.994969,7429
1659514186.03649,7459
1659514186.075449,7487
1659514186.114407,7507
1659514186.153366,7536
1659514186.193862,7582
1659514186.234358,7609
1659514186.273317,7658
1659514186.312275,7700
1659514186.351233,7744
1659514186.395318,7777
1659514186.439403,7830
1659514186.483487,7867
1659514186.52142,7914
1659514186.559354,7948
1659514186.597287,7873
1659514186.636929,7701
1659514186.676571,7550
1659514186.716213,7498
1659514186.754829,7467
1659514186.793446,7464
1659514186.832063,7492
1659514186.874609,7546
1659514186.917156,7552
1659514186.956456,7557
1659514186.995757,7592
1659514187.035057,7625
1659514187.076066,7656
1659514187.117075,7692
1659514187.155691,7737
1659514187.194308,7765
1659514187.232925,7819
1659514187.275471,7852
1659514187.318018,7897
1659514187.362445,7909
1659514187.406871,7804
1659514187.451297,7635
1659514187.483592,7554
1659514187.515886,7530
1659514187.560654,7530
1659514187.605422,7563
1659514187.65019,7607
1659514187.688807,7625
1659514187.727424,7647
1659514187.766041,7663
1659514187.807562,7705
1659514187.849083,7732
1659514187.888384,7769
1659514187.927684,7810
1659514187.966984,7852
1659514188.005943,7899
1659514188.044901,7933
1659514188.083859,7989
1659514188.125381,8031
1659514188.166903,8044
1659514188.206203,7903
1659514188.245503,7713
1659514188.284803,7615
1659514188.326324,7566
1659514188.367846,7545
1659514188.406121,7541
1659514188.444396,7588
1659514188.482671,7610
1659514188.521288,7641
1659514188.559904,7639
1659514188.598521,7667
1659514188.640555,7713
1659514188.682589,7758
1659514188.721206,7800
1659514188.759823,7844
1659514188.79844,7894
1659514188.839961,7932
1659514188.881483,7976
1659514188.923004,8016
1659514188.964525,8062
1659514189.006047,8110
1659514189.047569,8081
1659514189.08909,7911
1659514189.130612,7734
1659514189.16957,7638
1659514189.208529,7604
1659514189.247487,7589
1659514189.286445,7605
1659514189.325404,7645
1659514189.364362,7670
1659514189.403936,7676
1659514189.44351,7702
1659514189.483083,7732
1659514189.522657,7765
1659514189.56223,7806
1659514189.606315,7844
1659514189.650399,7896
1659514189.694484,7932
1659514189.733101,7983
1659514189.771717,8026
1659514189.810334,8085
1659514189.851856,8054
1659514189.893377,7913
1659514189.933019,7755
1659514189.972661,7686
1659514190.012303,7665
1659514190.053824,7663
1659514190.095346,7711
1659514190.134305,7748
1659514190.173263,7776
1659514190.212221,7771
1659514190.254768,7807
1659514190.297315,7848
1659514190.336273,7886
1659514190.375232,7928
1659514190.41419,7974
1659514190.454379,8016
1659514190.494568,8057
1659514190.534756,8100
1659514190.574945,8145
1659514190.615134,8188
1659514190.656143,8180
1659514190.697152,8001
1659514190.735768,7828
1659514190.774385,7729
1659514190.813002,7691
1659514190.852302,7657
1659514190.891602,7690
1659514190.930902,7735
1659514190.971911,7761
1659514191.01292,7777
1659514191.051878,7795
1659514191.090837,7835
1659514191.129796,7874
1659514191.17183,7914
1659514191.213864,7961
1659514191.252481,8011
1659514191.291097,8055
1659514191.329714,8095
1659514191.370723,8136
1659514191.411732,8179
1659514191.451032,8238
1659514191.490332,8266
1659514191.529632,8170
1659514191.571666,7966
1659514191.6137,7820
1659514191.651975,7754
1659514191.69025,7714
1659514191.728525,7721
1659514191.772952,7744
1659514191.817378,7785
1659514191.861804,7796
1659514191.902813,7804
1659514191.943822,7835
1659514191.981755,7860
1659514192.019689,7904
1659514192.057622,7948
1659514192.096922,7992
1659514192.136222,8026
1659514192.175522,8075
1659514192.217556,8130
1659514192.259591,8170
1659514192.298207,8145
1659514192.336824,7984
1659514192.375441,7836
1659514192.416962,7757
1659514192.458484,7734
1659514192.497784,7744
1659514192.537084,7781
1659514192.576384,7815
1659514192.615001,7831
1659514192.653618,7849
1659514192.692235,7871
1659514192.734781,7918
1659514192.777328,7945
1659514192.815945,7985
1659514192.854561,8036
1659514192.893178,8077
1659514192.934187,8122
1659514192.975196,8157
1659514193.013471,8207
1659514193.051746,8242
1659514193.090021,8299
1659514193.132568,8240
1659514193.175114,8050
1659514193.219199,7866
1659514193.263283,7781
1659514193.307368,7742
1659514193.340688,7716
1659514193.374007,7737
1659514193.419117,7763
1659514193.464227,7785
1659514193.509337,7798
1659514193.548295,7813
1659514193.587254,7845
1659514193.626212,7885
1659514193.667734,7927
1659514193.709255,7969
1659514193.748555,8008
1659514193.787856,8052
1659514193.827156,8092
1659514193.868165,8137
1659514193.909174,8185
1659514193.94779,8134
1659514193.986407,7949
1659514194.025024,7775
1659514194.064324,7696
1659514194.103624,7658
1659514194.142924,7653
1659514194.184446,7686
1659514194.225967,7725
1659514194.264242,7747
1659514194.302517,7752
1659514194.340792,7774
1659514194.380093,7816
1659514194.419393,7855
1659514194.458693,7898
1659514194.500727,7954
1659514194.542761,7988
1659514194.581036,8024
1659514194.619311,8080
1659514194.657586,8128
1659514194.699108,8140
1659514194.740629,8029
1659514194.785397,7840
1659514194.830165,7737
1659514194.874933,7703
1659514194.908253,7696
1659514194.941573,7722
1659514194.985657,7771
1659514195.029742,7788
1659514195.073826,7809
1659514195.107146,7827
1659514195.140466,7855
1659514195.184209,7912
1659514195.227952,7949
1659514195.271694,7993
1659514195.309628,8031
1659514195.347561,8077
1659514195.385494,8117
1659514195.428041,8166
1659514195.470587,8211
1659514195.509204,8191
1659514195.547821,8046
1659514195.586438,7835
1659514195.625396,7740
1659514195.664355,7702
1659514195.703313,7669
1659514195.745347,7678
1659514195.787381,7732
1659514195.829415,7762
1659514195.871449,7768
1659514195.909724,7792
1659514195.947999,7830
1659514195.986274,7874
1659514196.025575,7911
1659514196.064875,7950
1659514196.104175,7999
1659514196.145184,8037
1659514196.186193,8078
1659514196.224809,8104
1659514196.263426,8161
1659514196.302043,8205
1659514196.34459,8190
1659514196.387136,8016
1659514196.425753,7822
1659514196.46437,7735
1659514196.502986,7693
1659514196.543483,7676
1659514196.583979,7693
1659514196.623279,7727
1659514196.66258,7740
1659514196.70188,7759
1659514196.746648,7760
1659514196.791416,7787
1659514196.836184,7827
1659514196.877705,7863
1659514196.919227,7896
1659514196.958527,7934
1659514196.997827,7979
1659514197.037127,8014
1659514197.078649,8063
1659514197.120171,8025
1659514197.158104,7856
1659514197.196037,7702
1659514197.23397,7641
1659514197.272929,7633
1659514197.311887,7628
1659514197.350846,7674
1659514197.39288,7701
1659514197.434914,7726
1659514197.473189,7739
1659514197.511464,7775
1659514197.549739,7815
1659514197.588356,7857
1659514197.626972,7910
1659514197.665589,7947
1659514197.707623,7984
1659514197.749657,8042
1659514197.788615,8083
1659514197.827574,8134
1659514197.866533,8156
1659514197.908054,8066
1659514197.949575,7862
1659514197.988534,7735
1659514198.027492,7665
1659514198.066451,7629
1659514198.107972,7628
1659514198.149494,7665
1659514198.188452,7702
1659514198.227411,7717
1659514198.266369,7731
1659514198.307378,7751
1659514198.348387,7793
1659514198.392472,7829
1659514198.436556,7869
1659514198.480641,7913
1659514198.519258,7956
1659514198.557874,7995
1659514198.596491,8037
1659514198.638012,8080
1659514198.679534,8119
1659514198.718492,8074
1659514198.757451,7892
1659514198.796409,7738
1659514198.837418,7667
1659514198.878427,7634
1659514198.917727,7624
1659514198.957027,7663
1659514198.996328,7698
1659514199.035628,7717
1659514199.074928,7729
1659514199.114228,7747
1659514199.15575,7786
1659514199.197271,7833
1659514199.236572,7871
1659514199.275872,7921
1659514199.315172,7958
1659514199.35413,7994
1659514199.393089,8045
1659514199.432047,8094
1659514199.472543,8088
1659514199.51304,7974
1659514199.551998,7791
1659514199.590957,7697
1659514199.629915,7658
1659514199.672462,7629
1659514199.715008,7663
1659514199.758751,7707
1659514199.802494,7731
1659514199.846237,7739
1659514199.878532,7764
1659514199.910826,7804
1659514199.956278,7848
1659514200.001729,7885
1659514200.047181,7931
1659514200.085797,7983
1659514200.124414,8021
1659514200.163031,8063
1659514200.205065,8099
1659514200.247099,8148
1659514200.286741,8196
1659514200.326383,8220
1659514200.366025,8082
1659514200.407034,7880
1659514200.448043,7779
1659514200.486318,7733
1659514200.524593,7697
1659514200.562868,7698
1659514200.602168,7740
1659514200.641468,7763
1659514200.680768,7784
1659514200.72229,7794
1659514200.763811,7811
1659514200.802428,7861
1659514200.841045,7909
1659514200.879661,7959
1659514200.918278,7992
1659514200.956895,8036
1659514200.995512,8067
1659514201.036777,8115
1659514201.078042,8158
1659514201.119307,8202
1659514201.160572,8190
1659514201.199531,8043
1659514201.238489,7877
1659514201.277448,7780
1659514201.318969,7750
1659514201.360491,7733
1659514201.399107,7763
1659514201.437724,7800
1659514201.476341,7821
1659514201.518888,7828
1659514201.561434,7848
1659514201.600051,7890
1659514201.638668,7925
1659514201.677284,7967
1659514201.721027,8018
1659514201.76477,8058
1659514201.808513,8096
1659514201.841833,8138
1659514201.875152,8186
1659514201.919579,8218
1659514201.964005,8221
1659514202.008431,8081
1659514202.047731,7900
1659514202.087032,7810
1659514202.126332,7775
1659514202.168366,7756
1659514202.2104,7781
1659514202.249359,7827
1659514202.288317,7846
1659514202.327276,7858
1659514202.365892,7875
1659514202.404509,7913
1659514202.443126,7957
1659514202.485672,7996
1659514202.528219,8054
1659514202.567178,8088
1659514202.606136,8134
1659514202.645094,8181
1659514202.686616,8221
1659514202.728137,8262
1659514202.766754,8308
1659514202.805371,8353
1659514202.843988,8354
1659514202.886022,8209
1659514202.928056,7993
1659514202.966673,7877
1659514203.005289,7841
1659514203.043906,7810
1659514203.084915,7808
1659514203.125924,7850
1659514203.164882,7887
1659514203.203841,7886
1659514203.242799,7913
1659514203.287225,7929
1659514203.331652,7967
1659514203.376078,8014
1659514203.418112,8059
1659514203.460146,8106
1659514203.499447,8145
1659514203.538747,8196
1659514203.578047,8236
1659514203.619056,8286
1659514203.660065,8337
1659514203.699023,8339
1659514203.737982,8212
1659514203.77694,8035
1659514203.815557,7953
1659514203.854174,7918
1659514203.89279,7905
1659514203.934824,7935
1659514203.976859,7974
1659514204.015133,7988
1659514204.053408,8006
1659514204.091683,8017
1659514204.132692,8054
1659514204.173701,8107
1659514204.21266,8140
1659514204.251618,8181
1659514204.290577,8227
1659514204.328851,8273
1659514204.367126,8309
1659514204.405401,8366
1659514204.447948,8404
1659514204.490495,8401
1659514204.529454,8252
1659514204.568412,8061
1659514204.60737,7962
1659514204.648379,7927
1659514204.689388,7903
1659514204.728688,7915
1659514204.767988,7962
1659514204.807289,7974
1659514204.849835,7980
1659514204.892382,7987
1659514204.936125,8011
1659514204.979868,8054
1659514205.023611,8091
1659514205.055905,8128
1659514205.0882,8162
1659514205.132968,8204
1659514205.177736,8237
1659514205.222504,8292
1659514205.260779,8322
1659514205.299054,8354
1659514205.337329,8301
1659514205.379363,8106
1659514205.421397,7926
1659514205.461039,7841
1659514205.500681,7807
1659514205.540323,7771
1659514205.578598,7801
1659514205.616873,7834
1659514205.655148,7845
1659514205.696669,7844
1659514205.738191,7862
1659514205.778174,7882
1659514205.818158,7914
1659514205.858142,7936
1659514205.899663,7966
1659514205.941185,8009
1659514205.979801,8041
1659514206.018418,8077
1659514206.057035,8121
1659514206.095993,8157
1659514206.134952,8156
1659514206.17391,7995
1659514206.215432,7818
1659514206.256953,7751
1659514206.298218,7720
1659514206.339484,7720
1659514206.380749,7757
1659514206.422014,7798
1659514206.460631,7816
1659514206.499248,7824
1659514206.537864,7844
1659514206.576823,7875
1659514206.615781,7922
1659514206.65474,7959
1659514206.696774,8003
1659514206.738808,8028
1659514206.777425,8084
1659514206.816041,8127
1659514206.854658,8179
1659514206.896179,8171
1659514206.937701,8024
1659514206.982127,7836
1659514207.026554,7730
1659514207.07098,7681
1659514207.1043,7654
1659514207.137619,7668
1659514207.181362,7718
1659514207.225105,7750
1659514207.268848,7748
1659514207.301655,7771
1659514207.334462,7805
1659514207.378547,7842
1659514207.422631,7887
1659514207.466716,7920
1659514207.505674,7956
1659514207.544633,7999
1659514207.583591,8046
1659514207.6246,8087
1659514207.665609,8130
1659514207.704909,8152
1659514207.74421,8054
1659514207.78351,7849
1659514207.822126,7702
1659514207.860743,7644
1659514207.89936,7608
1659514207.941394,7610
1659514207.983428,7638
1659514208.022387,7685
1659514208.061345,7694
1659514208.100303,7710
1659514208.142338,7725
1659514208.184372,7755
1659514208.222646,7790
1659514208.260921,7839
1659514208.299196,7874
1659514208.338155,7905
1659514208.377113,7951
1659514208.416072,7988
1659514208.458619,8028
1659514208.501165,8056
1659514208.541662,7995
1659514208.582158,7817
1659514208.620775,7672
1659514208.659391,7623
1659514208.698008,7602
1659514208.742435,7612
1659514208.786861,7659
1659514208.831287,7703
1659514208.865119,7702
1659514208.898952,7711
1659514208.94372,7750
1659514208.988488,7785
1659514209.033256,7827
1659514209.067088,7868
1659514209.10092,7908
1659514209.145005,7947
1659514209.18909,7998
1659514209.233174,8042
1659514209.272133,8073
1659514209.311091,8079
1659514209.350049,7910
1659514209.392596,7728
1659514209.435143,7644
1659514209.473418,7602
1659514209.511693,7583
1659514209.549968,7609
1659514209.588585,7659
1659514209.627201,7680
1659514209.665818,7697
1659514209.704777,7716
1659514209.743735,7759
1659514209.782693,7786
1659514209.82319,7829
1659514209.863686,7883
1659514209.908112,7917
1659514209.952539,7959
1659514209.996965,7993
1659514210.03131,8039
1659514210.065655,8077
1659514210.10974,8130
1659514210.153824,8131
1659514210.197909,7997
1659514210.236525,7787
1659514210.275142,7644
1659514210.313759,7582
1659514210.355793,7544
1659514210.397827,7561
1659514210.436444,7598
1659514210.47506,7660
1659514210.513677,7667
1659514210.554173,7685
1659514210.59467,7718
1659514210.63397,7759
1659514210.67327,7798
1659514210.71257,7837
1659514210.750504,7884
1659514210.788437,7920
1659514210.82637,7965
1659514210.868404,8014
1659514210.910438,8061
1659514210.949397,8060
1659514210.988355,7929
1659514211.027313,7760
1659514211.06593,7662
1659514211.104547,7640
1659514211.143164,7630
1659514211.185198,7675
1659514211.227232,7721
1659514211.266532,7735
1659514211.305832,7755
1659514211.345133,7770
1659514211.386654,7809
1659514211.428175,7849
1659514211.47021,7887
1659514211.512244,7933
1659514211.552433,7975
1659514211.592621,8018
1659514211.63281,8058
1659514211.672999,8101
1659514211.713187,8139
1659514211.751462,8105
1659514211.789737,7915
1659514211.828012,7735
1659514211.869534,7661
1659514211.911055,7623
1659514211.949672,7604
1659514211.988289,7640
1659514212.026906,7684
1659514212.071332,7707
1659514212.115758,7720
1659514212.160184,7735
1659514212.202731,7783
1659514212.245278,7820
1659514212.284578,7867
1659514212.323878,7907
1659514212.363178,7957
1659514212.404187,8004
1659514212.445196,8040
1659514212.484497,8085
1659514212.523797,8132
1659514212.563097,8180
1659514212.601714,8192
1659514212.64033,8059
1659514212.678947,7837
1659514212.720981,7725
1659514212.763015,7682
1659514212.80129,7654
1659514212.839565,7664
1659514212.87784,7705
1659514212.916457,7738
1659514212.955074,7740
1659514212.99369,7747
1659514213.034699,7777
1659514213.075708,7823
1659514213.114325,7852
1659514213.152941,7900
1659514213.191558,7944
1659514213.23308,7989
1659514213.274601,8045
1659514213.313901,8083
1659514213.353202,8117
1659514213.392502,8029
1659514213.433511,7851
1659514213.47452,7735
1659514213.519288,7694
1659514213.564056,7676
1659514213.608824,7692
1659514213.642656,7742
1659514213.676488,7765
1659514213.720573,7782
1659514213.764658,7784
1659514213.808742,7819
1659514213.847359,7870
1659514213.885976,7908
1659514213.924592,7951
1659514213.966114,7996
1659514214.007635,8033
1659514214.04591,8074
1659514214.084185,8125
1659514214.12246,8168
1659514214.165007,8172
1659514214.207554,8050
1659514214.246512,7862
1659514214.285471,7752
1659514214.324429,7690
1659514214.363046,7656
1659514214.401663,7655
1659514214.440279,7687
1659514214.481801,7710
1659514214.523322,7707
1659514214.562964,7723
1659514214.602606,7742
1659514214.642248,7784
1659514214.683257,7814
1659514214.724266,7843
1659514214.763566,7885
1659514214.802866,7926
1659514214.842166,7951
1659514214.880783,7977
1659514214.9194,8023
1659514214.958017,8046
1659514215.000051,8008
1659514215.042085,7841
1659514215.083094,7696
1659514215.124103,7640
1659514215.163403,7611
1659514215.202703,7614
1659514215.242003,7641
1659514215.286088,7669
1659514215.330172,7666
1659514215.374257,7689
1659514215.408089,7698
1659514215.441922,7717
1659514215.487031,7758
1659514215.532141,7795
1659514215.577251,7820
1659514215.609545,7854
1659514215.64184,7893
1659514215.685925,7928
1659514215.730009,7964
1659514215.774094,7921
1659514215.813736,7777
1659514215.853378,7654
1659514215.893019,7593
1659514215.934541,7586
1659514215.976063,7599
1659514216.014679,7650
1659514216.053296,7713
1659514216.091913,7772
1659514216.132922,7815
1659514216.17393,7856
1659514216.211864,7904
1659514216.249797,7951
1659514216.28773,8008
1659514216.326005,8040
1659514216.36428,8082
1659514216.402555,8123
1659514216.445102,8165
1659514216.487648,8208
1659514216.525923,8236
1659514216.564198,8166
1659514216.602473,7991
1659514216.643995,7864
1659514216.685517,7789
1659514216.724475,7747
1659514216.763433,7744
1659514216.802392,7772
1659514216.842376,7806
1659514216.882359,7822
1659514216.922343,7841
1659514216.962327,7855
1659514217.00231,7900
1659514217.043832,7942
1659514217.085353,7977
1659514217.12978,8030
1659514217.174206,8069
1659514217.218632,8107
1659514217.251952,8142
1659514217.285272,8196
1659514217.329356,8237
1659514217.373441,8235
1659514217.417525,8092
1659514217.456484,7928
1659514217.495442,7857
1659514217.534401,7819
1659514217.574897,7819
1659514217.615393,7843
1659514217.654694,7875
1659514217.693994,7890
1659514217.733294,7903
1659514217.775841,7913
1659514217.818387,7947
1659514217.857004,7991
1659514217.895621,8027
1659514217.934237,8071
1659514217.973196,8108
1659514218.012154,8138
1659514218.051113,8189
1659514218.093147,8231
1659514218.135181,8228
1659514218.173798,8083
1659514218.212415,7928
1659514218.251031,7843
1659514218.293065,7834
1659514218.335099,7812
1659514218.374058,7850
1659514218.413016,7907
1659514218.451975,7935
1659514218.490592,7954
1659514218.529208,7987
1659514218.567825,8024
1659514218.608321,8072
1659514218.648818,8118
1659514218.693586,8166
1659514218.738354,8225
1659514218.783122,8265
1659514218.82208,8323
1659514218.861039,8363
1659514218.899997,8420
1659514218.941519,8461
1659514218.98304,8419
1659514219.021999,8233
1659514219.060957,8066
1659514219.099916,7995
1659514219.14195,7937
1659514219.183984,7912
1659514219.222942,7934
1659514219.261901,7975
1659514219.300859,7988
1659514219.339818,7998
1659514219.378776,8021
1659514219.417734,8048
1659514219.458743,8095
1659514219.499752,8124
1659514219.537685,8157
1659514219.575619,8192
1659514219.613552,8217
1659514219.65251,8264
1659514219.691469,8322
1659514219.730427,8366
1659514219.772461,8317
1659514219.814496,8162
1659514219.852429,8018
1659514219.890362,7975
1659514219.928295,7938
1659514219.970329,7932
1659514220.012363,7988
1659514220.057132,8022
1659514220.1019,8037
1659514220.146668,8048
1659514220.179475,8084
1659514220.212282,8115
1659514220.256708,8175
1659514220.301135,8203
1659514220.345561,8246
1659514220.378881,8294
1659514220.4122,8338
1659514220.456285,8387
1659514220.500369,8418
1659514220.544454,8357
1659514220.583412,8167
1659514220.622371,8025
1659514220.661329,7955
1659514220.703876,7916
1659514220.746423,7925
1659514220.784698,7961
1659514220.822973,8001
1659514220.861248,8014
1659514220.902256,8031
1659514220.943265,8055
1659514220.982908,8095
1659514221.022549,8143
1659514221.062191,8185
1659514221.100808,8234
1659514221.139425,8278
1659514221.178041,8327
1659514221.220588,8375
1659514221.263135,8414
1659514221.302435,8354
1659514221.341735,8168
1659514221.381036,8004
1659514221.422557,7941
1659514221.464078,7885
1659514221.502353,7860
1659514221.540628,7894
1659514221.578903,7937
1659514221.62145,7949
1659514221.663997,7968
1659514221.702614,7992
1659514221.74123,8039
1659514221.779847,8094
1659514221.820856,8137
1659514221.861865,8194
1659514221.900481,8240
1659514221.939098,8283
1659514221.977715,8346
1659514222.022141,8375
1659514222.066568,8314
1659514222.110994,8104
1659514222.148415,7947
1659514222.185835,7863
1659514222.223256,7825
1659514222.260676,7811
1659514222.305444,7839
1659514222.350213,7884
1659514222.394981,7888
1659514222.4283,7895
1659514222.46162,7915
1659514222.506046,7951
1659514222.550473,7986
1659514222.594899,8039
1659514222.627193,8058
1659514222.659488,8103
1659514222.703573,8152
1659514222.747657,8176
1659514222.791742,8104
1659514222.830358,7923
1659514222.868975,7800
1659514222.907592,7753
1659514222.950139,7741
1659514222.992685,7761
1659514223.03096,7810
1659514223.069235,7848
1659514223.10751,7857
1659514223.145785,7874
1659514223.18406,7907
1659514223.222335,7949
1659514223.264369,7988
1659514223.306403,8034
1659514223.346045,8090
1659514223.385687,8132
1659514223.425329,8185
1659514223.466338,8166
1659514223.507347,8024
1659514223.546647,7852
1659514223.585947,7777
1659514223.625247,7761
1659514223.667282,7750
1659514223.709316,7779
1659514223.747932,7824
1659514223.786549,7851
1659514223.825166,7872
1659514223.866175,7901
1659514223.907184,7928
1659514223.946484,7970
1659514223.985784,8017
1659514224.025084,8061
1659514224.068827,8098
1659514224.11257,8148
1659514224.156313,8189
1659514224.190145,8205
1659514224.223978,8107
1659514224.268745,7923
1659514224.313514,7820
1659514224.358282,7769
1659514224.399291,7736
1659514224.4403,7748
1659514224.479258,7790
1659514224.518216,7804
1659514224.557175,7814
1659514224.599209,7832
1659514224.641243,7852
1659514224.680543,7895
1659514224.719843,7935
1659514224.759144,7972
1659514224.79776,8010
1659514224.836377,8045
1659514224.874994,8092
1659514224.917028,8140
1659514224.959062,8157
1659514224.997337,8063
1659514225.035612,7926
1659514225.073887,7843
1659514225.112504,7814
1659514225.15112,7801
1659514225.189737,7829
1659514225.232284,7858
1659514225.274831,7883
1659514225.312764,7891
1659514225.350697,7904
1659514225.38863,7948
1659514225.430152,7982
1659514225.471673,8028
1659514225.510632,8062
1659514225.54959,8095
1659514225.588549,8143
1659514225.630583,8189
1659514225.672617,8226
1659514225.711234,8169
1659514225.74985,8027
1659514225.788467,7918
1659514225.830501,7879
1659514225.872535,7840
1659514225.91662,7830
1659514225.960704,7864
1659514226.004789,7886
1659514226.042722,7890
1659514226.080655,7901
1659514226.118589,7922
1659514226.161135,7951
1659514226.203682,8002
1659514226.241957,8025
1659514226.280232,8068
1659514226.318507,8105
1659514226.356782,8134
1659514226.395057,8179
1659514226.433332,8213
1659514226.474854,8242
1659514226.516375,8194
1659514226.555333,8058
1659514226.594292,7933
1659514226.63325,7867
1659514226.674772,7837
1659514226.716293,7813
1659514226.755594,7826
1659514226.794894,7852
1659514226.834194,7858
1659514226.873152,7855
1659514226.912111,7873
1659514226.951069,7897
1659514226.992591,7935
1659514227.034112,7971
1659514227.073754,8003
1659514227.113396,8042
1659514227.153038,8073
1659514227.194047,8116
1659514227.235056,8151
1659514227.27914,8110
1659514227.323225,7980
1659514227.36731,7877
1659514227.407293,7837
1659514227.447277,7812
1659514227.487261,7837
1659514227.527244,7859
1659514227.567228,7875
1659514227.606186,7876
1659514227.645145,7900
1659514227.684103,7919
1659514227.723062,7954
1659514227.76202,7987
1659514227.800979,8017
1659514227.8425,8063
1659514227.884022,8088
1659514227.922638,8137
1659514227.961255,8167
1659514227.999872,8176
1659514228.03883,8066
1659514228.077789,7922
1659514228.116747,7829
1659514228.158781,7796
1659514228.200815,7765
1659514228.239432,7774
1659514228.278049,7809
1659514228.316666,7826
1659514228.357675,7833
1659514228.398684,7849
1659514228.4373,7876
1659514228.475917,7911
1659514228.514534,7952
1659514228.556568,7992
1659514228.598602,8029
1659514228.642345,8080
1659514228.686088,8114
1659514228.72983,8162
1659514228.768789,8202
1659514228.807747,8204
1659514228.846706,8097
1659514228.888227,7946
1659514228.929749,7846
1659514228.968365,7792
1659514229.006982,7771
1659514229.045599,7772
1659514229.087633,7811
1659514229.129667,7822
1659514229.168967,7818
1659514229.208267,7828
1659514229.247568,7855
1659514229.285501,7882
1659514229.323434,7913
1659514229.361367,7946
1659514229.402889,7982
1659514229.44441,8023
1659514229.483027,8051
1659514229.521644,8090
1659514229.560261,8106
1659514229.598877,8015
1659514229.637494,7865
1659514229.676111,7769
1659514229.718145,7744
1659514229.760179,7724
1659514229.798796,7762
1659514229.837412,7789
1659514229.876029,7797
1659514229.917038,7817
1659514229.958047,7828
1659514229.998031,7858
1659514230.038014,7889
1659514230.077998,7929
1659514230.119519,7961
1659514230.161041,8011
1659514230.205467,8052
1659514230.249893,8089
1659514230.29432,8121
1659514230.32764,8048
1659514230.360959,7893
1659514230.405727,7781
1659514230.450495,7732
1659514230.495263,7706
1659514230.528071,7724
1659514230.560878,7768
1659514230.604962,7791
1659514230.649047,7812
1659514230.693131,7834
1659514230.732432,7874
1659514230.771732,7907
1659514230.811032,7946
1659514230.851528,7997
1659514230.892025,8039
1659514230.931325,8076
1659514230.970625,8125
1659514231.009925,8173
1659514231.051959,8218
1659514231.093993,8222
1659514231.13261,8086
1659514231.171227,7929
1659514231.209844,7856
1659514231.248802,7814
1659514231.28776,7798
1659514231.326719,7819
1659514231.369266,7862
1659514231.411812,7878
1659514231.450429,7907
1659514231.489046,7922
1659514231.527663,7946
1659514231.568671,8001
1659514231.60968,8041
1659514231.648639,8083
1659514231.687597,8123
1659514231.726556,8158
1659514231.768077,8195
1659514231.809599,8241
1659514231.847874,8279
1659514231.886149,8267
1659514231.924424,8148
1659514231.968508,8002
1659514232.012593,7940
1659514232.056677,7902
1659514232.089484,7887
1659514232.122292,7919
1659514232.166718,7955
1659514232.211144,7958
1659514232.25557,7965
1659514232.289403,7984
1659514232.323235,8005
1659514232.368003,8052
1659514232.412771,8080
1659514232.457539,8117
1659514232.496156,8157
1659514232.534773,8198
1659514232.57339,8236
1659514232.614911,8268
1659514232.656432,8201
1659514232.695049,8039
1659514232.733666,7929
1659514232.772283,7875
1659514232.810899,7837
1659514232.849516,7843
1659514232.888133,7884
1659514232.93068,7891
1659514232.973226,7906
1659514233.012185,7917
1659514233.051143,7947
1659514233.090101,7971
1659514233.130598,8015
1659514233.171094,8062
1659514233.210053,8099
1659514233.249011,8143
1659514233.28797,8172
1659514233.330516,8217
1659514233.373063,8261
1659514233.412021,8297
1659514233.45098,8253
1659514233.489938,8087
1659514233.53146,7954
1659514233.572981,7884
1659514233.612282,7828
1659514233.651582,7811
1659514233.690882,7843
1659514233.734625,7879
1659514233.778368,7900
1659514233.82211,7912
1659514233.864145,7927
1659514233.906179,7974
1659514233.945137,8003
1659514233.984096,8039
1659514234.023054,8074
1659514234.061671,8107
1659514234.100287,8144
1659514234.138904,8179
1659514234.179913,8226
1659514234.220922,8248
1659514234.260564,8175
1659514234.300206,8014
1659514234.339848,7899
1659514234.378464,7845
1659514234.417081,7812
1659514234.455698,7827
1659514234.496707,7855
1659514234.537716,7860
1659514234.577358,7861
1659514234.617,7876
1659514234.656641,7900
1659514234.698163,7947
1659514234.739685,7975
1659514234.77796,8010
1659514234.816235,8061
1659514234.85451,8100
1659514234.896031,8136
1659514234.937552,8172
1659514234.976169,8192
1659514235.014786,8068
1659514235.053403,7916
1659514235.097146,7819
1659514235.140888,7783
1659514235.184631,7763
1659514235.227178,7783
1659514235.269725,7824
1659514235.308341,7838
1659514235.346958,7850
1659514235.385575,7865
1659514235.42385,7893
1659514235.462125,7937
1659514235.5004,7970
1659514235.542946,8024
1659514235.585493,8064
1659514235.624452,8115
1659514235.66341,8148
1659514235.702368,8183
1659514235.740985,8227
1659514235.779602,8272
1659514235.818219,8225
1659514235.860765,8056
1659514235.903312,7894
1659514235.941929,7815
1659514235.980546,7785
1659514236.019162,7750
1659514236.059659,7769
1659514236.100155,7806
1659514236.139113,7818
1659514236.178072,7822
1659514236.21703,7840
1659514236.259577,7871
1659514236.302124,7909
1659514236.340399,7958
1659514236.378674,7993
1659514236.416949,8030
1659514236.457958,8075
1659514236.498966,8117
1659514236.538267,8160
1659514236.577567,8212
1659514236.616867,8198
1659514236.661293,8064
1659514236.705719,7921
1659514236.750146,7841
1659514236.792693,7817
1659514236.835239,7805
1659514236.87454,7830
1659514236.91384,7865
1659514236.95314,7879
1659514236.994149,7888
1659514237.035158,7916
1659514237.073774,7948
1659514237.112391,7987
1659514237.151008,8036
1659514237.193555,8071
1659514237.236101,8120
1659514237.274376,8164
1659514237.312651,8210
1659514237.350926,8252
1659514237.389543,8293
1659514237.42816,8231
1659514237.466776,8068
1659514237.508298,7948
1659514237.549819,7895
1659514237.588778,7873
1659514237.627736,7889
1659514237.666695,7916
1659514237.705312,7954
1659514237.743928,7968
1659514237.782545,7997
1659514237.823554,8025
1659514237.864563,8074
1659514237.904752,8108
1659514237.94494,8162
1659514237.985129,8203
1659514238.025318,8246
1659514238.065506,8299
1659514238.109933,8342
1659514238.154359,8389
1659514238.198785,8423
1659514238.237402,8365
1659514238.276019,8180
1659514238.314635,8050
1659514238.35291,7978
1659514238.391185,7936
1659514238.42946,7929
1659514238.470469,7955
1659514238.511478,7986
1659514238.550436,7996
1659514238.589395,8011
1659514238.628353,8027
1659514238.666628,8072
1659514238.704903,8105
1659514238.743178,8142
1659514238.785725,8194
1659514238.828272,8222
1659514238.867572,8266
1659514238.906872,8307
1659514238.946172,8358
1659514238.987181,8374
1659514239.02819,8273
1659514239.06749,8097
1659514239.106791,8000
1659514239.146091,7964
1659514239.188637,7938
1659514239.231184,7962
1659514239.269118,7994
1659514239.307051,8005
1659514239.344984,8010
1659514239.385993,8034
1659514239.427002,8065
1659514239.46596,8099
1659514239.504919,8152
1659514239.543877,8186
1659514239.587962,8232
1659514239.632046,8269
1659514239.676131,8317
1659514239.718165,8360
1659514239.760199,8334
1659514239.799499,8177
1659514239.838799,8031
1659514239.8781,7979
1659514239.916375,7937
1659514239.95465,7954
1659514239.992925,7980
1659514240.034446,8009
1659514240.075968,8033
1659514240.115951,8030
1659514240.155935,8057
1659514240.195919,8091
1659514240.236928,8131
1659514240.277936,8167
1659514240.316895,8210
1659514240.355853,8248
1659514240.394812,8284
1659514240.43377,8335
1659514240.472729,8378
1659514240.511687,8361
1659514240.553209,8214
1659514240.59473,8044
1659514240.633005,7951
1659514240.67128,7914
1659514240.709555,7879
1659514240.751077,7889
1659514240.792598,7940
1659514240.830873,7949
1659514240.869148,7969
1659514240.907423,7984
1659514240.949457,8001
1659514240.991491,8042
1659514241.036259,8075
1659514241.081028,8121
1659514241.125795,8161
1659514241.16407,8203
1659514241.202345,8243
1659514241.24062,8295
1659514241.281629,8333
1659514241.322638,8310
1659514241.361938,8173
1659514241.401239,8013
1659514241.440539,7937
1659514241.482573,7885
1659514241.524607,7873
1659514241.562882,7895
1659514241.601157,7940
1659514241.639432,7934
1659514241.678391,7940
1659514241.717349,7959
1659514241.756307,7980
1659514241.797316,8017
1659514241.838325,8051
1659514241.8766,8096
1659514241.914875,8124
1659514241.95315,8165
1659514241.995697,8215
1659514242.038244,8241
1659514242.077202,8223
1659514242.11616,8064
1659514242.155119,7917
1659514242.194077,7835
1659514242.233036,7805
1659514242.271994,7795
1659514242.313516,7839
1659514242.355037,7870
1659514242.394679,7873
1659514242.434321,7884
1659514242.473963,7900
1659514242.515485,7938
1659514242.557006,7966
1659514242.601432,8002
1659514242.645859,8053
1659514242.690285,8089
1659514242.723092,8127
1659514242.755899,8167
1659514242.799984,8212
1659514242.844068,8246
1659514242.888153,8255
1659514242.921985,8095
1659514242.955818,7915
1659514243.000244,7818
1659514243.04467,7765
1659514243.089097,7723
1659514243.127713,7730
1659514243.16633,7769
1659514243.204947,7787
1659514243.246981,7798
1659514243.289015,7807
1659514243.331049,7839
1659514243.373083,7881
1659514243.412042,7908
1659514243.451,7951
1659514243.489959,8000
1659514243.530967,8034
1659514243.571976,8067
1659514243.610935,8110
1659514243.649893,8156
1659514243.688852,8203
1659514243.72781,8209
1659514243.766769,8098
1659514243.805727,7917
1659514243.847249,7808
1659514243.88877,7758
1659514243.927045,7737
1659514243.96532,7754
1659514244.003595,7786
1659514244.045116,7810
1659514244.086638,7811
1659514244.124913,7829
1659514244.163188,7857
1659514244.201463,7885
1659514244.240763,7933
1659514244.280063,7981
1659514244.319364,8021
1659514244.361398,8053
1659514244.403432,8103
1659514244.441707,8155
1659514244.479982,8187
1659514244.518257,8098
1659514244.559778,7929
1659514244.6013,7828
1659514244.64641,7785
1659514244.691519,7771
1659514244.736629,7787
1659514244.769949,7838
1659514244.803268,7859
1659514244.847353,7876
1659514244.891438,7899
1659514244.935522,7926
1659514244.968842,7975
1659514245.002162,8022
1659514245.046246,8070
1659514245.090331,8118
1659514245.134415,8162
1659514245.173374,8201
1659514245.212332,8248
1659514245.251291,8295
1659514245.293325,8330
1659514245.335359,8332
1659514245.373976,8171
1659514245.412592,7992
1659514245.451209,7891
1659514245.492218,7838
1659514245.533227,7802
1659514245.573211,7809
1659514245.613194,7843
1659514245.653178,7858
1659514245.692137,7866
1659514245.731095,7881
1659514245.770053,7914
1659514245.809012,7942
1659514245.84797,7973
1659514245.886929,8017
1659514245.92845,8056
1659514245.969972,8100
1659514246.008589,8133
1659514246.047205,8191
1659514246.085822,8236
1659514246.130248,8274
1659514246.174675,8181
1659514246.219101,7994
1659514246.261647,7887
1659514246.304194,7842
1659514246.342469,7822
1659514246.380744,7827
1659514246.419019,7868
1659514246.457294,7864
1659514246.495569,7878
1659514246.533844,7855
1659514246.575878,7847
1659514246.617912,7875
1659514246.656529,7901
1659514246.695146,7941
1659514246.733763,7981
1659514246.775797,8033
1659514246.817831,8079
1659514246.856789,8133
1659514246.895748,8158
1659514246.934706,8050
1659514246.973323,7876
1659514247.01194,7772
1659514247.050556,7738
1659514247.091053,7708
1659514247.131549,7715
1659514247.170849,7754
1659514247.210149,7779
1659514247.249449,7781
1659514247.290458,7795
1659514247.331467,7827
1659514247.370084,7861
1659514247.408701,7902
1659514247.447317,7937
1659514247.488326,7980
1659514247.529335,8026
1659514247.573761,8071
1659514247.618188,8117
1659514247.662614,8152
1659514247.701572,8104
1659514247.740531,7923
1659514247.77949,7758
1659514247.821011,7676
1659514247.862532,7632
1659514247.901491,7600
1659514247.940449,7620
1659514247.979408,7656
1659514248.018366,7699
1659514248.057325,7714
1659514248.096283,7730
1659514248.137805,7769
1659514248.179326,7810
1659514248.218626,7862
1659514248.257927,7899
1659514248.297227,7931
1659514248.338236,7964
1659514248.379245,7999
1659514248.418032,8028
1659514248.45682,8072
1659514248.495607,8105
1659514248.534395,8122
1659514248.573183,8022
1659514248.61197,7831
1659514248.656055,7713
1659514248.700139,7668
1659514248.744224,7651
1659514248.777544,7670
1659514248.810863,7719
1659514248.856315,7748
1659514248.901766,7770
1659514248.947218,7795
1659514248.988227,7816
1659514249.029236,7859
1659514249.068194,7890
1659514249.107152,7935
1659514249.146111,7983
1659514249.185411,8031
1659514249.224711,8072
1659514249.264012,8096
1659514249.305533,8144
1659514249.347055,8187
1659514249.384988,8218
1659514249.422921,8130
1659514249.460854,7944
1659514249.500154,7820
1659514249.539455,7790
1659514249.578755,7793
1659514249.619251,7806
1659514249.659747,7852
1659514249.699048,7874
1659514249.738348,7893
1659514249.777648,7900
1659514249.818657,7929
1659514249.859666,7983
1659514249.898624,8023
1659514249.937583,8067
1659514249.976541,8102
1659514250.01755,8154
1659514250.058559,8195
1659514250.098201,8256
1659514250.137843,8283
1659514250.177485,8211
1659514250.219006,8046
1659514250.260528,7927
1659514250.299145,7895
1659514250.337761,7896
1659514250.376378,7938
1659514250.420804,7993
1659514250.465231,8031
1659514250.509657,8056
1659514250.550666,8070
1659514250.591675,8114
1659514250.630291,8153
1659514250.668908,8195
1659514250.707525,8247
1659514250.749046,8296
1659514250.790568,8333
1659514250.829185,8383
1659514250.867801,8440
1659514250.906418,8484
1659514250.945035,8493
1659514250.983651,8351
1659514251.022268,8160
1659514251.064302,8031
1659514251.106336,7989
1659514251.145295,7977
1659514251.184253,7986
1659514251.223212,8024
1659514251.261828,8052
1659514251.300445,8060
1659514251.339062,8062
1659514251.381096,8099
1659514251.42313,8132
1659514251.461747,8174
1659514251.500364,8218
1659514251.53898,8243
1659514251.581527,8267
1659514251.624074,8284
1659514251.66269,8309
1659514251.701307,8284
1659514251.739924,8196
1659514251.781446,7950
1659514251.822967,7734
1659514251.867052,7677
1659514251.911136,7680
1659514251.955221,7717
1659514251.994521,7774
1659514252.033821,7818
1659514252.073121,7794
1659514252.115668,7724
1659514252.158215,7626
1659514252.197173,7521
1659514252.236132,7390
