LocalTimestamp,PG
1659434366.086026,10427
1659434366.127545,10544
1659434366.169064,10650
1659434366.207678,10769
1659434366.246292,10892
1659434366.284906,10986
1659434366.32745,11015
1659434366.369994,11020
1659434366.408267,11014
1659434366.446539,11010
1659434366.484812,11014
1659434366.523426,11024
1659434366.56204,11030
1659434366.600654,11033
1659434366.64166,11040
1659434366.682667,11059
1659434366.721622,11082
1659434366.760578,11079
1659434366.799534,11098
1659434366.841565,11124
1659434366.883597,11139
1659434366.922894,11158
1659434366.962192,11167
1659434367.00149,11183
1659434367.043008,11191
1659434367.084527,11217
1659434367.124508,11233
1659434367.164489,11240
1659434367.20447,11274
1659434367.244451,11276
1659434367.284432,11240
1659434367.325951,11218
1659434367.36747,11189
1659434367.405401,11185
1659434367.443331,11196
1659434367.481262,11203
1659434367.523037,11227
1659434367.564812,11279
1659434367.606587,11306
1659434367.648362,11339
1659434367.686293,11377
1659434367.724224,11406
1659434367.762155,11444
1659434367.803161,11477
1659434367.844167,11520
1659434367.884148,11561
1659434367.924129,11604
1659434367.96411,11629
1659434368.002724,11648
1659434368.041339,11671
1659434368.079953,11680
1659434368.120959,11699
1659434368.161965,11692
1659434368.201605,11673
1659434368.241244,11645
1659434368.280883,11615
1659434368.322915,11598
1659434368.364946,11596
1659434368.409028,11597
1659434368.453109,11594
1659434368.497191,11597
1659434368.530509,11606
1659434368.563826,11613
1659434368.608249,11627
1659434368.652673,11632
1659434368.697096,11640
1659434368.729901,11672
1659434368.762706,11683
1659434368.807471,11686
1659434368.852236,11691
1659434368.897001,11717
1659434368.935957,11724
1659434368.974913,11762
1659434369.013869,11771
1659434369.054875,11780
1659434369.095881,11778
1659434369.135179,11749
1659434369.174477,11725
1659434369.213774,11703
1659434369.256318,11705
1659434369.298862,11691
1659434369.337135,11709
1659434369.375407,11718
1659434369.41368,11719
1659434369.452635,11727
1659434369.491591,11727
1659434369.530547,11751
1659434369.572066,11759
1659434369.613585,11770
1659434369.651857,11787
1659434369.69013,11806
1659434369.728402,11826
1659434369.767016,11830
1659434369.80563,11857
1659434369.844245,11864
1659434369.886789,11886
1659434369.929332,11893
1659434369.969826,11899
1659434370.01032,11885
1659434370.049276,11864
1659434370.088232,11844
1659434370.127187,11830
1659434370.169731,11817
1659434370.212275,11822
1659434370.251231,11821
1659434370.290187,11824
1659434370.329143,11824
1659434370.373225,11832
1659434370.417306,11826
1659434370.461388,11835
1659434370.494705,11843
1659434370.528023,11853
1659434370.572105,11858
1659434370.616186,11873
1659434370.660268,11879
1659434370.698882,11885
1659434370.737496,11902
1659434370.776111,11913
1659434370.818655,11906
1659434370.861198,11884
1659434370.899813,11862
1659434370.938427,11856
1659434370.977041,11857
1659434371.017534,11871
1659434371.058028,11872
1659434371.097326,11884
1659434371.136623,11890
1659434371.175921,11897
1659434371.21556,11900
1659434371.2552,11900
1659434371.294839,11910
1659434371.335845,11924
1659434371.376851,11940
1659434371.416149,11953
1659434371.455447,11977
1659434371.494744,11981
1659434371.536776,11994
1659434371.578807,12010
1659434371.617763,12028
1659434371.656719,12037
1659434371.695675,12026
1659434371.736681,11999
1659434371.777687,11967
1659434371.816643,11958
1659434371.855599,11945
1659434371.894555,11952
1659434371.935048,11948
1659434371.975542,11945
1659434372.019624,11950
1659434372.063705,11938
1659434372.107787,11934
1659434372.145974,11929
1659434372.184161,11938
1659434372.222348,11946
1659434372.260535,11960
1659434372.302054,11975
1659434372.343573,11984
1659434372.383964,12009
1659434372.424355,12024
1659434372.464746,12045
1659434372.505137,12049
1659434372.545528,12059
1659434372.583801,12040
1659434372.622073,12012
1659434372.660346,11970
1659434372.699301,11940
1659434372.738257,11926
1659434372.777213,11901
1659434372.819757,11901
1659434372.862301,11894
1659434372.902795,11887
1659434372.943288,11892
1659434372.981903,11886
1659434373.020517,11890
1659434373.059131,11895
1659434373.101675,11895
1659434373.144219,11915
1659434373.182149,11928
1659434373.22008,11930
1659434373.258011,11948
1659434373.301751,11967
1659434373.345491,11974
1659434373.389231,11992
1659434373.423061,11996
1659434373.456891,11985
1659434373.500973,11954
1659434373.545054,11925
1659434373.589136,11899
1659434373.628092,11875
1659434373.667048,11861
1659434373.706004,11845
1659434373.748548,11843
1659434373.791092,11838
1659434373.829706,11837
1659434373.86832,11840
1659434373.906934,11841
1659434373.947428,11851
1659434373.987921,11855
1659434374.027219,11875
1659434374.066517,11882
1659434374.105814,11901
1659434374.14477,11905
1659434374.183726,11914
1659434374.222682,11931
1659434374.263688,11943
1659434374.304694,11962
1659434374.34365,11955
1659434374.382606,11952
1659434374.421562,11916
1659434374.466327,11878
1659434374.511092,11856
1659434374.555857,11831
1659434374.594813,11815
1659434374.633769,11819
1659434374.672725,11820
1659434374.712023,11814
1659434374.75132,11817
1659434374.790618,11813
1659434374.832649,11826
1659434374.874681,11835
1659434374.913636,11842
1659434374.952592,11861
1659434374.991548,11871
1659434375.033067,11881
1659434375.074586,11899
1659434375.112858,11914
1659434375.151131,11917
1659434375.189403,11944
1659434375.227675,11959
1659434375.265948,11950
1659434375.30422,11929
1659434375.346764,11887
1659434375.389308,11871
1659434375.427922,11839
1659434375.466537,11826
1659434375.505151,11812
1659434375.54667,11820
1659434375.588188,11831
1659434375.627144,11837
1659434375.6661,11850
1659434375.705056,11854
1659434375.7476,11879
1659434375.790144,11890
1659434375.834226,11901
1659434375.878307,11927
1659434375.922389,11940
1659434375.961687,11964
1659434376.000984,11985
1659434376.040282,12009
1659434376.080775,12030
1659434376.121269,12052
1659434376.159541,12063
1659434376.197814,12066
1659434376.236086,12033
1659434376.278118,12001
1659434376.320149,11995
1659434376.358763,11977
1659434376.397377,11983
1659434376.435992,11980
1659434376.474606,11999
1659434376.51322,12008
1659434376.551834,12007
1659434376.59284,12032
1659434376.633847,12034
1659434376.673144,12047
1659434376.712442,12061
1659434376.751739,12081
1659434376.790354,12102
1659434376.828968,12122
1659434376.867582,12130
1659434376.908588,12146
1659434376.949594,12173
1659434376.989234,12193
1659434377.028873,12222
1659434377.068512,12229
1659434377.110031,12212
1659434377.15155,12191
1659434377.192556,12161
1659434377.233562,12162
1659434377.27286,12150
1659434377.312157,12159
1659434377.351455,12173
1659434377.395879,12172
1659434377.440302,12187
1659434377.484725,12190
1659434377.51753,12199
1659434377.550335,12214
1659434377.590111,12227
1659434377.629887,12239
1659434377.669663,12256
1659434377.709439,12264
1659434377.749215,12293
1659434377.793639,12301
1659434377.838062,12316
1659434377.882485,12343
1659434377.916316,12354
1659434377.950146,12369
1659434377.995252,12385
1659434378.040359,12362
1659434378.085466,12334
1659434378.123739,12322
1659434378.162011,12305
1659434378.200284,12300
1659434378.242827,12308
1659434378.285371,12318
1659434378.323986,12315
1659434378.3626,12325
1659434378.401214,12330
1659434378.442733,12330
1659434378.484251,12342
1659434378.522866,12355
1659434378.56148,12365
1659434378.600094,12382
1659434378.638708,12391
1659434378.677322,12415
1659434378.715936,12415
1659434378.75643,12429
1659434378.796924,12448
1659434378.836221,12462
1659434378.875519,12470
1659434378.914817,12455
1659434378.956848,12435
1659434378.998879,12411
1659434379.037835,12401
1659434379.076791,12381
1659434379.115747,12377
1659434379.156753,12384
1659434379.197759,12374
1659434379.236715,12384
1659434379.275671,12383
1659434379.314627,12384
1659434379.356146,12380
1659434379.397665,12384
1659434379.442088,12388
1659434379.486511,12393
1659434379.530935,12406
1659434379.569207,12420
1659434379.60748,12425
1659434379.645752,12434
1659434379.686758,12447
1659434379.727765,12460
1659434379.766037,12470
1659434379.804309,12475
1659434379.842582,12452
1659434379.881538,12430
1659434379.920494,12401
1659434379.95945,12392
1659434380.000968,12366
1659434380.042487,12358
1659434380.081443,12354
1659434380.120399,12351
1659434380.159355,12357
1659434380.201386,12361
1659434380.243418,12354
1659434380.282373,12356
1659434380.321329,12361
1659434380.360285,12352
1659434380.399241,12356
1659434380.438197,12374
1659434380.477153,12376
1659434380.519184,12382
1659434380.561216,12388
1659434380.600172,12411
1659434380.639127,12410
1659434380.678083,12425
1659434380.718577,12392
1659434380.75907,12349
1659434380.803494,12323
1659434380.847917,12299
1659434380.892341,12274
1659434380.926683,12266
1659434380.961026,12264
1659434381.004424,12259
1659434381.047822,12260
1659434381.091221,12265
1659434381.124538,12264
1659434381.157856,12270
1659434381.202621,12270
1659434381.247386,12281
1659434381.292151,12287
1659434381.33226,12282
1659434381.37237,12296
1659434381.412479,12303
1659434381.452588,12303
1659434381.492697,12315
1659434381.532806,12318
1659434381.572916,12318
1659434381.613025,12296
1659434381.651468,12239
1659434381.689911,12193
1659434381.728355,12171
1659434381.766798,12141
1659434381.805241,12121
1659434381.843684,12116
1659434381.885032,12103
1659434381.92638,12079
1659434381.967728,12087
1659434382.009076,12071
1659434382.050424,12065
1659434382.091772,12071
1659434382.131411,12070
1659434382.171051,12076
1659434382.21069,12086
1659434382.252209,12089
1659434382.293728,12092
1659434382.332,12102
1659434382.370273,12106
1659434382.408545,12127
1659434382.447843,12106
1659434382.48714,12065
1659434382.526438,12004
1659434382.568469,11954
1659434382.610501,11918
1659434382.648773,11886
1659434382.687045,11873
1659434382.725318,11860
1659434382.766837,11848
1659434382.808355,11844
1659434382.848131,11833
1659434382.887908,11832
1659434382.927684,11823
1659434382.967459,11821
1659434383.007236,11828
1659434383.048242,11831
1659434383.089248,11831
1659434383.128204,11844
1659434383.16716,11851
1659434383.206116,11858
1659434383.247122,11872
1659434383.288128,11867
1659434383.327426,11846
1659434383.366723,11803
1659434383.406021,11728
1659434383.44754,11690
1659434383.489058,11655
1659434383.528014,11633
1659434383.56697,11632
1659434383.605926,11619
1659434383.647445,11605
1659434383.688964,11608
1659434383.733729,11595
1659434383.778494,11593
1659434383.823259,11583
1659434383.862556,11594
1659434383.901854,11603
1659434383.941152,11618
1659434383.981645,11619
1659434384.022139,11629
1659434384.061437,11635
1659434384.100734,11645
1659434384.140032,11654
1659434384.181038,11640
1659434384.222044,11590
1659434384.261342,11534
1659434384.300639,11499
1659434384.339937,11465
1659434384.378893,11439
1659434384.417849,11440
1659434384.456805,11434
1659434384.498836,11427
1659434384.540868,11415
1659434384.579482,11419
1659434384.618096,11427
1659434384.65671,11429
1659434384.699254,11445
1659434384.741798,11451
1659434384.780754,11470
1659434384.81971,11480
1659434384.858665,11486
1659434384.89728,11506
1659434384.935894,11520
1659434384.974508,11528
1659434385.015514,11515
1659434385.05652,11465
1659434385.094793,11403
1659434385.133065,11364
1659434385.171338,11330
1659434385.213369,11311
1659434385.255401,11292
1659434385.299482,11287
1659434385.343564,11293
1659434385.387645,11282
1659434385.419938,11284
1659434385.45223,11280
1659434385.496654,11291
1659434385.541077,11307
1659434385.5855,11321
1659434385.624456,11339
1659434385.663412,11347
1659434385.702368,11364
1659434385.744912,11378
1659434385.787456,11384
1659434385.82607,11404
1659434385.864684,11395
1659434385.903299,11351
1659434385.944817,11281
1659434385.986336,11243
1659434386.025292,11213
1659434386.064248,11201
1659434386.103204,11201
1659434386.14216,11199
1659434386.181116,11212
1659434386.220072,11192
1659434386.26159,11197
1659434386.303109,11204
1659434386.341723,11214
1659434386.380337,11216
1659434386.418952,11227
1659434386.46047,11253
1659434386.501989,11268
1659434386.53992,11286
1659434386.577851,11305
1659434386.615781,11320
1659434386.657813,11330
1659434386.699844,11325
1659434386.739142,11284
1659434386.778439,11235
1659434386.817737,11194
1659434386.858743,11164
1659434386.899749,11153
1659434386.939047,11147
1659434386.978344,11155
1659434387.017642,11164
1659434387.062407,11162
1659434387.107172,11178
1659434387.151937,11183
1659434387.185255,11189
1659434387.218572,11207
1659434387.262996,11224
1659434387.307419,11252
1659434387.351843,11275
1659434387.38516,11300
1659434387.418478,11317
1659434387.462559,11342
1659434387.506641,11363
1659434387.550723,11368
1659434387.59002,11346
1659434387.629318,11293
1659434387.668616,11265
1659434387.710647,11241
1659434387.752678,11233
1659434387.791292,11236
1659434387.829907,11257
1659434387.868521,11251
1659434387.909527,11261
1659434387.950533,11276
1659434387.990514,11277
1659434388.030495,11292
1659434388.070476,11316
1659434388.111483,11344
1659434388.152489,11361
1659434388.193495,11395
1659434388.234501,11421
1659434388.273457,11453
1659434388.312413,11487
1659434388.351369,11514
1659434388.390325,11525
1659434388.429281,11499
1659434388.468236,11452
1659434388.50873,11413
1659434388.549224,11393
1659434388.58818,11374
1659434388.627136,11367
1659434388.666091,11376
1659434388.704364,11381
1659434388.742636,11395
1659434388.780909,11378
1659434388.82294,11388
1659434388.864971,11402
1659434388.90649,11412
1659434388.948009,11430
1659434388.986965,11442
1659434389.025921,11462
1659434389.064877,11472
1659434389.108958,11493
1659434389.15304,11502
1659434389.197122,11506
1659434389.230952,11511
1659434389.264782,11461
1659434389.309205,11424
1659434389.353629,11384
1659434389.398052,11368
1659434389.430857,11342
1659434389.463662,11360
1659434389.507744,11354
1659434389.551825,11358
1659434389.595907,11364
1659434389.634863,11366
1659434389.673819,11372
1659434389.712775,11382
1659434389.754293,11397
1659434389.795812,11402
1659434389.834768,11417
1659434389.873724,11441
1659434389.91268,11443
1659434389.954199,11466
1659434389.995718,11484
1659434390.034673,11494
1659434390.073629,11465
1659434390.112585,11418
1659434390.151541,11389
1659434390.190497,11367
1659434390.229453,11336
1659434390.271997,11328
1659434390.314541,11340
1659434390.353497,11337
1659434390.392452,11345
1659434390.431408,11331
1659434390.472927,11335
1659434390.514446,11350
1659434390.553402,11359
1659434390.592358,11377
1659434390.631314,11387
1659434390.673858,11410
1659434390.716402,11431
1659434390.754674,11450
1659434390.792946,11463
1659434390.831219,11473
1659434390.872225,11451
1659434390.913231,11401
1659434390.952187,11351
1659434390.991143,11317
1659434391.030099,11298
1659434391.074181,11289
1659434391.118262,11297
1659434391.162344,11305
1659434391.204375,11304
1659434391.246407,11314
1659434391.285704,11321
1659434391.325002,11337
1659434391.3643,11347
1659434391.405306,11357
1659434391.446312,11367
1659434391.485268,11393
1659434391.524224,11404
1659434391.56318,11419
1659434391.602135,11435
1659434391.641091,11429
1659434391.680047,11398
1659434391.721566,11347
1659434391.763085,11294
1659434391.801357,11278
1659434391.83963,11249
1659434391.877902,11244
1659434391.919934,11249
1659434391.961965,11250
1659434392.000237,11254
1659434392.03851,11244
1659434392.076782,11251
1659434392.11608,11257
1659434392.155378,11260
1659434392.194675,11272
1659434392.236706,11284
1659434392.278738,11303
1659434392.317352,11311
1659434392.355966,11324
1659434392.39458,11337
1659434392.435587,11302
1659434392.476593,11241
1659434392.516574,11185
1659434392.556555,11151
1659434392.596536,11113
1659434392.637542,11103
1659434392.678548,11096
1659434392.72263,11097
1659434392.766712,11102
1659434392.810793,11095
1659434392.844111,11097
1659434392.877428,11103
1659434392.921852,11119
1659434392.966275,11139
1659434393.010699,11156
1659434393.049654,11158
1659434393.08861,11170
1659434393.127566,11193
1659434393.169598,11209
1659434393.211629,11201
1659434393.250243,11149
1659434393.288857,11088
1659434393.327471,11044
1659434393.366427,11011
1659434393.405383,10997
1659434393.444339,10998
1659434393.486883,11003
1659434393.529427,11012
1659434393.568725,11010
1659434393.608022,11018
1659434393.64732,11023
1659434393.688326,11041
1659434393.729332,11059
1659434393.76863,11082
1659434393.807927,11097
1659434393.847225,11120
1659434393.889769,11133
1659434393.932313,11160
1659434393.970585,11168
1659434394.008858,11171
1659434394.04713,11135
1659434394.088136,11086
1659434394.129143,11056
1659434394.168099,11043
1659434394.207055,11048
1659434394.24601,11056
1659434394.287529,11072
1659434394.329048,11083
1659434394.367662,11093
1659434394.406276,11120
1659434394.44489,11134
1659434394.489655,11146
1659434394.534421,11157
1659434394.579186,11182
1659434394.611991,11201
1659434394.644796,11247
1659434394.689219,11262
1659434394.733643,11286
1659434394.778066,11316
1659434394.817022,11322
1659434394.855978,11301
1659434394.894933,11272
1659434394.936452,11256
1659434394.977971,11247
1659434395.016585,11241
1659434395.055199,11250
1659434395.093814,11247
1659434395.13482,11268
1659434395.175826,11273
1659434395.214098,11296
1659434395.252371,11297
1659434395.290643,11305
1659434395.328916,11320
1659434395.367188,11345
1659434395.405461,11363
1659434395.448005,11379
1659434395.490549,11415
1659434395.529846,11425
1659434395.569144,11453
1659434395.608441,11438
1659434395.649448,11403
1659434395.690454,11383
1659434395.72941,11374
1659434395.768366,11367
1659434395.807322,11366
1659434395.849865,11366
1659434395.892409,11370
1659434395.931024,11387
1659434395.969638,11386
1659434396.008252,11394
1659434396.049258,11416
1659434396.090264,11431
1659434396.129562,11441
1659434396.168859,11459
1659434396.208157,11477
1659434396.251897,11491
1659434396.295637,11512
1659434396.339377,11535
1659434396.381921,11532
1659434396.424465,11505
1659434396.463421,11469
1659434396.502377,11446
1659434396.541332,11431
1659434396.579605,11424
1659434396.617877,11426
1659434396.65615,11433
1659434396.697669,11444
1659434396.739187,11445
1659434396.778827,11447
1659434396.818466,11446
1659434396.858105,11454
1659434396.899112,11453
1659434396.940118,11466
1659434396.978732,11476
1659434397.017346,11493
1659434397.05596,11497
1659434397.0956,11509
1659434397.135239,11528
1659434397.174878,11510
1659434397.216397,11478
1659434397.257916,11423
1659434397.29653,11392
1659434397.335144,11368
1659434397.373759,11347
1659434397.415277,11346
1659434397.456796,11347
1659434397.494727,11351
1659434397.532658,11351
1659434397.570588,11369
1659434397.61262,11356
1659434397.654651,11358
1659434397.699074,11370
1659434397.743498,11383
1659434397.787921,11393
1659434397.820726,11410
1659434397.853531,11439
1659434397.897613,11454
1659434397.941694,11471
1659434397.985776,11469
1659434398.025415,11421
1659434398.065055,11387
1659434398.104694,11345
1659434398.146213,11326
1659434398.187732,11302
1659434398.226004,11286
1659434398.264277,11283
1659434398.302549,11285
1659434398.344068,11288
1659434398.385587,11287
1659434398.423859,11292
1659434398.462132,11296
1659434398.500404,11312
1659434398.538676,11321
1659434398.576949,11329
1659434398.615221,11346
1659434398.657765,11355
1659434398.700309,11366
1659434398.738923,11372
1659434398.777538,11360
1659434398.816152,11307
1659434398.854766,11274
1659434398.89338,11232
1659434398.931994,11201
1659434398.974025,11196
1659434399.016057,11186
1659434399.055013,11189
1659434399.093969,11190
1659434399.132925,11190
1659434399.174956,11190
1659434399.216987,11204
1659434399.259019,11210
1659434399.30105,11223
1659434399.339664,11234
1659434399.378278,11251
1659434399.416893,11258
1659434399.460974,11273
1659434399.505056,11287
1659434399.549138,11295
1659434399.582968,11278
1659434399.616798,11226
1659434399.661563,11171
1659434399.706328,11151
1659434399.751093,11125
1659434399.789366,11111
1659434399.827638,11113
1659434399.865911,11108
1659434399.906917,11115
1659434399.947923,11109
1659434399.987221,11115
1659434400.026518,11117
1659434400.065816,11140
1659434400.107334,11153
1659434400.148853,11174
1659434400.187467,11182
1659434400.226082,11200
1659434400.264696,11224
1659434400.303993,11234
1659434400.343291,11251
1659434400.382589,11232
1659434400.424107,11188
1659434400.465626,11138
1659434400.504924,11118
1659434400.544221,11091
1659434400.583519,11079
1659434400.624525,11088
1659434400.665531,11092
1659434400.704487,11099
1659434400.743443,11097
1659434400.782399,11107
1659434400.822893,11127
1659434400.863386,11138
1659434400.902684,11157
1659434400.941982,11174
1659434400.981279,11184
1659434401.025361,11207
1659434401.069443,11238
1659434401.113524,11255
1659434401.146329,11264
1659434401.179134,11268
1659434401.223557,11234
1659434401.267981,11197
1659434401.312404,11167
1659434401.346747,11166
1659434401.38109,11155
1659434401.425171,11151
1659434401.469253,11169
1659434401.513335,11178
1659434401.55229,11190
1659434401.591246,11202
1659434401.630202,11214
1659434401.671721,11232
1659434401.71324,11256
1659434401.751512,11270
1659434401.789785,11289
1659434401.828057,11317
1659434401.868448,11336
1659434401.908839,11361
1659434401.94923,11377
1659434401.989622,11375
1659434402.030013,11346
1659434402.067944,11307
1659434402.105874,11289
1659434402.143805,11272
1659434402.185836,11264
1659434402.227868,11266
1659434402.267507,11265
1659434402.307146,11276
1659434402.346786,11282
1659434402.388817,11296
1659434402.430848,11299
1659434402.469804,11315
1659434402.50876,11332
1659434402.547716,11343
1659434402.589235,11351
1659434402.630754,11381
1659434402.669026,11391
1659434402.707299,11416
1659434402.745571,11433
1659434402.789653,11417
1659434402.833734,11386
1659434402.877816,11348
1659434402.920872,11314
1659434402.963929,11299
1659434403.002543,11288
1659434403.041157,11291
1659434403.079772,11293
1659434403.118386,11290
1659434403.157,11291
1659434403.195614,11297
1659434403.237133,11304
1659434403.278652,11318
1659434403.317266,11323
1659434403.35588,11338
1659434403.394494,11350
1659434403.436526,11366
1659434403.478557,11386
1659434403.517513,11394
1659434403.556469,11415
1659434403.595424,11408
1659434403.634039,11364
1659434403.672653,11314
1659434403.711267,11275
1659434403.752786,11257
1659434403.794305,11245
1659434403.834286,11237
1659434403.874267,11235
1659434403.914248,11245
1659434403.954229,11238
1659434403.99421,11234
1659434404.032482,11240
1659434404.070755,11243
1659434404.109027,11249
1659434404.150033,11261
1659434404.19104,11275
1659434404.232302,11283
1659434404.273565,11302
1659434404.314827,11310
1659434404.35609,11320
1659434404.395046,11320
1659434404.434001,11280
1659434404.472957,11226
1659434404.515501,11185
1659434404.558045,11154
1659434404.597001,11134
1659434404.635957,11128
1659434404.674913,11129
1659434404.713527,11137
1659434404.752141,11128
1659434404.790755,11118
1659434404.832787,11131
1659434404.874818,11135
1659434404.913774,11149
1659434404.95273,11168
1659434404.991686,11177
1659434405.033205,11193
1659434405.074723,11205
1659434405.119488,11224
1659434405.164253,11236
1659434405.209018,11237
1659434405.241823,11196
1659434405.274628,11139
1659434405.318368,11096
1659434405.362108,11057
1659434405.405848,11032
1659434405.445146,11027
1659434405.484444,11028
1659434405.523741,11020
1659434405.565773,11023
1659434405.607804,11026
1659434405.647101,11035
1659434405.686399,11044
1659434405.725697,11041
1659434405.764652,11065
1659434405.803608,11071
1659434405.842564,11084
1659434405.885108,11099
1659434405.927652,11119
1659434405.966266,11127
1659434406.004881,11123
1659434406.043495,11062
1659434406.084501,11001
1659434406.125507,10969
1659434406.164805,10930
1659434406.204103,10918
1659434406.2434,10909
1659434406.281331,10917
1659434406.319262,10911
1659434406.357192,10917
1659434406.399224,10916
1659434406.441255,10920
1659434406.482774,10937
1659434406.524292,10956
1659434406.565811,10966
1659434406.60733,10977
1659434406.648849,10992
1659434406.690368,11011
1659434406.729324,11038
1659434406.768279,11048
1659434406.807235,11035
1659434406.849267,10989
1659434406.891298,10930
1659434406.929912,10885
1659434406.968526,10854
1659434407.007141,10828
1659434407.046096,10837
1659434407.085052,10846
1659434407.124008,10850
1659434407.166552,10854
1659434407.209096,10868
1659434407.247027,10882
1659434407.284958,10892
1659434407.322888,10918
1659434407.364407,10935
1659434407.405926,10958
1659434407.44454,10979
1659434407.483154,11006
1659434407.521768,11028
1659434407.5638,11047
1659434407.605831,11049
1659434407.644104,11020
1659434407.682376,10962
1659434407.720649,10920
1659434407.76268,10900
1659434407.804711,10892
1659434407.843325,10892
1659434407.881939,10918
1659434407.920554,10923
1659434407.964977,10940
1659434408.0094,10957
1659434408.053824,10978
1659434408.09688,10987
1659434408.139937,11013
1659434408.178551,11035
1659434408.217165,11063
1659434408.25578,11083
1659434408.294394,11108
1659434408.333008,11135
1659434408.371622,11161
1659434408.412628,11173
1659434408.453634,11162
1659434408.49259,11123
1659434408.531546,11086
1659434408.570502,11072
1659434408.612021,11065
1659434408.65354,11049
1659434408.692154,11069
1659434408.730768,11080
1659434408.769382,11084
1659434408.808338,11092
1659434408.847294,11103
1659434408.88625,11113
1659434408.931015,11136
1659434408.97578,11152
1659434409.020545,11174
1659434409.054375,11198
1659434409.088205,11221
1659434409.129724,11239
1659434409.171243,11259
1659434409.212762,11267
1659434409.25428,11233
1659434409.296312,11189
1659434409.338343,11158
1659434409.377641,11138
1659434409.416938,11138
1659434409.456236,11141
1659434409.494509,11143
1659434409.532781,11158
1659434409.571053,11153
1659434409.61206,11164
1659434409.653066,11171
1659434409.692363,11180
1659434409.731661,11199
1659434409.770959,11222
1659434409.812477,11230
1659434409.853996,11241
1659434409.892269,11269
1659434409.930541,11284
1659434409.968813,11291
1659434410.010332,11284
1659434410.051851,11235
1659434410.090807,11186
1659434410.129763,11155
1659434410.168719,11134
1659434410.209725,11121
1659434410.250731,11127
1659434410.295155,11133
1659434410.339578,11131
1659434410.384001,11146
1659434410.422957,11154
1659434410.461913,11167
1659434410.500869,11180
1659434410.541363,11193
1659434410.581856,11217
1659434410.621154,11234
1659434410.660451,11254
1659434410.699749,11274
1659434410.740755,11296
1659434410.781761,11299
1659434410.820376,11270
1659434410.85899,11208
1659434410.897604,11156
1659434410.936218,11135
1659434410.974832,11113
1659434411.013447,11104
1659434411.056503,11102
1659434411.09956,11120
1659434411.140822,11116
1659434411.182085,11133
1659434411.223347,11128
1659434411.26461,11128
1659434411.303907,11149
1659434411.343205,11166
1659434411.382502,11178
1659434411.425046,11197
1659434411.46759,11213
1659434411.506204,11216
1659434411.544819,11225
1659434411.583433,11188
1659434411.624439,11127
1659434411.665445,11097
1659434411.704401,11067
1659434411.743357,11053
1659434411.782313,11053
1659434411.820927,11055
1659434411.859541,11056
1659434411.898155,11055
1659434411.940187,11056
1659434411.982218,11055
1659434412.020832,11076
1659434412.059446,11089
1659434412.098061,11109
1659434412.136675,11121
1659434412.175289,11127
1659434412.213903,11154
1659434412.256447,11173
1659434412.298991,11163
1659434412.338289,11111
1659434412.377586,11070
1659434412.416884,11027
1659434412.45789,11005
1659434412.498896,10982
1659434412.540927,10986
1659434412.582959,11003
1659434412.622598,11002
1659434412.662238,11012
1659434412.701877,11011
1659434412.745617,11029
1659434412.789357,11041
1659434412.833097,11068
1659434412.865389,11080
1659434412.897681,11097
1659434412.942446,11124
1659434412.987212,11143
1659434413.031977,11168
1659434413.069907,11175
1659434413.107838,11142
1659434413.145769,11085
1659434413.188313,11044
1659434413.230857,11014
1659434413.269129,10994
1659434413.307402,10989
1659434413.345674,10998
1659434413.384288,11004
1659434413.422903,11014
1659434413.461517,11012
1659434413.500473,11020
1659434413.539428,11035
1659434413.578384,11057
1659434413.620416,11074
1659434413.662447,11104
1659434413.701061,11123
1659434413.739676,11137
1659434413.77829,11173
1659434413.820321,11186
1659434413.862352,11191
1659434413.906776,11148
1659434413.951199,11093
1659434413.995623,11062
1659434414.033895,11042
1659434414.072167,11032
1659434414.11044,11040
1659434414.151959,11064
1659434414.193477,11073
1659434414.232092,11088
1659434414.270706,11107
1659434414.30932,11131
1659434414.346738,11156
1659434414.384156,11176
1659434414.421574,11190
1659434414.458993,11211
1659434414.501024,11242
1659434414.543055,11264
1659434414.582695,11292
1659434414.622334,11313
1659434414.661973,11307
1659434414.703492,11269
1659434414.745011,11233
1659434414.789434,11207
1659434414.833858,11206
1659434414.878281,11203
1659434414.912111,11215
1659434414.945941,11235
1659434414.990365,11244
1659434415.034788,11253
1659434415.079211,11277
1659434415.117826,11281
1659434415.15644,11300
1659434415.195054,11331
1659434415.236573,11341
1659434415.278091,11364
1659434415.316706,11381
1659434415.35532,11410
1659434415.393934,11419
1659434415.435965,11423
1659434415.477997,11389
1659434415.517294,11348
1659434415.556592,11325
1659434415.59589,11306
1659434415.635187,11310
1659434415.674485,11321
1659434415.713782,11327
1659434415.752055,11343
1659434415.790327,11348
1659434415.8286,11354
1659434415.873023,11364
1659434415.917447,11394
1659434415.96187,11409
1659434416.000484,11430
1659434416.039098,11449
1659434416.077713,11467
1659434416.119744,11489
1659434416.161775,11515
1659434416.200389,11528
1659434416.239003,11504
1659434416.277618,11467
1659434416.318624,11433
1659434416.35963,11419
1659434416.397561,11393
1659434416.435492,11396
1659434416.473422,11403
1659434416.51272,11414
1659434416.552017,11422
1659434416.591315,11424
1659434416.632834,11437
1659434416.674353,11450
1659434416.712967,11479
1659434416.751581,11482
1659434416.790195,11504
1659434416.832739,11525
1659434416.875283,11542
1659434416.914239,11563
1659434416.953195,11573
1659434416.992151,11569
1659434417.033669,11517
1659434417.075188,11471
1659434417.114828,11436
1659434417.154467,11411
1659434417.194106,11410
1659434417.235112,11407
1659434417.276119,11418
1659434417.314391,11426
1659434417.352664,11419
1659434417.390936,11427
1659434417.435359,11436
1659434417.479783,11445
1659434417.524206,11462
1659434417.557524,11487
1659434417.590841,11503
1659434417.634581,11527
1659434417.678321,11540
1659434417.722061,11552
1659434417.7617,11569
1659434417.80134,11541
1659434417.840979,11491
1659434417.882498,11450
1659434417.924017,11420
1659434417.963998,11406
1659434418.003979,11390
1659434418.04396,11397
1659434418.083941,11401
1659434418.123922,11406
1659434418.163903,11410
1659434418.203884,11418
1659434418.243865,11415
1659434418.282138,11437
1659434418.32041,11448
1659434418.358682,11470
1659434418.400714,11486
1659434418.442745,11497
1659434418.484776,11522
1659434418.526808,11535
1659434418.567302,11515
1659434418.607795,11483
1659434418.646068,11431
1659434418.68434,11396
1659434418.722613,11383
1659434418.76191,11378
1659434418.801208,11374
1659434418.840505,11390
1659434418.882024,11397
1659434418.923543,11400
1659434418.962499,11403
1659434419.001455,11411
1659434419.040411,11430
1659434419.084834,11441
1659434419.129257,11457
1659434419.173681,11471
1659434419.206998,11501
1659434419.240316,11503
1659434419.284056,11522
1659434419.327796,11489
1659434419.371536,11441
1659434419.405366,11402
1659434419.439196,11373
1659434419.483278,11351
1659434419.527359,11341
1659434419.571441,11351
1659434419.610055,11349
1659434419.648669,11353
1659434419.687284,11353
1659434419.725556,11358
1659434419.763828,11371
1659434419.802101,11383
1659434419.841057,11399
1659434419.880013,11417
1659434419.918968,11430
1659434419.960487,11449
1659434420.002006,11471
1659434420.04062,11473
1659434420.079234,11445
1659434420.117849,11396
1659434420.15988,11349
1659434420.201911,11303
1659434420.240525,11295
1659434420.27914,11277
1659434420.317754,11281
1659434420.359785,11286
1659434420.401817,11293
1659434420.441456,11299
1659434420.481095,11303
1659434420.520735,11307
1659434420.561228,11320
1659434420.601722,11341
1659434420.646145,11357
1659434420.690568,11377
1659434420.734992,11389
1659434420.769335,11400
1659434420.803677,11409
1659434420.847759,11394
1659434420.891841,11346
1659434420.935922,11295
1659434420.974536,11271
1659434421.013151,11249
1659434421.051765,11238
1659434421.094309,11249
1659434421.136853,11250
1659434421.175467,11269
1659434421.214081,11261
1659434421.252695,11265
1659434421.294727,11275
1659434421.336758,11286
1659434421.376397,11307
1659434421.416037,11319
1659434421.455676,11341
1659434421.493948,11358
1659434421.532221,11379
1659434421.570493,11392
1659434421.610987,11383
1659434421.65148,11343
1659434421.690436,11292
1659434421.729392,11264
1659434421.768348,11239
1659434421.807304,11234
1659434421.84626,11229
1659434421.885216,11243
1659434421.926735,11247
1659434421.968253,11245
1659434422.00926,11263
1659434422.050266,11275
1659434422.089222,11286
1659434422.128178,11307
1659434422.167134,11320
1659434422.211215,11339
1659434422.255297,11365
1659434422.299378,11383
1659434422.333721,11388
1659434422.368064,11366
1659434422.412487,11319
1659434422.456911,11288
1659434422.501334,11274
1659434422.534139,11265
1659434422.566944,11266
1659434422.611367,11278
1659434422.655791,11289
1659434422.700214,11291
1659434422.73917,11298
1659434422.778126,11307
1659434422.817082,11326
1659434422.857575,11341
1659434422.898069,11354
1659434422.937025,11379
1659434422.975981,11387
1659434423.014937,11411
1659434423.055943,11421
1659434423.096949,11422
1659434423.135905,11381
1659434423.174861,11331
1659434423.213817,11305
1659434423.252431,11277
1659434423.291045,11267
1659434423.329659,11272
1659434423.371178,11275
1659434423.412697,11288
1659434423.451311,11283
1659434423.489925,11293
1659434423.528539,11298
1659434423.571083,11310
1659434423.613627,11319
1659434423.652583,11337
1659434423.691539,11362
1659434423.730495,11371
1659434423.772526,11391
1659434423.814558,11399
1659434423.853172,11407
1659434423.891786,11379
1659434423.9304,11323
1659434423.975165,11281
1659434424.01993,11255
1659434424.064696,11238
1659434424.098526,11227
1659434424.132356,11243
1659434424.176437,11240
1659434424.220519,11236
1659434424.264601,11246
1659434424.303215,11243
1659434424.341829,11254
1659434424.380443,11259
1659434424.422475,11270
1659434424.464506,11285
1659434424.50312,11298
1659434424.541734,11305
1659434424.580348,11319
1659434424.622892,11333
1659434424.665436,11321
1659434424.704392,11293
1659434424.743348,11234
1659434424.782304,11188
1659434424.82126,11166
1659434424.860216,11147
1659434424.899172,11148
1659434424.938128,11150
1659434424.977083,11162
1659434425.016039,11159
1659434425.059779,11156
1659434425.103519,11166
1659434425.147259,11171
1659434425.188266,11196
1659434425.229272,11202
1659434425.268569,11214
1659434425.307867,11228
1659434425.347164,11246
1659434425.388171,11251
1659434425.429177,11264
1659434425.468133,11208
1659434425.507089,11161
1659434425.546045,11130
1659434425.585342,11103
1659434425.62464,11092
1659434425.663937,11087
1659434425.705969,11103
1659434425.748,11103
1659434425.786273,11110
1659434425.824545,11118
1659434425.862818,11123
1659434425.904336,11154
1659434425.945855,11159
1659434425.984811,11171
1659434426.023767,11181
1659434426.062723,11200
1659434426.100653,11220
1659434426.138584,11231
1659434426.176515,11209
1659434426.219571,11156
1659434426.262628,11116
1659434426.301242,11080
1659434426.339856,11066
1659434426.37847,11057
1659434426.418964,11046
1659434426.459458,11066
1659434426.503881,11059
1659434426.548305,11061
1659434426.592728,11052
1659434426.626558,11071
1659434426.660388,11094
1659434426.704812,11125
1659434426.749235,11134
1659434426.793658,11159
1659434426.826976,11179
1659434426.860293,11197
1659434426.9054,11209
1659434426.950507,11192
1659434426.995614,11139
1659434427.033886,11072
1659434427.072159,11034
1659434427.110431,10994
1659434427.152975,10976
1659434427.195519,10980
1659434427.234817,10989
1659434427.274114,10986
1659434427.313412,10992
1659434427.354418,11006
1659434427.395424,11019
1659434427.434038,11037
1659434427.472653,11056
1659434427.511267,11070
1659434427.549881,11087
1659434427.588495,11103
1659434427.627109,11116
1659434427.668628,11140
1659434427.710147,11132
1659434427.749103,11097
1659434427.788059,11029
1659434427.827014,10975
1659434427.869046,10947
1659434427.911077,10924
1659434427.949692,10918
1659434427.988306,10923
1659434428.02692,10927
1659434428.068951,10929
1659434428.110982,10930
1659434428.15028,10942
1659434428.189578,10944
1659434428.228875,10950
1659434428.269369,10960
1659434428.309863,10971
1659434428.348477,10994
1659434428.387091,11020
1659434428.425705,11036
1659434428.470129,11046
1659434428.514552,10999
1659434428.558975,10950
1659434428.592805,10922
1659434428.626636,10896
1659434428.670375,10882
1659434428.714115,10897
1659434428.757855,10908
1659434428.799887,10913
1659434428.841918,10919
1659434428.880874,10932
1659434428.91983,10944
1659434428.958786,10965
1659434428.997742,10977
1659434429.036698,10998
1659434429.075653,11012
1659434429.117172,11037
1659434429.158691,11056
1659434429.197305,11063
1659434429.235919,11038
1659434429.274534,10981
1659434429.313489,10951
1659434429.352445,10918
1659434429.391401,10915
1659434429.433433,10918
1659434429.475464,10935
1659434429.51442,10953
1659434429.553376,10955
1659434429.592332,10967
1659434429.633338,10975
1659434429.674344,11004
1659434429.712616,11020
1659434429.750889,11041
1659434429.789161,11067
1659434429.832218,11086
1659434429.875274,11118
1659434429.913547,11134
1659434429.951819,11152
1659434429.990092,11157
1659434430.03161,11123
1659434430.073129,11083
1659434430.112769,11045
1659434430.152408,11042
1659434430.192047,11034
1659434430.236129,11043
1659434430.28021,11058
1659434430.324292,11068
1659434430.363248,11075
1659434430.402204,11088
1659434430.44116,11101
1659434430.483704,11115
1659434430.526248,11138
1659434430.564862,11154
1659434430.603476,11183
1659434430.64209,11191
1659434430.680363,11208
1659434430.718635,11227
1659434430.756908,11233
1659434430.798939,11201
1659434430.840971,11145
1659434430.879243,11115
1659434430.917515,11099
1659434430.955788,11097
1659434430.997307,11102
1659434431.038825,11109
1659434431.078465,11121
1659434431.118104,11123
1659434431.157743,11130
1659434431.19875,11143
1659434431.239756,11161
1659434431.27837,11176
1659434431.316984,11202
1659434431.355598,11219
1659434431.398142,11237
1659434431.440686,11266
1659434431.479642,11275
1659434431.518598,11292
1659434431.557554,11284
1659434431.601294,11227
1659434431.645034,11175
1659434431.688774,11146
1659434431.730292,11122
1659434431.771811,11111
1659434431.810767,11111
1659434431.849723,11119
1659434431.888679,11119
1659434431.930198,11128
1659434431.971716,11137
1659434432.010331,11145
1659434432.048945,11165
1659434432.087559,11177
1659434432.126515,11208
1659434432.165471,11212
1659434432.204427,11230
1659434432.245433,11241
1659434432.286439,11268
1659434432.326078,11280
1659434432.365718,11276
1659434432.405357,11236
1659434432.446876,11180
1659434432.488394,11142
1659434432.527009,11110
1659434432.565623,11095
1659434432.604237,11100
1659434432.643535,11103
1659434432.682832,11111
1659434432.72213,11107
1659434432.764674,11112
1659434432.807218,11107
1659434432.84549,11130
1659434432.883763,11140
1659434432.922035,11148
1659434432.963554,11165
1659434433.005073,11179
1659434433.044029,11193
1659434433.082984,11211
1659434433.12194,11234
1659434433.164484,11248
1659434433.207028,11266
1659434433.25111,11225
1659434433.295192,11167
1659434433.339273,11118
1659434433.372078,11081
1659434433.404883,11067
1659434433.449306,11068
1659434433.49373,11072
1659434433.538153,11075
1659434433.577109,11092
1659434433.616065,11095
1659434433.655021,11104
1659434433.697565,11132
1659434433.740109,11146
1659434433.779065,11159
1659434433.818021,11167
1659434433.856977,11186
1659434433.897983,11208
1659434433.938989,11226
1659434433.977945,11240
1659434434.016901,11262
1659434434.055857,11285
1659434434.094471,11267
1659434434.133085,11235
1659434434.171699,11175
1659434434.213731,11145
1659434434.255762,11136
1659434434.294376,11131
1659434434.33299,11135
1659434434.371604,11141
1659434434.413636,11146
1659434434.455667,11148
1659434434.494281,11165
1659434434.532896,11175
1659434434.57151,11185
1659434434.613541,11213
1659434434.655572,11224
1659434434.69487,11251
1659434434.734168,11264
1659434434.773465,11285
1659434434.814471,11307
1659434434.855478,11333
1659434434.893408,11351
1659434434.931339,11344
1659434434.96927,11313
1659434435.013351,11261
1659434435.057433,11221
1659434435.101515,11203
1659434435.135345,11186
1659434435.169175,11197
1659434435.213257,11207
1659434435.257338,11211
1659434435.30142,11213
1659434435.340205,11232
1659434435.37899,11232
1659434435.417775,11251
1659434435.45656,11256
1659434435.495345,11272
1659434435.53413,11300
1659434435.575649,11315
1659434435.617168,11335
1659434435.657149,11355
1659434435.69713,11372
1659434435.737111,11392
1659434435.775383,11400
1659434435.813656,11419
1659434435.851928,11387
1659434435.89396,11340
1659434435.935991,11297
1659434435.975289,11272
1659434436.014586,11259
1659434436.053884,11250
1659434436.095915,11253
1659434436.137947,11262
1659434436.182028,11264
1659434436.22611,11265
1659434436.270192,11278
1659434436.303509,11285
1659434436.336827,11296
1659434436.380908,11317
1659434436.42499,11332
1659434436.469072,11348
1659434436.507344,11372
1659434436.545617,11390
1659434436.583889,11398
1659434436.626945,11425
1659434436.670002,11436
1659434436.708616,11456
1659434436.747231,11446
1659434436.785845,11413
1659434436.8248,11371
1659434436.863756,11336
1659434436.902712,11317
1659434436.944744,11307
1659434436.986775,11315
1659434437.025389,11318
1659434437.064003,11328
1659434437.102618,11323
1659434437.141232,11323
1659434437.179846,11339
1659434437.21846,11345
1659434437.261004,11360
1659434437.303548,11374
1659434437.34182,11390
1659434437.380093,11408
1659434437.418365,11435
1659434437.459372,11448
1659434437.500378,11461
1659434437.545143,11488
1659434437.589908,11507
1659434437.634673,11519
1659434437.66799,11505
1659434437.701308,11468
1659434437.74539,11429
1659434437.789471,11410
1659434437.833553,11407
1659434437.866871,11389
1659434437.900188,11401
1659434437.944953,11406
1659434437.989718,11396
1659434438.034483,11403
1659434438.073098,11391
1659434438.111712,11405
1659434438.150326,11410
1659434438.19287,11425
1659434438.235414,11439
1659434438.274028,11453
1659434438.312642,11467
1659434438.351256,11488
1659434438.39175,11497
1659434438.432244,11505
1659434438.470858,11530
1659434438.509472,11529
1659434438.548086,11507
1659434438.587384,11464
1659434438.626681,11428
1659434438.665979,11407
1659434438.704593,11385
1659434438.743207,11382
1659434438.781821,11375
1659434438.826586,11387
1659434438.871352,11381
1659434438.916117,11376
1659434438.955073,11377
1659434438.994029,11386
1659434439.032984,11388
1659434439.073991,11399
1659434439.114997,11410
1659434439.153953,11414
1659434439.192909,11438
1659434439.231864,11443
1659434439.273896,11461
1659434439.315927,11479
1659434439.354883,11477
1659434439.393839,11491
1659434439.432795,11495
1659434439.471409,11450
1659434439.510023,11393
1659434439.548637,11355
1659434439.590669,11332
1659434439.6327,11303
1659434439.670973,11303
1659434439.709245,11290
1659434439.747518,11294
1659434439.789549,11282
1659434439.83158,11277
1659434439.870878,11271
1659434439.910176,11282
1659434439.949473,11284
1659434439.990479,11291
1659434440.031486,11310
1659434440.0701,11314
1659434440.108714,11337
1659434440.147328,11346
1659434440.190385,11350
1659434440.233441,11370
1659434440.272055,11375
1659434440.310669,11391
1659434440.349283,11393
1659434440.393707,11362
1659434440.43813,11317
1659434440.482554,11272
1659434440.515871,11238
1659434440.549189,11210
1659434440.592929,11206
1659434440.636669,11198
1659434440.680409,11192
1659434440.719023,11205
1659434440.757637,11193
1659434440.796251,11193
1659434440.838283,11201
1659434440.880314,11217
1659434440.918245,11213
1659434440.956175,11241
1659434440.994106,11240
1659434441.033062,11257
1659434441.072018,11276
1659434441.110974,11290
1659434441.153005,11299
1659434441.195036,11316
1659434441.233651,11323
1659434441.272265,11340
1659434441.310879,11349
1659434441.351885,11329
1659434441.392891,11277
1659434441.432189,11239
1659434441.471487,11204
1659434441.510784,11179
1659434441.552816,11171
1659434441.594847,11167
1659434441.633119,11159
1659434441.671392,11169
1659434441.709664,11158
1659434441.754088,11153
1659434441.798511,11165
1659434441.842934,11166
1659434441.875739,11187
1659434441.908544,11187
1659434441.952284,11195
1659434441.996024,11219
1659434442.039764,11232
1659434442.082821,11243
1659434442.125877,11250
1659434442.164833,11264
1659434442.203789,11283
1659434442.242745,11291
1659434442.281701,11276
1659434442.320657,11233
1659434442.359613,11192
1659434442.401131,11150
1659434442.44265,11129
1659434442.481606,11101
1659434442.520562,11106
1659434442.559518,11104
1659434442.601037,11116
1659434442.642555,11105
1659434442.681511,11104
1659434442.720467,11116
1659434442.759423,11119
1659434442.798037,11128
1659434442.836651,11148
1659434442.875266,11158
1659434442.916272,11173
1659434442.957278,11191
1659434442.995892,11202
1659434443.034506,11215
1659434443.073121,11234
1659434443.115664,11241
1659434443.158208,11266
1659434443.196823,11271
1659434443.235437,11257
1659434443.274051,11208
1659434443.31557,11158
1659434443.357089,11113
1659434443.396386,11076
1659434443.435684,11063
1659434443.474981,11050
1659434443.517013,11059
1659434443.559044,11056
1659434443.603126,11048
1659434443.647207,11050
1659434443.691289,11045
1659434443.730587,11049
1659434443.769884,11054
1659434443.809182,11072
1659434443.849675,11084
1659434443.890169,11097
1659434443.928783,11104
1659434443.967397,11112
1659434444.006012,11130
1659434444.048043,11135
1659434444.090074,11147
1659434444.128689,11159
1659434444.167303,11173
1659434444.205917,11182
1659434444.244189,11163
1659434444.282462,11106
1659434444.320734,11041
1659434444.362253,11007
1659434444.403772,10968
1659434444.443411,10950
1659434444.48305,10941
1659434444.52269,10938
1659434444.560962,10943
1659434444.599235,10932
1659434444.637507,10938
1659434444.679538,10938
1659434444.72157,10954
1659434444.761209,10967
1659434444.800848,10984
1659434444.840488,10997
1659434444.882007,11009
1659434444.923525,11032
1659434444.964532,11046
1659434445.005538,11064
1659434445.044494,11077
1659434445.08345,11107
1659434445.122406,11124
1659434445.166146,11133
1659434445.209885,11154
1659434445.253625,11141
1659434445.286943,11084
1659434445.320261,11036
1659434445.365367,10989
1659434445.410474,10957
1659434445.455581,10941
1659434445.494195,10929
1659434445.532809,10941
1659434445.571424,10938
1659434445.612942,10947
1659434445.654461,10955
1659434445.6941,10965
1659434445.73374,10972
1659434445.773379,10990
1659434445.81336,11007
1659434445.853341,11020
1659434445.893322,11039
1659434445.933303,11054
1659434445.973284,11065
1659434446.012923,11084
1659434446.052563,11102
1659434446.092202,11109
1659434446.130475,11137
1659434446.168747,11142
1659434446.20702,11145
1659434446.248538,11114
1659434446.290057,11056
1659434446.329013,11003
1659434446.367969,10980
1659434446.406925,10953
1659434446.450665,10931
1659434446.494405,10935
1659434446.538145,10934
1659434446.579664,10938
1659434446.621182,10938
1659434446.66048,10932
1659434446.699777,10935
1659434446.739075,10945
1659434446.777348,10960
1659434446.81562,10965
1659434446.853892,10985
1659434446.895924,10998
1659434446.937955,11007
1659434446.976911,11020
1659434447.015867,11027
1659434447.054823,11054
1659434447.096342,11062
1659434447.13786,11066
1659434447.176133,11060
1659434447.214405,11007
1659434447.252678,10937
1659434447.291634,10892
1659434447.33059,10851
1659434447.369545,10819
1659434447.411064,10806
1659434447.452583,10797
1659434447.491197,10789
1659434447.529811,10802
1659434447.568425,10791
1659434447.609944,10809
1659434447.651463,10822
1659434447.690419,10841
1659434447.729375,10848
1659434447.768331,10869
1659434447.80985,10864
1659434447.851368,10878
1659434447.896475,10887
1659434447.941582,10897
1659434447.986689,10906
1659434448.019494,10911
1659434448.052299,10928
1659434448.096722,10938
1659434448.141145,10938
1659434448.185569,10886
1659434448.224183,10801
1659434448.262797,10744
1659434448.301411,10695
1659434448.343443,10668
1659434448.385474,10642
1659434448.423747,10645
1659434448.462019,10637
1659434448.500291,10635
1659434448.54181,10633
1659434448.583329,10637
1659434448.621943,10639
1659434448.660557,10649
1659434448.699172,10673
1659434448.738469,10672
1659434448.777767,10680
1659434448.817064,10699
1659434448.859096,10711
1659434448.901127,10723
1659434448.940766,10736
1659434448.980406,10746
1659434449.020045,10753
1659434449.061051,10783
1659434449.102057,10790
1659434449.141013,10784
1659434449.179969,10749
1659434449.218925,10681
1659434449.258223,10629
1659434449.29752,10598
1659434449.336818,10577
1659434449.378337,10569
1659434449.419856,10584
1659434449.460349,10590
1659434449.500843,10591
1659434449.539799,10600
1659434449.578754,10612
1659434449.61771,10626
1659434449.66145,10639
1659434449.70519,10659
1659434449.74893,10678
1659434449.782248,10700
1659434449.815565,10715
1659434449.859647,10732
1659434449.903729,10755
1659434449.94781,10769
1659434449.987108,10794
1659434450.026406,10807
1659434450.065703,10825
1659434450.106709,10846
1659434450.147716,10840
1659434450.187013,10793
1659434450.226311,10736
1659434450.265608,10694
1659434450.30764,10673
1659434450.349671,10671
1659434450.387944,10662
1659434450.426216,10668
1659434450.464489,10693
1659434450.503444,10699
1659434450.5424,10707
1659434450.581356,10713
1659434450.622362,10733
1659434450.663368,10747
1659434450.701983,10772
1659434450.740597,10785
1659434450.779211,10808
1659434450.82073,10819
1659434450.862249,10829
1659434450.900521,10843
1659434450.938794,10860
1659434450.977066,10879
1659434451.018072,10876
1659434451.059078,10900
1659434451.10111,10915
1659434451.143141,10897
1659434451.185173,10855
1659434451.227204,10804
1659434451.269748,10775
1659434451.312292,10746
1659434451.350564,10736
1659434451.388837,10739
1659434451.427109,10755
1659434451.469653,10768
1659434451.512197,10776
1659434451.550811,10782
1659434451.589425,10789
1659434451.62804,10823
1659434451.666654,10828
1659434451.705268,10840
1659434451.743882,10863
1659434451.786426,10885
1659434451.82897,10899
1659434451.867926,10910
1659434451.906882,10929
1659434451.945837,10939
1659434451.986331,10973
1659434452.026825,10982
1659434452.066122,10994
1659434452.10542,11017
1659434452.144718,11021
1659434452.184015,10989
1659434452.223313,10942
1659434452.26261,10896
1659434452.304642,10865
1659434452.346673,10862
1659434452.387679,10852
1659434452.428686,10852
1659434452.467641,10862
1659434452.506597,10854
1659434452.545553,10853
1659434452.587584,10857
1659434452.629616,10862
1659434452.66823,10879
1659434452.706844,10890
1659434452.745459,10911
1659434452.789882,10925
1659434452.834305,10941
1659434452.878729,10950
1659434452.911534,10973
1659434452.944339,10985
1659434452.988079,10988
1659434453.031818,11020
1659434453.075558,11024
1659434453.114514,11035
1659434453.15347,11051
1659434453.192426,11056
1659434453.233945,11025
1659434453.275464,10979
1659434453.31442,10919
1659434453.353375,10893
1659434453.392331,10886
1659434453.43385,10871
1659434453.475369,10869
1659434453.514325,10855
1659434453.553281,10857
1659434453.592237,10850
1659434453.631192,10875
1659434453.670148,10870
1659434453.709104,10882
1659434453.750623,10903
1659434453.792142,10909
1659434453.831098,10921
1659434453.870054,10932
1659434453.909009,10948
1659434453.949503,10962
1659434453.989997,10976
1659434454.028953,10987
1659434454.067909,11000
1659434454.106864,11023
1659434454.148896,11031
1659434454.190927,11048
1659434454.228858,11009
1659434454.266788,10947
1659434454.304719,10887
1659434454.346238,10860
1659434454.387757,10841
1659434454.427738,10822
1659434454.467719,10819
1659434454.5077,10823
1659434454.552123,10823
1659434454.596547,10819
1659434454.64097,10812
1659434454.682489,10822
1659434454.724008,10818
1659434454.763647,10830
1659434454.803286,10832
1659434454.842926,10841
1659434454.883932,10848
1659434454.924938,10874
1659434454.963894,10870
1659434455.00285,10878
1659434455.041806,10895
1659434455.081103,10899
1659434455.120401,10908
1659434455.159699,10918
1659434455.201217,10915
1659434455.242736,10862
1659434455.280667,10795
1659434455.318598,10747
1659434455.356529,10703
1659434455.399585,10674
1659434455.442641,10665
1659434455.481597,10660
1659434455.520553,10665
1659434455.559509,10652
1659434455.598465,10647
1659434455.637421,10649
1659434455.676377,10655
1659434455.717896,10664
1659434455.759414,10680
1659434455.79837,10683
1659434455.837326,10706
1659434455.876282,10722
1659434455.917801,10719
1659434455.95932,10733
1659434456.004085,10748
1659434456.04885,10759
1659434456.093615,10768
1659434456.125907,10778
1659434456.1582,10801
1659434456.20194,10786
1659434456.24568,10739
1659434456.289419,10675
1659434456.327094,10629
1659434456.364769,10589
1659434456.402443,10570
1659434456.440117,10563
1659434456.47839,10553
1659434456.516662,10551
1659434456.554935,10546
1659434456.596966,10548
1659434456.638997,10546
1659434456.677953,10559
1659434456.716909,10572
1659434456.755865,10579
1659434456.797384,10594
1659434456.838903,10611
1659434456.882984,10624
1659434456.927066,10635
1659434456.971148,10648
1659434457.00549,10662
1659434457.039833,10681
1659434457.084598,10694
1659434457.129363,10706
1659434457.174128,10730
1659434457.212401,10723
1659434457.250673,10686
1659434457.288946,10626
1659434457.330464,10586
1659434457.371983,10557
1659434457.410597,10542
1659434457.449212,10528
1659434457.487826,10520
1659434457.529345,10527
1659434457.570863,10528
1659434457.609819,10526
1659434457.648775,10541
1659434457.687731,10558
1659434457.726687,10569
1659434457.765643,10592
1659434457.804599,10604
1659434457.846117,10624
1659434457.887636,10640
1659434457.926934,10653
1659434457.966232,10658
1659434458.005529,10667
1659434458.048073,10684
1659434458.090617,10700
1659434458.129573,10713
1659434458.168529,10736
1659434458.207485,10749
1659434458.248491,10711
1659434458.289497,10647
1659434458.328111,10597
1659434458.366725,10579
1659434458.405339,10553
1659434458.447371,10547
1659434458.489402,10542
1659434458.528016,10545
1659434458.566631,10553
1659434458.605245,10560
1659434458.649668,10569
1659434458.694092,10576
1659434458.738515,10582
1659434458.771832,10601
1659434458.80515,10627
1659434458.849232,10628
1659434458.893313,10649
1659434458.937395,10665
1659434458.976351,10667
1659434459.015307,10682
1659434459.054263,10689
1659434459.096294,10709
1659434459.138325,10712
1659434459.177281,10731
1659434459.216237,10725
1659434459.255193,10677
1659434459.295687,10621
1659434459.33618,10573
1659434459.375136,10553
1659434459.414092,10524
1659434459.453048,10519
1659434459.491662,10518
1659434459.530276,10528
1659434459.568891,10527
1659434459.610409,10531
1659434459.651928,10544
1659434459.690542,10538
1659434459.729156,10564
1659434459.767771,10565
1659434459.808264,10576
1659434459.848758,10598
1659434459.888056,10616
1659434459.927353,10623
1659434459.966651,10632
1659434460.008169,10654
1659434460.049688,10662
1659434460.087961,10688
1659434460.126233,10694
1659434460.164506,10708
1659434460.209271,10718
1659434460.254036,10675
1659434460.298801,10608
1659434460.332631,10550
1659434460.366461,10515
1659434460.410885,10488
1659434460.455308,10464
1659434460.499731,10467
1659434460.540738,10469
1659434460.581744,10472
1659434460.621041,10465
1659434460.660339,10463
1659434460.699636,10468
1659434460.737567,10470
1659434460.775498,10482
1659434460.813429,10492
1659434460.855973,10509
1659434460.898517,10515
1659434460.937473,10535
1659434460.976429,10547
1659434461.015384,10551
1659434461.056903,10567
1659434461.098422,10568
1659434461.137378,10592
1659434461.176334,10613
1659434461.21529,10635
1659434461.254587,10636
1659434461.293885,10593
1659434461.333182,10516
1659434461.374701,10455
1659434461.41622,10432
1659434461.455176,10402
1659434461.494132,10403
1659434461.533088,10401
1659434461.577853,10409
1659434461.622618,10420
1659434461.667383,10407
1659434461.705314,10410
1659434461.743244,10407
1659434461.781175,10429
1659434461.822694,10441
1659434461.864213,10463
1659434461.903169,10493
1659434461.942125,10513
1659434461.98108,10535
1659434462.022599,10547
1659434462.064118,10556
1659434462.103074,10581
1659434462.14203,10596
1659434462.180986,10600
1659434462.220283,10618
1659434462.259581,10626
1659434462.298878,10576
1659434462.339885,10522
1659434462.380891,10457
1659434462.420188,10416
1659434462.459486,10401
1659434462.498784,10384
1659434462.540815,10379
1659434462.582846,10381
1659434462.621119,10389
1659434462.659391,10387
1659434462.697664,10395
1659434462.738158,10410
1659434462.778651,10413
1659434462.817949,10425
1659434462.857246,10443
1659434462.896544,10448
1659434462.93755,10463
1659434462.978556,10473
1659434463.01717,10485
1659434463.055785,10503
1659434463.094399,10508
1659434463.138822,10527
1659434463.183246,10545
1659434463.227669,10552
1659434463.261499,10533
1659434463.295329,10460
1659434463.339411,10398
1659434463.383492,10364
1659434463.427574,10337
1659434463.466872,10327
1659434463.506169,10333
1659434463.545467,10343
1659434463.586986,10349
1659434463.628505,10354
1659434463.66746,10347
1659434463.706416,10352
1659434463.745372,10369
1659434463.784328,10377
1659434463.823284,10394
1659434463.86224,10409
1659434463.904784,10435
1659434463.947328,10437
1659434463.9856,10466
1659434464.023873,10460
1659434464.062145,10480
1659434464.103151,10507
1659434464.144158,10516
1659434464.183113,10530
1659434464.222069,10527
1659434464.261025,10460
1659434464.302544,10380
1659434464.344063,10335
1659434464.382677,10297
1659434464.421291,10276
1659434464.459905,10275
1659434464.502449,10278
1659434464.544993,10287
1659434464.583949,10277
1659434464.622905,10269
1659434464.661861,10276
1659434464.706284,10289
1659434464.750708,10299
1659434464.795131,10310
1659434464.829474,10331
1659434464.863816,10343
1659434464.907898,10361
1659434464.95198,10365
1659434464.996061,10380
1659434465.037068,10400
1659434465.078074,10411
1659434465.11703,10411
1659434465.155986,10436
1659434465.194942,10445
1659434465.233214,10419
1659434465.271486,10365
1659434465.309759,10293
1659434465.351278,10238
1659434465.392797,10222
1659434465.432436,10196
1659434465.472075,10192
1659434465.511714,10197
1659434465.552721,10202
1659434465.593727,10209
1659434465.631999,10207
1659434465.670272,10218
1659434465.708544,10232
1659434465.748183,10256
1659434465.787823,10273
1659434465.827462,10290
1659434465.868468,10314
1659434465.909475,10318
1659434465.947747,10330
1659434465.986019,10344
1659434466.024292,10353
1659434466.065811,10355
1659434466.107329,10375
1659434466.146627,10404
1659434466.185925,10424
1659434466.225222,10377
1659434466.265716,10302
1659434466.30621,10272
1659434466.350975,10237
1659434466.39574,10221
1659434466.440505,10217
1659434466.479119,10231
1659434466.517733,10243
1659434466.556347,10248
1659434466.597354,10240
1659434466.63836,10250
1659434466.678341,10263
1659434466.718322,10288
1659434466.758303,10304
1659434466.797088,10331
1659434466.835873,10363
1659434466.874658,10385
1659434466.913443,10407
1659434466.952228,10428
1659434466.991013,10445
1659434467.030311,10473
1659434467.069608,10493
1659434467.108906,10498
1659434467.149912,10507
1659434467.190918,10447
1659434467.233462,10364
1659434467.276006,10301
1659434467.31462,10263
1659434467.353235,10240
1659434467.391849,10238
1659434467.433367,10250
1659434467.474886,10245
1659434467.513159,10263
1659434467.551431,10252
1659434467.589704,10255
1659434467.634469,10283
1659434467.679234,10304
1659434467.723999,10331
1659434467.757829,10354
1659434467.791659,10384
1659434467.836083,10408
1659434467.880506,10428
1659434467.924929,10445
1659434467.963885,10461
1659434468.002841,10487
1659434468.041797,10503
1659434468.083828,10512
1659434468.12586,10531
1659434468.164132,10538
1659434468.202405,10504
1659434468.240677,10426
1659434468.282708,10346
1659434468.32474,10306
1659434468.363354,10291
1659434468.401968,10278
1659434468.440582,10287
1659434468.479538,10299
1659434468.518494,10293
1659434468.55745,10300
1659434468.597944,10299
1659434468.638437,10309
1659434468.678077,10329
1659434468.717716,10362
1659434468.757355,10371
1659434468.798874,10402
1659434468.840393,10404
1659434468.878665,10422
1659434468.916938,10452
1659434468.95521,10459
1659434468.997241,10471
1659434469.039273,10489
1659434469.078912,10505
1659434469.118551,10515
1659434469.158191,10554
1659434469.199197,10536
1659434469.240203,10464
1659434469.284285,10387
1659434469.328367,10333
1659434469.372448,10306
1659434469.411404,10292
1659434469.45036,10274
1659434469.489316,10286
1659434469.52981,10294
1659434469.570303,10307
1659434469.609601,10298
1659434469.648899,10316
1659434469.688196,10335
1659434469.727152,10352
1659434469.766108,10361
1659434469.805064,10377
1659434469.845557,10392
1659434469.886051,10409
1659434469.925349,10419
1659434469.964646,10423
1659434470.003944,10444
1659434470.045975,10452
1659434470.088006,10474
1659434470.126621,10485
1659434470.165235,10487
1659434470.203849,10445
1659434470.243147,10369
1659434470.282444,10307
1659434470.321742,10266
1659434470.363773,10259
1659434470.405805,10239
1659434470.444077,10258
1659434470.48235,10261
1659434470.520622,10263
1659434470.563166,10276
1659434470.60571,10274
1659434470.644666,10283
1659434470.683622,10305
1659434470.722578,10311
1659434470.763071,10330
1659434470.803565,10347
1659434470.847646,10365
1659434470.891728,10374
1659434470.93581,10389
1659434470.970152,10402
1659434471.004495,10404
1659434471.048918,10425
1659434471.093342,10419
1659434471.137765,10360
1659434471.176721,10275
1659434471.215677,10216
1659434471.254633,10176
1659434471.296664,10152
1659434471.338696,10146
1659434471.37731,10157
1659434471.415924,10186
1659434471.454538,10183
1659434471.496057,10188
1659434471.537576,10202
1659434471.576532,10206
1659434471.615488,10228
1659434471.654444,10247
1659434471.692374,10270
1659434471.730305,10290
1659434471.768236,10303
1659434471.809242,10319
1659434471.850248,10335
1659434471.888862,10353
1659434471.927476,10357
1659434471.966091,10384
1659434472.005388,10378
1659434472.044686,10331
1659434472.083983,10252
1659434472.125246,10194
1659434472.166508,10151
1659434472.207771,10136
1659434472.249033,10128
1659434472.287989,10141
1659434472.326945,10169
1659434472.365901,10166
1659434472.407933,10165
1659434472.449964,10179
1659434472.48892,10192
1659434472.527876,10210
1659434472.566832,10225
1659434472.60835,10261
1659434472.649869,10281
1659434472.688825,10313
1659434472.727781,10332
1659434472.766737,10342
1659434472.808255,10364
1659434472.849774,10375
1659434472.88873,10391
1659434472.927686,10409
1659434472.966642,10403
1659434473.008161,10328
1659434473.04968,10272
1659434473.093761,10231
1659434473.137843,10217
1659434473.181925,10223
1659434473.221222,10228
1659434473.26052,10257
1659434473.299817,10271
1659434473.341336,10287
1659434473.382855,10300
1659434473.421811,10316
1659434473.460767,10340
1659434473.499722,10355
1659434473.541754,10394
1659434473.583785,10410
1659434473.622741,10449
1659434473.661697,10473
1659434473.700653,10484
1659434473.742684,10504
1659434473.784716,10531
1659434473.82333,10543
1659434473.861944,10559
1659434473.900558,10562
1659434473.939856,10525
1659434473.979153,10464
1659434474.018451,10430
1659434474.058945,10411
1659434474.099438,10407
1659434474.138736,10402
1659434474.178034,10419
1659434474.217331,10430
1659434474.256287,10437
1659434474.295243,10444
1659434474.334199,10450
1659434474.375205,10471
1659434474.416211,10492
1659434474.455167,10510
1659434474.494123,10548
1659434474.533079,10559
1659434474.575623,10582
1659434474.618167,10590
1659434474.662248,10601
1659434474.70633,10622
1659434474.750412,10636
1659434474.783729,10655
1659434474.817047,10665
1659434474.861129,10676
1659434474.90521,10652
1659434474.949292,10605
1659434474.987564,10548
1659434475.025837,10517
1659434475.064109,10498
1659434475.105628,10481
1659434475.147147,10495
1659434475.186444,10503
1659434475.225742,10520
1659434475.26504,10527
1659434475.305533,10542
1659434475.346027,10548
1659434475.384641,10566
1659434475.423255,10592
1659434475.461869,10605
1659434475.501167,10626
1659434475.540465,10644
1659434475.579762,10654
1659434475.621794,10672
1659434475.663825,10687
1659434475.702781,10698
1659434475.741737,10708
1659434475.780693,10730
1659434475.822211,10738
1659434475.86373,10757
1659434475.902003,10753
1659434475.940275,10699
1659434475.978548,10655
1659434476.021091,10616
1659434476.063635,10592
1659434476.10225,10578
1659434476.140864,10580
1659434476.179478,10582
1659434476.223901,10586
1659434476.268325,10584
1659434476.312748,10591
1659434476.345041,10603
1659434476.377333,10608
1659434476.422098,10615
1659434476.466863,10638
1659434476.511628,10649
1659434476.550584,10670
1659434476.58954,10675
1659434476.628496,10696
1659434476.670527,10704
1659434476.712559,10709
1659434476.751856,10733
1659434476.791154,10741
1659434476.830451,10762
1659434476.872483,10746
1659434476.914514,10693
1659434476.953128,10637
1659434476.991742,10589
1659434477.030357,10559
1659434477.069996,10536
1659434477.109635,10537
1659434477.149275,10546
1659434477.190793,10572
1659434477.232312,10575
1659434477.270585,10576
1659434477.308857,10592
1659434477.34713,10594
1659434477.388648,10623
1659434477.430167,10637
1659434477.471686,10650
1659434477.513205,10655
1659434477.551477,10678
1659434477.58975,10697
1659434477.628022,10711
1659434477.669541,10729
1659434477.71106,10741
1659434477.749674,10755
1659434477.788288,10778
1659434477.826902,10788
1659434477.866541,10784
1659434477.906181,10779
1659434477.94582,10722
1659434477.986826,10666
1659434478.027833,10642
1659434478.06713,10618
1659434478.106428,10619
1659434478.145725,10599
1659434478.186732,10618
1659434478.227738,10627
1659434478.271478,10627
1659434478.315217,10630
1659434478.358958,10625
1659434478.392788,10645
1659434478.426618,10648
1659434478.471041,10673
1659434478.515465,10678
1659434478.559888,10678
1659434478.598161,10695
1659434478.636433,10697
1659434478.674705,10715
1659434478.716737,10729
1659434478.758768,10748
1659434478.798407,10755
1659434478.838047,10776
1659434478.877686,10786
1659434478.919205,10778
1659434478.960724,10748
1659434478.999338,10695
1659434479.037952,10660
1659434479.076566,10643
1659434479.11911,10630
1659434479.161654,10624
1659434479.200268,10635
1659434479.238882,10649
1659434479.277497,10659
1659434479.316452,10668
1659434479.355408,10673
1659434479.394364,10663
1659434479.435883,10689
1659434479.477402,10693
1659434479.515674,10724
1659434479.553947,10728
1659434479.592219,10739
1659434479.631175,10754
1659434479.670131,10765
1659434479.709087,10773
1659434479.751631,10779
1659434479.794175,10792
1659434479.835181,10809
1659434479.876187,10815
1659434479.915143,10808
1659434479.954099,10765
1659434479.993055,10726
1659434480.035599,10705
1659434480.078143,10684
1659434480.116757,10668
1659434480.155371,10662
1659434480.193985,10675
1659434480.238067,10668
1659434480.282148,10676
1659434480.32623,10675
1659434480.36006,10692
1659434480.39389,10691
1659434480.437972,10697
1659434480.482054,10717
1659434480.526135,10721
1659434480.564749,10731
1659434480.603364,10748
1659434480.641978,10758
1659434480.684009,10774
1659434480.726041,10787
1659434480.764313,10792
1659434480.802586,10798
1659434480.840858,10811
1659434480.881351,10768
1659434480.921845,10727
1659434480.961143,10680
1659434481.00044,10661
1659434481.039738,10650
1659434481.078352,10662
1659434481.116966,10648
1659434481.155581,10637
1659434481.197612,10635
1659434481.239643,10619
1659434481.278599,10609
1659434481.317555,10606
1659434481.356511,10610
1659434481.39803,10620
1659434481.439548,10636
1659434481.477821,10654
1659434481.516093,10666
1659434481.554366,10679
1659434481.596397,10686
1659434481.638429,10709
1659434481.676701,10713
1659434481.714973,10720
1659434481.753246,10724
1659434481.797328,10733
1659434481.841409,10704
1659434481.885491,10651
1659434481.917783,10616
1659434481.950076,10574
1659434481.995183,10568
1659434482.040289,10542
1659434482.085396,10535
1659434482.126915,10545
1659434482.168434,10548
1659434482.207731,10538
1659434482.247029,10536
1659434482.286327,10548
1659434482.325283,10554
1659434482.364238,10581
1659434482.403194,10573
1659434482.445226,10593
1659434482.487257,10613
1659434482.526555,10618
1659434482.565852,10631
1659434482.60515,10636
1659434482.644926,10655
1659434482.684702,10659
1659434482.724478,10676
1659434482.764254,10682
1659434482.80403,10646
1659434482.845036,10600
1659434482.886042,10554
1659434482.925682,10536
1659434482.965321,10525
1659434483.00496,10514
1659434483.045966,10516
1659434483.086973,10525
1659434483.125245,10515
1659434483.163517,10515
1659434483.20179,10512
1659434483.241088,10514
1659434483.280385,10523
1659434483.319683,10532
1659434483.361714,10528
1659434483.403746,10541
1659434483.444752,10538
1659434483.485758,10550
1659434483.524372,10557
1659434483.562986,10565
1659434483.6016,10568
1659434483.646707,10560
1659434483.691814,10536
1659434483.736921,10473
1659434483.770238,10410
1659434483.803556,10380
1659434483.847638,10363
1659434483.891719,10355
1659434483.935801,10354
1659434483.969119,10349
1659434484.002436,10347
1659434484.046176,10354
1659434484.089916,10355
1659434484.133656,10358
1659434484.171928,10360
1659434484.210201,10369
1659434484.248473,10383
1659434484.291017,10379
1659434484.333561,10388
1659434484.372175,10397
1659434484.410789,10397
1659434484.449404,10398
1659434484.48836,10415
1659434484.527316,10431
1659434484.566271,10431
1659434484.608303,10422
1659434484.650334,10353
1659434484.688607,10295
1659434484.726879,10272
1659434484.765152,10252
1659434484.80667,10246
1659434484.848189,10252
1659434484.887487,10261
1659434484.926784,10278
1659434484.966082,10302
1659434485.006576,10310
1659434485.047069,10335
1659434485.085683,10343
1659434485.124297,10348
1659434485.162912,10349
1659434485.205456,10355
1659434485.247999,10368
1659434485.286614,10378
1659434485.325228,10402
1659434485.363842,10430
1659434485.408265,10450
1659434485.452689,10479
1659434485.497112,10496
1659434485.530942,10480
1659434485.564772,10413
1659434485.609538,10355
1659434485.654303,10338
1659434485.699068,10314
1659434485.740587,10303
1659434485.782105,10308
1659434485.821745,10322
1659434485.861384,10319
1659434485.901023,10328
1659434485.939637,10329
1659434485.978252,10335
1659434486.016866,10358
1659434486.057359,10368
1659434486.097853,10387
1659434486.136809,10391
1659434486.175765,10416
1659434486.214721,10430
1659434486.257265,10449
1659434486.299809,10450
1659434486.338081,10461
1659434486.376354,10482
1659434486.414626,10470
1659434486.45324,10416
1659434486.491854,10351
1659434486.530468,10329
1659434486.5725,10313
1659434486.614531,10316
1659434486.653145,10320
1659434486.69176,10318
1659434486.730374,10329
1659434486.771893,10324
1659434486.813411,10335
1659434486.852367,10342
1659434486.891323,10352
1659434486.930279,10372
1659434486.971798,10398
1659434487.013317,10429
1659434487.052614,10444
1659434487.091912,10462
1659434487.131209,10469
1659434487.171703,10487
1659434487.212197,10511
1659434487.256278,10525
1659434487.30036,10522
1659434487.344442,10468
1659434487.383056,10409
1659434487.42167,10369
1659434487.460284,10348
1659434487.50129,10344
1659434487.542297,10348
1659434487.581594,10366
1659434487.620892,10372
1659434487.660189,10390
1659434487.698804,10396
1659434487.737418,10404
1659434487.776032,10426
1659434487.818063,10428
1659434487.860095,10443
1659434487.900281,10464
1659434487.940467,10479
1659434487.980653,10491
1659434488.020839,10505
1659434488.061025,10530
1659434488.099981,10559
1659434488.138937,10590
1659434488.177893,10608
1659434488.219411,10575
1659434488.26093,10518
1659434488.299203,10460
1659434488.337475,10428
1659434488.375748,10409
1659434488.417779,10400
1659434488.45981,10399
1659434488.499108,10423
1659434488.538405,10420
1659434488.577703,10416
1659434488.618197,10438
1659434488.65869,10450
1659434488.697646,10457
1659434488.736602,10473
1659434488.775558,10495
1659434488.818614,10500
1659434488.861671,10514
1659434488.900627,10523
1659434488.939583,10528
1659434488.978539,10533
1659434489.019545,10531
1659434489.060551,10550
1659434489.099849,10544
1659434489.139146,10498
1659434489.178444,10427
1659434489.222526,10385
1659434489.266607,10353
1659434489.310689,10333
1659434489.344519,10337
1659434489.378349,10336
1659434489.422773,10363
1659434489.467196,10355
1659434489.511619,10353
1659434489.549892,10358
1659434489.588164,10368
1659434489.626437,10377
1659434489.66693,10394
1659434489.707424,10414
1659434489.746722,10426
1659434489.786019,10452
1659434489.825317,10461
1659434489.866836,10465
1659434489.908355,10490
1659434489.946969,10497
1659434489.985583,10495
1659434490.024197,10453
1659434490.063153,10389
1659434490.102109,10344
1659434490.141065,10322
1659434490.182583,10315
1659434490.224102,10306
1659434490.262716,10315
1659434490.301331,10326
1659434490.339945,10324
1659434490.382489,10328
1659434490.425033,10327
1659434490.463305,10329
1659434490.501577,10343
1659434490.53985,10362
1659434490.58359,10374
1659434490.62733,10393
1659434490.67107,10400
1659434490.703875,10399
1659434490.73668,10423
1659434490.780761,10424
1659434490.824843,10435
1659434490.868925,10421
1659434490.910444,10351
1659434490.951962,10282
1659434490.99126,10248
1659434491.030557,10230
1659434491.069855,10213
1659434491.108811,10216
1659434491.147767,10232
1659434491.186723,10232
1659434491.227729,10234
1659434491.268735,10244
1659434491.308374,10265
1659434491.348014,10268
1659434491.387653,10284
1659434491.429684,10300
1659434491.471716,10313
1659434491.509988,10332
1659434491.548261,10344
1659434491.586533,10368
1659434491.625489,10376
1659434491.664445,10395
1659434491.703401,10392
1659434491.745432,10370
1659434491.787464,10319
1659434491.826078,10249
1659434491.864692,10220
1659434491.903306,10199
1659434491.944312,10201
1659434491.985319,10200
1659434492.024616,10218
1659434492.063914,10225
1659434492.103211,10230
1659434492.145243,10246
1659434492.187274,10256
1659434492.22623,10270
1659434492.265186,10285
1659434492.304142,10312
1659434492.34566,10325
1659434492.387179,10347
1659434492.431603,10360
1659434492.476026,10381
1659434492.520449,10410
1659434492.559064,10425
1659434492.597678,10445
1659434492.636292,10451
1659434492.678836,10400
1659434492.72138,10346
1659434492.759652,10314
1659434492.797925,10299
1659434492.836197,10293
1659434492.877203,10301
1659434492.91821,10323
1659434492.956824,10331
1659434492.995438,10352
1659434493.034052,10356
1659434493.073008,10380
1659434493.111964,10396
1659434493.15092,10407
1659434493.192439,10430
1659434493.233957,10450
1659434493.275476,10456
1659434493.316995,10474
1659434493.358514,10493
1659434493.400033,10506
1659434493.439672,10528
1659434493.479311,10546
1659434493.51895,10537
1659434493.557223,10492
1659434493.595495,10423
1659434493.633768,10393
1659434493.676312,10384
1659434493.718856,10383
1659434493.757128,10379
1659434493.795401,10401
1659434493.833673,10408
1659434493.875192,10410
1659434493.916711,10418
1659434493.956008,10422
1659434493.995306,10429
1659434494.034604,10456
1659434494.072876,10465
1659434494.111148,10473
1659434494.149421,10496
1659434494.189914,10508
1659434494.230408,10511
1659434494.270047,10536
1659434494.309687,10549
1659434494.349326,10556
1659434494.391357,10547
1659434494.433389,10496
1659434494.472345,10431
1659434494.511301,10396
1659434494.550256,10376
1659434494.592288,10356
1659434494.634319,10361
1659434494.679084,10371
1659434494.72385,10376
1659434494.768615,10375
1659434494.801419,10381
1659434494.834224,10383
1659434494.878989,10400
1659434494.923755,10407
1659434494.96852,10410
1659434495.006792,10421
1659434495.045065,10427
1659434495.083337,10428
1659434495.123831,10450
1659434495.164324,10459
1659434495.20328,10484
1659434495.242236,10484
1659434495.281192,10486
1659434495.323736,10470
1659434495.36628,10399
1659434495.404894,10343
1659434495.443508,10299
1659434495.482122,10296
1659434495.52142,10279
1659434495.560718,10272
1659434495.600015,10283
1659434495.642047,10285
1659434495.684078,10294
1659434495.722692,10295
1659434495.761306,10302
1659434495.799921,10314
1659434495.841952,10328
1659434495.883983,10345
1659434495.923281,10373
1659434495.962579,10387
1659434496.001876,10401
1659434496.04237,10424
1659434496.082863,10443
1659434496.121477,10471
1659434496.160092,10490
1659434496.198706,10505
1659434496.24125,10512
1659434496.283794,10489
1659434496.322066,10433
1659434496.360339,10376
1659434496.398611,10355
1659434496.442351,10344
1659434496.486091,10350
1659434496.529831,10341
1659434496.563148,10352
1659434496.596466,10358
1659434496.640548,10355
1659434496.684629,10368
1659434496.728711,10372
1659434496.762541,10395
1659434496.796371,10418
1659434496.841136,10442
1659434496.885901,10462
1659434496.930666,10474
1659434496.969622,10496
1659434497.008578,10505
1659434497.047534,10518
1659434497.088028,10529
1659434497.128521,10544
1659434497.168161,10554
1659434497.2078,10562
1659434497.247439,10515
1659434497.288446,10445
1659434497.329452,10403
1659434497.368066,10373
1659434497.40668,10367
1659434497.445294,10364
1659434497.48425,10368
1659434497.523206,10369
1659434497.562162,10375
1659434497.604706,10378
1659434497.64725,10374
1659434497.685864,10394
1659434497.724478,10410
1659434497.763093,10413
1659434497.804611,10439
1659434497.84613,10440
1659434497.885769,10454
1659434497.925409,10468
1659434497.965048,10477
1659434498.007079,10486
1659434498.049111,10505
1659434498.087725,10515
1659434498.126339,10517
1659434498.164953,10496
1659434498.206985,10413
1659434498.249016,10373
1659434498.292756,10343
1659434498.336496,10333
1659434498.380236,10321
1659434498.420422,10345
1659434498.460608,10355
1659434498.500794,10356
1659434498.54098,10364
1659434498.581166,10374
1659434498.61978,10381
1659434498.658395,10397
1659434498.697009,10420
1659434498.738528,10437
1659434498.780046,10445
1659434498.819344,10458
1659434498.858641,10481
1659434498.897939,10499
1659434498.936553,10504
1659434498.975168,10528
1659434499.013782,10539
1659434499.0553,10551
1659434499.096819,10544
1659434499.136458,10479
1659434499.176098,10415
1659434499.215737,10371
1659434499.256231,10352
1659434499.296724,10342
1659434499.334655,10346
1659434499.372586,10353
1659434499.410517,10353
1659434499.449472,10365
1659434499.488428,10366
1659434499.527384,10375
1659434499.569416,10390
1659434499.611447,10399
1659434499.649719,10408
1659434499.687992,10430
1659434499.726264,10450
1659434499.767783,10457
1659434499.809302,10475
1659434499.854067,10478
1659434499.898832,10496
1659434499.943597,10517
1659434499.976402,10516
1659434500.009207,10486
1659434500.053972,10422
1659434500.098737,10367
1659434500.143502,10347
1659434500.182458,10342
1659434500.221414,10346
1659434500.26037,10351
1659434500.301376,10368
1659434500.342383,10368
1659434500.381338,10373
1659434500.420294,10365
1659434500.45925,10364
1659434500.501281,10375
1659434500.543313,10386
1659434500.581585,10400
1659434500.619858,10411
1659434500.65813,10429
1659434500.697086,10430
1659434500.736042,10451
1659434500.774998,10451
1659434500.816004,10450
1659434500.85701,10434
1659434500.895966,10354
1659434500.934922,10298
1659434500.973878,10261
1659434501.012834,10245
1659434501.05179,10222
1659434501.090746,10253
1659434501.132777,10253
1659434501.174809,10253
1659434501.216327,10265
1659434501.257846,10262
1659434501.297144,10271
1659434501.336441,10281
1659434501.375739,10304
1659434501.420846,10314
1659434501.465952,10335
1659434501.511059,10351
1659434501.543352,10364
1659434501.575644,10384
1659434501.619726,10393
1659434501.663807,10408
1659434501.707889,10391
1659434501.741719,10320
1659434501.775549,10248
1659434501.819631,10212
1659434501.863713,10196
1659434501.907794,10187
1659434501.946409,10192
1659434501.985023,10206
1659434502.023637,10213
1659434502.062593,10212
1659434502.101549,10211
1659434502.140505,10232
1659434502.182023,10244
1659434502.223542,10262
1659434502.262156,10270
1659434502.300771,10295
1659434502.339385,10315
1659434502.381416,10330
1659434502.423447,10346
1659434502.462403,10369
1659434502.501359,10392
1659434502.540315,10390
1659434502.578246,10348
1659434502.616176,10277
1659434502.654107,10222
1659434502.695113,10193
1659434502.73612,10186
1659434502.778664,10177
1659434502.821208,10178
1659434502.85948,10190
1659434502.897752,10196
1659434502.936025,10191
1659434502.980107,10202
1659434503.024188,10207
1659434503.06827,10221
1659434503.101587,10237
1659434503.134905,10254
1659434503.178987,10266
1659434503.223068,10280
1659434503.26715,10297
1659434503.306106,10308
1659434503.345062,10350
1659434503.384018,10330
1659434503.427074,10276
1659434503.470131,10206
1659434503.508745,10155
1659434503.547359,10122
1659434503.585973,10099
1659434503.624929,10103
1659434503.663885,10116
1659434503.702841,10128
1659434503.741797,10141
1659434503.780753,10159
1659434503.819709,10178
1659434503.86174,10195
1659434503.903771,10219
1659434503.942727,10228
1659434503.981683,10250
1659434504.020639,10264
1659434504.062158,10274
1659434504.103677,10285
1659434504.141607,10300
1659434504.179538,10316
1659434504.217469,10312
1659434504.260013,10266
1659434504.302557,10188
1659434504.347663,10147
1659434504.39277,10130
1659434504.437877,10124
1659434504.47615,10129
1659434504.514422,10147
1659434504.552694,10162
1659434504.594213,10163
1659434504.635732,10178
1659434504.675371,10170
1659434504.715011,10182
1659434504.75465,10209
1659434504.796681,10223
1659434504.838713,10235
1659434504.877327,10253
1659434504.915941,10269
1659434504.954555,10271
1659434504.993511,10289
1659434505.032467,10301
1659434505.071423,10311
1659434505.111917,10279
1659434505.15241,10203
1659434505.190683,10154
1659434505.228955,10138
1659434505.267227,10127
1659434505.306525,10130
1659434505.345823,10146
1659434505.38512,10161
1659434505.426639,10174
1659434505.468158,10188
1659434505.507114,10200
1659434505.54607,10227
1659434505.585026,10239
1659434505.626544,10260
1659434505.668063,10292
1659434505.712487,10316
1659434505.75691,10330
1659434505.801333,10340
1659434505.834651,10360
1659434505.867968,10382
1659434505.912392,10400
1659434505.956815,10371
1659434506.001239,10310
1659434506.039511,10265
1659434506.077783,10257
1659434506.116056,10258
1659434506.157062,10267
1659434506.198068,10293
1659434506.237024,10307
1659434506.27598,10325
1659434506.314936,10333
1659434506.354234,10333
1659434506.393531,10360
1659434506.432829,10364
1659434506.473322,10377
1659434506.513816,10380
1659434506.552772,10394
1659434506.591728,10405
1659434506.630684,10419
1659434506.672202,10443
1659434506.713721,10451
1659434506.753019,10467
1659434506.792316,10465
1659434506.831614,10416
1659434506.87057,10369
1659434506.909526,10329
1659434506.948482,10323
1659434506.991026,10335
1659434507.03357,10346
1659434507.071842,10366
1659434507.110115,10369
1659434507.148387,10383
1659434507.190418,10392
1659434507.23245,10404
1659434507.276873,10416
1659434507.321296,10434
1659434507.36572,10451
1659434507.399037,10464
1659434507.432355,10472
1659434507.476437,10493
1659434507.520518,10512
1659434507.5646,10534
1659434507.598943,10545
1659434507.633285,10521
1659434507.677709,10474
1659434507.722132,10439
1659434507.766556,10425
1659434507.805511,10416
1659434507.844467,10415
1659434507.883423,10424
1659434507.925455,10439
1659434507.967486,10444
1659434508.006442,10443
1659434508.045398,10457
1659434508.084353,10467
1659434508.122284,10484
1659434508.160215,10509
1659434508.198146,10512
1659434508.241202,10525
1659434508.284259,10548
1659434508.32219,10552
1659434508.36012,10559
1659434508.398051,10556
1659434508.438545,10537
1659434508.479038,10494
1659434508.517994,10476
1659434508.55695,10455
1659434508.595906,10458
1659434508.637937,10473
1659434508.679969,10484
1659434508.718241,10482
1659434508.756514,10481
1659434508.794786,10487
1659434508.836817,10489
1659434508.878849,10503
1659434508.91883,10511
1659434508.958811,10524
1659434508.998792,10544
1659434509.038773,10559
1659434509.078754,10583
1659434509.118052,10584
1659434509.157349,10583
1659434509.196647,10590
1659434509.238166,10551
1659434509.279684,10500
1659434509.317957,10463
1659434509.356229,10467
1659434509.394502,10455
1659434509.437046,10463
1659434509.479589,10467
1659434509.524355,10467
1659434509.56912,10478
1659434509.613885,10481
1659434509.651816,10484
1659434509.689746,10502
1659434509.727677,10504
1659434509.768171,10522
1659434509.808664,10538
1659434509.848304,10545
1659434509.887943,10553
1659434509.927582,10562
1659434509.965855,10563
1659434510.004127,10551
1659434510.0424,10518
1659434510.084944,10489
1659434510.127488,10468
1659434510.166785,10454
1659434510.206083,10457
1659434510.24538,10461
1659434510.286899,10469
1659434510.328418,10479
1659434510.370193,10482
1659434510.411968,10486
1659434510.453743,10476
1659434510.495518,10488
1659434510.534474,10517
1659434510.57343,10524
1659434510.612386,10535
1659434510.650658,10545
1659434510.688931,10565
1659434510.727203,10569
1659434510.769747,10579
1659434510.812291,10567
1659434510.851247,10542
1659434510.890203,10519
1659434510.929159,10511
1659434510.967773,10505
1659434511.006387,10517
1659434511.045001,10526
1659434511.08652,10533
1659434511.128039,10531
1659434511.166995,10532
1659434511.205951,10542
1659434511.244907,10549
1659434511.286938,10561
1659434511.328969,10578
1659434511.367925,10573
1659434511.406881,10589
1659434511.445837,10596
1659434511.486331,10614
1659434511.526824,10615
1659434511.56578,10618
1659434511.604736,10609
1659434511.643692,10590
1659434511.687432,10583
1659434511.731172,10574
1659434511.774912,10569
1659434511.817456,10573
1659434511.86,10576
1659434511.898272,10579
1659434511.936544,10589
1659434511.974817,10601
1659434512.016336,10608
1659434512.057855,10626
1659434512.096469,10625
1659434512.135083,10628
1659434512.173697,10645
1659434512.213336,10646
1659434512.252976,10654
1659434512.292615,10662
1659434512.333621,10676
1659434512.374627,10675
1659434512.413242,10674
1659434512.451856,10647
1659434512.49047,10629
1659434512.529084,10619
1659434512.567698,10611
1659434512.606313,10605
1659434512.647831,10611
1659434512.68935,10610
1659434512.728306,10612
1659434512.767262,10621
1659434512.806218,10618
1659434512.847737,10633
1659434512.889255,10637
1659434512.927186,10650
1659434512.965117,10670
1659434513.003047,10671
1659434513.046104,10681
1659434513.08916,10697
1659434513.133584,10691
1659434513.178007,10699
1659434513.222431,10709
1659434513.255236,10725
1659434513.288041,10713
1659434513.332806,10704
1659434513.377571,10681
1659434513.422336,10681
1659434513.456679,10679
1659434513.491021,10674
1659434513.535445,10684
1659434513.579868,10672
1659434513.624291,10689
1659434513.663247,10681
1659434513.702203,10705
1659434513.741159,10701
1659434513.78319,10697
1659434513.825222,10706
1659434513.863153,10708
1659434513.901083,10723
1659434513.939014,10730
1659434513.977628,10738
1659434514.016243,10735
1659434514.054857,10740
1659434514.096888,10740
1659434514.138919,10738
1659434514.177533,10729
1659434514.216148,10704
1659434514.254762,10689
1659434514.293376,10667
1659434514.33199,10654
1659434514.370604,10643
1659434514.412636,10654
1659434514.454667,10643
1659434514.493281,10634
1659434514.531895,10626
1659434514.57051,10625
1659434514.612541,10635
1659434514.654572,10632
1659434514.699679,10634
1659434514.744786,10642
1659434514.789893,10636
1659434514.821673,10641
1659434514.853452,10639
1659434514.897534,10651
1659434514.941616,10651
1659434514.985697,10661
1659434515.024312,10638
1659434515.062926,10602
1659434515.10154,10576
1659434515.143571,10557
1659434515.185603,10539
1659434515.223875,10522
1659434515.262147,10524
1659434515.30042,10509
1659434515.342451,10512
1659434515.384483,10507
1659434515.423097,10499
1659434515.461711,10497
1659434515.500325,10498
1659434515.539281,10499
1659434515.578237,10503
1659434515.617193,10498
1659434515.659224,10508
1659434515.701256,10510
1659434515.73987,10522
1659434515.778484,10518
1659434515.817098,10525
1659434515.855712,10514
1659434515.894326,10500
1659434515.932941,10452
1659434515.975485,10421
1659434516.018028,10406
1659434516.059035,10376
1659434516.100041,10368
1659434516.138997,10361
1659434516.177953,10371
1659434516.216909,10366
1659434516.261332,10366
1659434516.305755,10364
1659434516.350179,10363
1659434516.384521,10373
1659434516.418864,10377
1659434516.462604,10384
1659434516.506344,10381
1659434516.550084,10393
1659434516.583401,10392
1659434516.616719,10405
1659434516.661826,10408
1659434516.706933,10400
1659434516.752039,10402
1659434516.790995,10376
1659434516.829951,10340
1659434516.868907,10300
1659434516.907863,10276
1659434516.946819,10254
1659434516.985775,10249
1659434517.028319,10249
1659434517.070863,10250
1659434517.109477,10253
1659434517.148091,10255
1659434517.186705,10257
1659434517.227711,10248
1659434517.268718,10258
1659434517.307674,10266
1659434517.346629,10277
1659434517.385585,10282
1659434517.423858,10295
1659434517.46213,10292
1659434517.500403,10294
1659434517.541922,10311
1659434517.58344,10314
1659434517.625984,10313
1659434517.668528,10285
1659434517.707142,10254
1659434517.745756,10229
1659434517.784371,10222
1659434517.828794,10212
1659434517.873217,10202
1659434517.917641,10215
1659434517.951471,10203
1659434517.985301,10201
1659434518.029724,10190
1659434518.074148,10187
1659434518.118571,10186
1659434518.156502,10195
1659434518.194433,10205
1659434518.232363,10206
1659434518.27337,10216
1659434518.314376,10221
1659434518.35299,10222
1659434518.391604,10236
1659434518.430218,10235
1659434518.471737,10221
1659434518.513256,10180
1659434518.552212,10138
1659434518.591168,10119
1659434518.630124,10108
1659434518.66908,10105
1659434518.708035,10102
1659434518.746991,10107
1659434518.787997,10106
1659434518.829004,10116
1659434518.868643,10103
1659434518.908282,10104
1659434518.947922,10114
1659434518.98944,10113
1659434519.030959,10126
1659434519.069573,10131
1659434519.108188,10127
1659434519.146802,10121
1659434519.188833,10130
1659434519.230865,10128
1659434519.270504,10130
1659434519.310143,10127
1659434519.349782,10087
1659434519.390276,10043
1659434519.43077,10019
1659434519.470751,10019
1659434519.510732,10012
1659434519.550713,10031
1659434519.590694,10022
1659434519.630675,10031
1659434519.673219,10031
1659434519.715763,10034
1659434519.754035,10033
1659434519.792308,10037
1659434519.83058,10041
1659434519.872612,10054
1659434519.914643,10067
1659434519.953257,10075
1659434519.991871,10077
1659434520.030485,10084
1659434520.075251,10081
1659434520.120016,10092
1659434520.164781,10071
1659434520.198098,10027
1659434520.231416,9974
1659434520.276181,9958
1659434520.320946,9937
1659434520.365711,9932
1659434520.398004,9933
1659434520.430296,9940
1659434520.474719,9943
1659434520.519143,9936
1659434520.563566,9929
1659434520.602522,9929
1659434520.641478,9927
1659434520.680434,9935
1659434520.72144,9933
1659434520.762446,9947
1659434520.80106,9956
1659434520.839674,9975
1659434520.878289,9963
1659434520.92032,9974
1659434520.962351,9986
1659434521.001307,9950
1659434521.040263,9902
1659434521.079219,9869
1659434521.118175,9850
1659434521.157131,9834
1659434521.196087,9838
1659434521.237606,9841
1659434521.279124,9851
1659434521.31808,9857
1659434521.357036,9856
1659434521.395992,9856
1659434521.437511,9865
1659434521.479029,9868
1659434521.517985,9874
1659434521.556941,9883
1659434521.595897,9888
1659434521.639295,9889
1659434521.682694,9903
1659434521.726092,9902
1659434521.758384,9902
1659434521.790677,9892
1659434521.8351,9863
1659434521.879524,9829
1659434521.923947,9805
1659434521.966491,9790
1659434522.009035,9782
1659434522.047649,9783
1659434522.086263,9785
1659434522.124877,9800
1659434522.164516,9795
1659434522.204156,9795
1659434522.243795,9803
1659434522.285314,9804
1659434522.326833,9821
1659434522.365447,9827
1659434522.404061,9840
1659434522.442675,9838
1659434522.485219,9858
1659434522.527763,9853
1659434522.566719,9862
1659434522.605675,9874
1659434522.644631,9870
1659434522.682562,9836
1659434522.720492,9791
1659434522.758423,9766
1659434522.800454,9755
1659434522.842486,9753
1659434522.8811,9747
1659434522.919714,9745
1659434522.958328,9760
1659434522.999847,9758
1659434523.041366,9764
1659434523.080322,9761
1659434523.119277,9759
1659434523.158233,9756
1659434523.200265,9775
1659434523.242296,9784
1659434523.280569,9788
1659434523.318841,9795
1659434523.357114,9785
1659434523.399657,9795
1659434523.442201,9797
1659434523.487308,9786
1659434523.532415,9772
1659434523.577522,9722
1659434523.615794,9675
1659434523.654067,9648
1659434523.692339,9638
1659434523.733346,9627
1659434523.774352,9648
1659434523.813649,9636
1659434523.852947,9642
1659434523.892245,9641
1659434523.933763,9644
1659434523.975282,9655
1659434524.013896,9647
1659434524.05251,9661
1659434524.091125,9662
1659434524.129739,9683
1659434524.168353,9696
1659434524.206967,9700
1659434524.247973,9715
1659434524.28898,9720
1659434524.327935,9724
1659434524.366891,9713
1659434524.405847,9687
1659434524.447879,9671
1659434524.48991,9673
1659434524.528524,9681
1659434524.567138,9692
1659434524.605752,9712
1659434524.644708,9714
1659434524.683664,9723
1659434524.72262,9721
1659434524.764395,9728
1659434524.80617,9745
1659434524.847945,9747
1659434524.88972,9753
1659434524.927993,9753
1659434524.966265,9767
1659434525.004538,9775
1659434525.046057,9787
1659434525.087575,9780
1659434525.126873,9772
1659434525.166171,9763
1659434525.205468,9741
1659434525.246474,9738
1659434525.287481,9722
1659434525.326778,9728
1659434525.366076,9728
1659434525.405373,9754
1659434525.450139,9754
1659434525.494904,9751
1659434525.539669,9766
1659434525.580675,9764
1659434525.621681,9776
1659434525.66132,9791
1659434525.70096,9797
1659434525.740599,9802
1659434525.782118,9806
1659434525.823637,9815
1659434525.862251,9811
1659434525.900865,9823
1659434525.939479,9801
1659434525.978093,9766
1659434526.016707,9740
1659434526.055322,9731
1659434526.097866,9732
1659434526.140409,9746
1659434526.179024,9746
1659434526.217638,9743
1659434526.256252,9742
1659434526.294866,9740
1659434526.33348,9735
1659434526.372095,9728
1659434526.413613,9720
1659434526.455132,9726
1659434526.494088,9736
1659434526.533044,9735
1659434526.572,9740
1659434526.614031,9739
1659434526.656063,9735
1659434526.69536,9713
1659434526.734658,9690
1659434526.773955,9685
1659434526.815474,9684
1659434526.856993,9677
1659434526.895265,9686
1659434526.933538,9701
1659434526.97181,9696
1659434527.014354,9687
1659434527.056898,9693
1659434527.10098,9700
1659434527.145061,9704
1659434527.189143,9713
1659434527.227416,9715
1659434527.265688,9709
1659434527.303961,9718
1659434527.344967,9714
1659434527.385973,9719
1659434527.424587,9699
1659434527.463201,9659
1659434527.501816,9629
1659434527.540088,9608
1659434527.57836,9604
1659434527.616633,9604
1659434527.659177,9605
1659434527.701721,9598
1659434527.741018,9591
1659434527.780316,9600
1659434527.819613,9593
1659434527.86062,9596
1659434527.901626,9595
1659434527.940923,9604
1659434527.980221,9612
1659434528.019519,9622
1659434528.058816,9613
1659434528.098114,9603
1659434528.137412,9607
1659434528.177905,9595
1659434528.218399,9583
1659434528.257355,9539
1659434528.296311,9503
1659434528.335267,9474
1659434528.376273,9461
1659434528.417279,9457
1659434528.456235,9464
1659434528.495191,9463
1659434528.534147,9451
1659434528.578912,9449
1659434528.623677,9440
1659434528.668442,9436
1659434528.710473,9436
1659434528.752505,9434
1659434528.790777,9421
1659434528.82905,9421
1659434528.867322,9427
1659434528.908841,9430
1659434528.95036,9444
1659434528.990341,9432
1659434529.030322,9434
1659434529.070303,9428
1659434529.108575,9404
1659434529.146847,9383
1659434529.18512,9378
1659434529.227151,9375
1659434529.269183,9377
1659434529.308139,9396
1659434529.347095,9404
1659434529.38605,9405
1659434529.427569,9413
1659434529.469088,9408
1659434529.507702,9414
1659434529.546316,9416
1659434529.58493,9424
1659434529.623886,9418
1659434529.662842,9416
1659434529.701798,9413
1659434529.742292,9409
1659434529.782785,9416
1659434529.821741,9406
1659434529.860697,9416
1659434529.899653,9407
1659434529.942197,9391
1659434529.984741,9372
1659434530.024312,9336
1659434530.063883,9317
1659434530.103454,9317
1659434530.143025,9327
1659434530.182596,9332
1659434530.227361,9343
1659434530.272126,9335
1659434530.316891,9330
1659434530.355164,9341
1659434530.393436,9342
1659434530.431709,9344
1659434530.47374,9340
1659434530.515771,9345
1659434530.554385,9348
1659434530.593,9367
1659434530.631614,9362
1659434530.67262,9364
1659434530.713626,9368
1659434530.751899,9380
1659434530.790171,9392
1659434530.828444,9402
1659434530.867399,9394
1659434530.906355,9383
1659434530.945311,9375
1659434530.987343,9388
1659434531.029374,9398
1659434531.06833,9420
1659434531.107286,9420
1659434531.146242,9430
1659434531.18776,9429
1659434531.229279,9437
1659434531.268577,9440
1659434531.307874,9457
1659434531.347172,9458
1659434531.386128,9476
1659434531.425084,9499
1659434531.46404,9507
1659434531.505046,9517
1659434531.546052,9516
1659434531.587058,9521
1659434531.628065,9545
1659434531.666679,9545
1659434531.705293,9541
1659434531.743907,9514
1659434531.787989,9501
1659434531.83207,9493
1659434531.876152,9497
1659434531.910495,9483
1659434531.944838,9490
1659434531.989261,9502
1659434532.033684,9522
1659434532.078108,9530
1659434532.110913,9519
1659434532.143718,9508
1659434532.188824,9503
1659434532.233931,9512
1659434532.279038,9539
1659434532.318336,9562
1659434532.357633,9580
1659434532.396931,9576
1659434532.43845,9590
1659434532.479968,9598
1659434532.518924,9610
1659434532.55788,9619
1659434532.596836,9606
1659434532.637842,9587
1659434532.678849,9583
1659434532.717463,9598
1659434532.756077,9597
1659434532.794691,9599
1659434532.833989,9575
1659434532.873286,9569
1659434532.912584,9577
1659434532.953078,9589
1659434532.993571,9587
1659434533.031502,9582
1659434533.069432,9575
1659434533.107363,9582
1659434533.149907,9601
1659434533.192451,9589
1659434533.231065,9585
1659434533.26968,9585
1659434533.308294,9581
1659434533.352375,9592
1659434533.396457,9602
1659434533.440539,9599
1659434533.473856,9584
1659434533.507174,9568
1659434533.551939,9550
1659434533.596704,9549
1659434533.641469,9546
1659434533.682988,9535
1659434533.724507,9532
1659434533.763121,9538
1659434533.801735,9546
1659434533.840349,9542
1659434533.878963,9541
1659434533.917578,9543
1659434533.956192,9545
1659434533.996685,9569
1659434534.037179,9577
1659434534.076135,9577
1659434534.115091,9565
1659434534.154047,9565
1659434534.193344,9570
1659434534.232642,9586
1659434534.27194,9592
1659434534.313458,9586
1659434534.354977,9580
1659434534.394275,9554
1659434534.433572,9551
1659434534.47287,9525
1659434534.514901,9513
1659434534.556932,9509
1659434534.595888,9500
1659434534.634844,9509
1659434534.6738,9510
1659434534.715832,9500
1659434534.757863,9486
1659434534.796819,9497
1659434534.835775,9504
1659434534.874731,9506
1659434534.915224,9521
1659434534.955718,9515
1659434534.994332,9522
1659434535.032946,9537
1659434535.07156,9540
1659434535.116325,9545
1659434535.161091,9543
1659434535.205856,9554
1659434535.244982,9555
1659434535.284109,9541
1659434535.323236,9521
1659434535.362363,9498
1659434535.401489,9482
1659434535.440616,9478
1659434535.480256,9482
1659434535.519895,9491
1659434535.559534,9497
1659434535.60054,9490
1659434535.641546,9501
1659434535.680502,9503
1659434535.719458,9501
1659434535.758414,9507
1659434535.800958,9494
1659434535.843502,9494
1659434535.887584,9499
1659434535.931665,9511
1659434535.975747,9505
1659434536.008039,9498
1659434536.040332,9503
1659434536.084755,9505
1659434536.129179,9514
1659434536.173602,9500
1659434536.211874,9468
1659434536.250147,9428
1659434536.288419,9403
1659434536.330451,9400
1659434536.372482,9390
1659434536.410755,9393
1659434536.449027,9388
1659434536.487299,9387
1659434536.529331,9385
1659434536.571362,9379
1659434536.609976,9390
1659434536.648591,9388
1659434536.687205,9399
1659434536.726502,9395
1659434536.7658,9411
1659434536.805098,9424
1659434536.847129,9423
1659434536.88916,9423
1659434536.927433,9424
1659434536.965705,9431
1659434537.003978,9438
1659434537.045496,9433
1659434537.087015,9393
1659434537.125971,9352
1659434537.164927,9353
1659434537.203883,9348
1659434537.242497,9348
1659434537.281111,9347
1659434537.319726,9350
1659434537.361757,9355
1659434537.403788,9359
1659434537.444794,9362
1659434537.485801,9359
1659434537.524073,9366
1659434537.562346,9370
1659434537.600618,9378
1659434537.645041,9375
1659434537.689465,9378
1659434537.733888,9368
1659434537.768231,9376
1659434537.802573,9382
1659434537.846997,9384
1659434537.89142,9399
1659434537.935844,9378
1659434537.969161,9348
1659434538.002479,9322
1659434538.047244,9305
1659434538.092009,9318
1659434538.136774,9305
1659434538.17573,9307
1659434538.214686,9309
1659434538.253642,9321
1659434538.294648,9317
1659434538.335654,9325
1659434538.374952,9321
1659434538.414249,9320
1659434538.453547,9339
1659434538.491819,9344
1659434538.530092,9354
1659434538.568364,9368
1659434538.610908,9375
1659434538.653452,9381
1659434538.69275,9393
1659434538.732047,9403
1659434538.771345,9408
1659434538.812351,9406
1659434538.853357,9374
1659434538.891972,9337
1659434538.930586,9326
1659434538.9692,9316
1659434539.011744,9310
1659434539.054288,9315
1659434539.09256,9315
1659434539.130833,9322
1659434539.169105,9331
1659434539.213529,9331
1659434539.257952,9336
1659434539.302375,9342
1659434539.334668,9343
1659434539.36696,9351
1659434539.411042,9357
1659434539.455123,9362
1659434539.499205,9364
1659434539.537477,9373
1659434539.57575,9375
1659434539.614022,9374
1659434539.656566,9382
1659434539.69911,9382
1659434539.737383,9375
1659434539.775655,9344
1659434539.813928,9312
1659434539.855446,9296
1659434539.896965,9282
1659434539.935921,9282
1659434539.974877,9280
1659434540.013833,9285
1659434540.052789,9286
1659434540.091745,9291
1659434540.130701,9284
1659434540.172219,9283
1659434540.213738,9293
1659434540.252694,9299
1659434540.29165,9296
1659434540.330606,9310
1659434540.371612,9311
1659434540.412618,9312
1659434540.453966,9313
1659434540.495314,9322
1659434540.536662,9315
1659434540.57801,9325
1659434540.619358,9324
1659434540.660706,9317
1659434540.699662,9280
1659434540.738617,9251
1659434540.777573,9227
1659434540.816188,9224
1659434540.854802,9224
1659434540.893416,9224
1659434540.935447,9241
1659434540.977479,9231
1659434541.016776,9239
1659434541.056074,9243
1659434541.095371,9248
1659434541.134327,9251
1659434541.173283,9268
1659434541.212239,9267
1659434541.254271,9268
1659434541.296302,9281
1659434541.335941,9278
1659434541.375581,9290
1659434541.41522,9287
1659434541.455714,9293
1659434541.496207,9310
1659434541.534821,9305
1659434541.573436,9306
1659434541.61205,9292
1659434541.654593,9259
1659434541.697138,9230
1659434541.73541,9220
1659434541.773682,9216
1659434541.811955,9209
1659434541.852448,9214
1659434541.892942,9225
1659434541.937707,9222
1659434541.982472,9223
1659434542.027237,9219
1659434542.066193,9217
1659434542.105149,9226
1659434542.144105,9229
1659434542.186136,9232
1659434542.228168,9240
1659434542.267465,9227
1659434542.306763,9240
1659434542.346061,9253
1659434542.387579,9252
1659434542.429098,9254
1659434542.467029,9246
1659434542.50496,9263
1659434542.54289,9262
1659434542.582188,9255
1659434542.621486,9221
1659434542.660783,9191
1659434542.702302,9172
1659434542.743821,9165
1659434542.782093,9160
1659434542.820366,9163
1659434542.858638,9169
1659434542.897252,9169
1659434542.935867,9171
1659434542.974481,9168
1659434543.015487,9182
1659434543.056493,9187
1659434543.095449,9190
1659434543.134405,9203
1659434543.173361,9207
1659434543.21488,9207
1659434543.256398,9213
1659434543.300822,9215
1659434543.345245,9219
1659434543.389668,9220
1659434543.422473,9220
1659434543.455278,9228
1659434543.500044,9246
1659434543.544809,9239
1659434543.589574,9216
1659434543.623404,9190
1659434543.657234,9164
1659434543.700974,9160
1659434543.744714,9153
1659434543.788454,9147
1659434543.827751,9142
1659434543.867049,9158
1659434543.906347,9149
1659434543.947353,9146
1659434543.988359,9156
1659434544.027657,9156
1659434544.066954,9166
1659434544.106252,9179
1659434544.145208,9175
1659434544.184164,9182
1659434544.223119,9188
1659434544.265151,9192
1659434544.307182,9203
1659434544.345796,9199
1659434544.384411,9209
1659434544.423025,9219
1659434544.465569,9218
1659434544.508113,9231
1659434544.547069,9210
1659434544.586025,9184
1659434544.62498,9161
1659434544.663594,9155
1659434544.702209,9155
1659434544.740823,9155
1659434544.781829,9166
1659434544.822835,9170
1659434544.864867,9168
1659434544.906898,9180
1659434544.945512,9176
1659434544.984126,9184
1659434545.022741,9183
1659434545.066822,9188
1659434545.110904,9195
1659434545.154985,9218
1659434545.193941,9214
1659434545.232897,9225
1659434545.271853,9240
1659434545.312859,9244
1659434545.353866,9243
1659434545.392822,9228
1659434545.431777,9248
1659434545.470733,9239
1659434545.513277,9242
1659434545.555821,9230
1659434545.594435,9191
1659434545.633049,9179
1659434545.671664,9175
1659434545.710449,9178
1659434545.749234,9191
1659434545.788019,9192
1659434545.826804,9202
1659434545.865589,9206
1659434545.904374,9208
1659434545.94538,9211
1659434545.986386,9225
1659434546.025,9233
1659434546.063615,9249
1659434546.102229,9253
1659434546.143748,9258
1659434546.185266,9270
1659434546.229348,9272
1659434546.27343,9286
1659434546.317511,9291
1659434546.349804,9314
1659434546.382096,9312
1659434546.426861,9330
1659434546.471626,9333
1659434546.516392,9333
1659434546.550221,9308
1659434546.584052,9285
1659434546.628133,9287
1659434546.672215,9294
1659434546.716297,9309
1659434546.755594,9319
1659434546.794892,9341
1659434546.834189,9346
1659434546.876221,9352
1659434546.918252,9370
1659434546.95755,9375
1659434546.996847,9383
1659434547.036145,9392
1659434547.077151,9407
1659434547.118157,9416
1659434547.157455,9436
1659434547.196753,9446
1659434547.23605,9454
1659434547.273981,9463
1659434547.311912,9464
1659434547.349843,9469
1659434547.392386,9475
1659434547.43493,9460
1659434547.473886,9431
1659434547.512842,9414
1659434547.551798,9404
1659434547.593317,9408
1659434547.634835,9407
1659434547.673791,9409
1659434547.712747,9415
1659434547.751703,9414
1659434547.794247,9407
1659434547.836791,9419
1659434547.875405,9411
1659434547.91402,9413
1659434547.952634,9414
1659434547.994665,9425
1659434548.036696,9431
1659434548.07531,9426
1659434548.113925,9436
1659434548.152539,9437
1659434548.19662,9441
1659434548.240702,9451
1659434548.284784,9452
1659434548.318101,9463
1659434548.351419,9436
1659434548.396184,9395
1659434548.440949,9368
1659434548.485714,9357
1659434548.526208,9342
1659434548.566701,9341
1659434548.605316,9351
1659434548.64393,9357
1659434548.682544,9364
1659434548.721842,9351
1659434548.761139,9351
1659434548.800437,9355
1659434548.842468,9355
1659434548.8845,9361
1659434548.923114,9372
1659434548.961728,9374
1659434549.000342,9373
1659434549.041861,9387
1659434549.08338,9382
1659434549.121652,9384
1659434549.159925,9388
1659434549.198197,9389
1659434549.23647,9386
1659434549.274742,9372
1659434549.313015,9345
1659434549.355558,9317
1659434549.398102,9313
1659434549.436717,9306
1659434549.475331,9304
1659434549.513945,9314
1659434549.554951,9313
1659434549.595957,9315
1659434549.634571,9293
1659434549.673186,9300
1659434549.7118,9298
1659434549.756565,9313
1659434549.80133,9326
1659434549.846095,9337
1659434549.879925,9356
1659434549.913755,9370
1659434549.958179,9389
1659434550.002602,9384
1659434550.047025,9391
1659434550.089057,9402
1659434550.131088,9410
1659434550.169702,9414
1659434550.208317,9414
1659434550.246931,9391
1659434550.28657,9357
1659434550.326209,9358
1659434550.365849,9345
1659434550.406855,9335
1659434550.447861,9345
1659434550.486475,9351
1659434550.52509,9352
1659434550.563704,9343
1659434550.60471,9350
1659434550.645716,9349
1659434550.685014,9366
1659434550.724311,9373
1659434550.763609,9383
1659434550.802223,9400
1659434550.840837,9414
1659434550.879451,9423
1659434550.92097,9430
1659434550.962489,9442
1659434551.00452,9446
1659434551.046552,9450
1659434551.088583,9464
1659434551.130614,9469
1659434551.169229,9486
1659434551.207843,9478
1659434551.246457,9451
1659434551.285754,9415
1659434551.325052,9406
1659434551.36435,9413
1659434551.405356,9415
1659434551.446362,9428
1659434551.484976,9441
1659434551.52359,9450
1659434551.562205,9457
1659434551.603211,9472
1659434551.644217,9475
1659434551.683173,9476
1659434551.722129,9498
1659434551.761085,9505
1659434551.801578,9508
1659434551.842072,9517
1659434551.88137,9525
1659434551.920667,9529
1659434551.959965,9545
1659434552.001996,9539
1659434552.044028,9557
1659434552.088109,9569
1659434552.132191,9567
1659434552.176272,9549
1659434552.214545,9519
1659434552.252817,9486
1659434552.29109,9478
1659434552.333634,9472
1659434552.376178,9477
1659434552.414792,9470
1659434552.453406,9486
1659434552.49202,9480
1659434552.530634,9484
1659434552.569249,9493
1659434552.607863,9498
1659434552.649382,9504
1659434552.6909,9521
1659434552.729173,9523
1659434552.767445,9522
1659434552.805718,9528
1659434552.844332,9526
1659434552.882946,9531
1659434552.92156,9530
1659434552.964104,9525
1659434553.006648,9535
1659434553.04492,9551
1659434553.083193,9553
1659434553.121465,9530
1659434553.163497,9490
1659434553.205528,9460
1659434553.244826,9447
1659434553.284123,9434
1659434553.323421,9430
1659434553.365452,9438
1659434553.407484,9438
1659434553.446098,9441
1659434553.484712,9451
1659434553.523326,9450
1659434553.568433,9459
1659434553.61354,9468
1659434553.658647,9473
1659434553.699653,9477
1659434553.740659,9490
1659434553.779273,9497
1659434553.817888,9493
1659434553.856502,9504
1659434553.898533,9491
1659434553.940564,9493
1659434553.979178,9498
1659434554.017793,9503
1659434554.056407,9505
1659434554.094679,9493
1659434554.132952,9451
1659434554.171224,9423
1659434554.213256,9409
1659434554.255287,9393
1659434554.294243,9388
1659434554.333199,9389
1659434554.372155,9387
1659434554.414186,9381
1659434554.456217,9384
1659434554.495173,9370
1659434554.534129,9366
1659434554.573085,9378
1659434554.612383,9377
1659434554.65168,9366
1659434554.690978,9363
1659434554.731472,9365
1659434554.771965,9371
1659434554.811263,9371
1659434554.85056,9372
1659434554.889858,9387
1659434554.930864,9386
1659434554.97187,9388
1659434555.016294,9404
1659434555.060717,9396
1659434555.10514,9376
1659434555.137433,9338
1659434555.169725,9317
1659434555.21449,9306
1659434555.259255,9312
1659434555.304021,9310
1659434555.337851,9315
1659434555.371681,9322
1659434555.415762,9312
1659434555.459844,9309
1659434555.503926,9321
1659434555.542882,9324
1659434555.581838,9321
1659434555.620794,9338
1659434555.662825,9341
1659434555.704856,9355
1659434555.743812,9372
1659434555.782768,9379
1659434555.821724,9394
1659434555.863243,9405
1659434555.904761,9408
1659434555.943717,9428
1659434555.982673,9429
1659434556.021629,9427
1659434556.059901,9408
1659434556.098174,9371
1659434556.136446,9340
1659434556.17899,9331
1659434556.221534,9331
1659434556.261105,9329
1659434556.300676,9341
1659434556.340247,9345
1659434556.379818,9353
1659434556.419389,9363
1659434556.460908,9362
1659434556.502427,9371
1659434556.542066,9379
1659434556.581706,9382
1659434556.621345,9387
1659434556.659617,9405
1659434556.69789,9419
1659434556.736162,9420
1659434556.777681,9435
1659434556.8192,9428
1659434556.858839,9438
1659434556.898478,9454
1659434556.938118,9473
1659434556.980149,9489
1659434557.02218,9496
1659434557.060795,9479
1659434557.099409,9448
1659434557.138023,9450
1659434557.179542,9432
1659434557.221061,9435
1659434557.265142,9423
1659434557.309224,9432
1659434557.353306,9442
1659434557.386623,9445
1659434557.41994,9445
1659434557.464706,9446
1659434557.509471,9466
1659434557.554236,9472
1659434557.59285,9487
1659434557.631464,9497
1659434557.670079,9500
1659434557.711085,9516
1659434557.752091,9520
1659434557.79173,9522
1659434557.831369,9525
1659434557.871009,9545
1659434557.912528,9552
1659434557.954046,9568
1659434557.992319,9549
1659434558.030591,9512
1659434558.068864,9488
1659434558.10782,9478
1659434558.146775,9485
1659434558.185731,9492
1659434558.226225,9498
1659434558.266719,9503
1659434558.304991,9506
1659434558.343264,9505
1659434558.381536,9511
1659434558.420492,9522
1659434558.459448,9532
1659434558.498404,9543
1659434558.540435,9550
1659434558.582466,9565
1659434558.621081,9568
1659434558.659695,9585
1659434558.698309,9585
1659434558.74034,9595
1659434558.782372,9597
1659434558.824916,9606
1659434558.86746,9617
1659434558.906074,9619
1659434558.944688,9604
1659434558.983302,9574
1659434559.028067,9544
1659434559.072832,9535
1659434559.117597,9534
1659434559.150402,9531
1659434559.183207,9534
1659434559.227289,9548
1659434559.271371,9556
1659434559.315452,9558
1659434559.354408,9559
1659434559.393364,9563
1659434559.43232,9569
1659434559.474864,9584
1659434559.517408,9590
1659434559.55568,9585
1659434559.593953,9601
1659434559.632225,9606
1659434559.673231,9613
1659434559.714238,9628
1659434559.753535,9620
1659434559.792833,9628
1659434559.83213,9638
1659434559.871086,9636
1659434559.910042,9625
1659434559.948998,9591
1659434559.990517,9543
1659434560.032036,9519
1659434560.071333,9513
1659434560.110631,9497
1659434560.149929,9500
1659434560.191447,9497
1659434560.232966,9495
1659434560.272264,9487
1659434560.311561,9487
1659434560.350859,9482
1659434560.391865,9479
1659434560.432871,9468
1659434560.471827,9464
1659434560.510783,9467
1659434560.549739,9475
1659434560.590233,9480
1659434560.630726,9491
1659434560.670024,9492
1659434560.709321,9497
1659434560.748619,9507
1659434560.792701,9511
1659434560.836782,9519
1659434560.880864,9520
1659434560.913669,9491
1659434560.946474,9454
1659434560.990897,9427
1659434561.035321,9406
1659434561.079744,9401
