LocalTimestamp,PG
1659521241.458041,9294
1659521241.499004,9492
1659521241.537918,9629
1659521241.576831,9724
1659521241.615745,9764
1659521241.660121,9780
1659521241.704496,9780
1659521241.748872,9820
1659521241.782154,9889
1659521241.815435,9985
1659521241.860494,10079
1659521241.905552,10216
1659521241.95061,10443
1659521241.98338,10631
1659521242.01615,10766
1659521242.060184,10890
1659521242.104218,10953
1659521242.148252,11030
1659521242.187507,11060
1659521242.226763,11081
1659521242.266018,11160
1659521242.308004,11256
1659521242.34999,11380
1659521242.388221,11493
1659521242.426453,11589
1659521242.464684,11656
1659521242.503257,11702
1659521242.541829,11760
1659521242.580402,11821
1659521242.621364,11900
1659521242.662326,11976
1659521242.700557,12049
1659521242.738788,12093
1659521242.77702,12158
1659521242.819005,12232
1659521242.860992,12291
1659521242.899906,12371
1659521242.93882,12419
1659521242.977734,12468
1659521243.019207,12535
1659521243.060682,12580
1659521243.099596,12623
1659521243.13851,12670
1659521243.177423,12681
1659521243.219922,12667
1659521243.26242,12632
1659521243.301675,12598
1659521243.34093,12571
1659521243.380186,12575
1659521243.423878,12572
1659521243.467571,12586
1659521243.511264,12597
1659521243.552738,12609
1659521243.594212,12614
1659521243.632444,12630
1659521243.670675,12647
1659521243.708906,12664
1659521243.75038,12695
1659521243.791854,12736
1659521243.830768,12759
1659521243.869682,12784
1659521243.908596,12795
1659521243.947851,12776
1659521243.987107,12709
1659521244.026362,12592
1659521244.064934,12494
1659521244.103507,12431
1659521244.14208,12417
1659521244.184066,12435
1659521244.226052,12465
1659521244.265649,12477
1659521244.305245,12484
1659521244.344842,12493
1659521244.386316,12504
1659521244.42779,12516
1659521244.467045,12548
1659521244.506301,12577
1659521244.545556,12622
1659521244.58703,12663
1659521244.628504,12690
1659521244.667077,12709
1659521244.705649,12644
1659521244.744222,12546
1659521244.785696,12451
1659521244.82717,12391
1659521244.866425,12327
1659521244.905681,12295
1659521244.944936,12266
1659521244.987741,12247
1659521245.030547,12234
1659521245.073352,12203
1659521245.116157,12173
1659521245.158963,12166
1659521245.198559,12168
1659521245.238156,12169
1659521245.277753,12188
1659521245.315984,12195
1659521245.354215,12218
1659521245.392446,12230
1659521245.43392,12191
1659521245.475394,12071
1659521245.514991,11875
1659521245.554588,11695
1659521245.594184,11557
1659521245.632074,11442
1659521245.669964,11365
1659521245.707854,11310
1659521245.750352,11257
1659521245.79285,11214
1659521245.831423,11157
1659521245.869996,11130
1659521245.908568,11093
1659521245.949018,11071
1659521245.989468,11056
1659521246.028041,11045
1659521246.066613,11037
1659521246.105186,11032
1659521246.147172,11037
1659521246.189158,10982
1659521246.227731,10870
1659521246.266303,10685
1659521246.304876,10542
1659521246.349593,10450
1659521246.39431,10379
1659521246.439027,10332
1659521246.472308,10308
1659521246.50559,10298
1659521246.549966,10291
1659521246.594341,10300
1659521246.638717,10324
1659521246.680191,10372
1659521246.721665,10480
1659521246.76092,10642
1659521246.800175,10998
1659521246.839431,11423
1659521246.877662,11582
1659521246.915893,11686
1659521246.954124,11788
1659521246.995599,11825
1659521247.037073,11719
1659521247.075987,11555
1659521247.114901,11398
1659521247.153814,11383
1659521247.195801,11416
1659521247.237787,11453
1659521247.2767,11482
1659521247.315614,11515
1659521247.354528,11521
1659521247.393784,11500
1659521247.433039,11482
1659521247.472294,11482
1659521247.513768,11492
1659521247.555243,11513
1659521247.594498,11535
1659521247.633753,11549
1659521247.673008,11579
1659521247.714994,11594
1659521247.756981,11623
1659521247.795895,11616
1659521247.834809,11605
1659521247.873722,11603
1659521247.914172,11612
1659521247.954623,11600
1659521247.993878,11576
1659521248.033133,11575
1659521248.072388,11588
1659521248.113863,11618
1659521248.155337,11653
1659521248.199371,11684
1659521248.243405,11721
1659521248.287439,11759
1659521248.326012,11776
1659521248.364584,11812
1659521248.403157,11831
1659521248.445143,11854
1659521248.487129,11878
1659521248.526043,11897
1659521248.564957,11923
1659521248.603871,11930
1659521248.645345,11952
1659521248.686819,11953
1659521248.725733,11965
1659521248.764647,11978
1659521248.803561,11990
1659521248.842475,12010
1659521248.881389,12008
1659521248.920303,12018
1659521248.962289,12019
1659521249.004275,12031
1659521249.043189,12036
1659521249.082103,12048
1659521249.121017,12074
1659521249.161979,12088
1659521249.202941,12098
1659521249.240831,12112
1659521249.278721,12119
1659521249.316611,12131
1659521249.355866,12143
1659521249.395121,12153
1659521249.434376,12144
1659521249.475851,12153
1659521249.517325,12168
1659521249.555556,12172
1659521249.593787,12185
1659521249.632018,12195
1659521249.674516,12218
1659521249.717015,12223
1659521249.761732,12226
1659521249.806448,12245
1659521249.851165,12254
1659521249.883935,12266
1659521249.916705,12271
1659521249.961763,12280
1659521250.006821,12292
1659521250.051879,12293
1659521250.084649,12313
1659521250.117419,12325
1659521250.161794,12336
1659521250.20617,12332
1659521250.250545,12311
1659521250.288179,12291
1659521250.325813,12262
1659521250.363447,12242
1659521250.401081,12236
1659521250.442043,12220
1659521250.483005,12211
1659521250.52226,12193
1659521250.561516,12181
1659521250.600771,12160
1659521250.642757,12166
1659521250.684743,12148
1659521250.723998,12135
1659521250.763254,12144
1659521250.802509,12135
1659521250.846543,12132
1659521250.890577,12133
1659521250.934612,12145
1659521250.968917,12123
1659521251.003223,12082
1659521251.04794,11996
1659521251.092657,11928
1659521251.137374,11875
1659521251.170143,11822
1659521251.202913,11772
1659521251.247288,11748
1659521251.291664,11717
1659521251.33604,11692
1659521251.374612,11652
1659521251.413185,11618
1659521251.451757,11602
1659521251.493232,11583
1659521251.534706,11571
1659521251.57362,11555
1659521251.612534,11553
1659521251.651447,11533
1659521251.69241,11527
1659521251.733371,11519
1659521251.771944,11505
1659521251.810517,11453
1659521251.849089,11350
1659521251.888003,11241
1659521251.926917,11156
1659521251.965831,11099
1659521252.007817,11052
1659521252.049803,11018
1659521252.088376,10998
1659521252.126949,10961
1659521252.165521,10931
1659521252.206995,10904
1659521252.248469,10870
1659521252.287042,10850
1659521252.325614,10846
1659521252.364187,10833
1659521252.406685,10820
1659521252.449183,10831
1659521252.487415,10827
1659521252.525646,10833
1659521252.563877,10834
1659521252.605351,10842
1659521252.646825,10819
1659521252.690859,10727
1659521252.734894,10627
1659521252.778928,10539
1659521252.817842,10476
1659521252.856756,10435
1659521252.89567,10407
1659521252.938168,10387
1659521252.980666,10369
1659521253.01958,10349
1659521253.058494,10334
1659521253.097408,10310
1659521253.13837,10319
1659521253.179332,10311
1659521253.218587,10316
1659521253.257842,10321
1659521253.297098,10334
1659521253.336012,10344
1659521253.374926,10360
1659521253.41384,10381
1659521253.455314,10393
1659521253.496788,10413
1659521253.535702,10368
1659521253.574616,10263
1659521253.613529,10186
1659521253.655004,10135
1659521253.696478,10108
1659521253.734709,10093
1659521253.77294,10101
1659521253.811172,10089
1659521253.850768,10090
1659521253.890365,10073
1659521253.929961,10066
1659521253.971947,10086
1659521254.013934,10100
1659521254.052165,10113
1659521254.090396,10129
1659521254.128627,10146
1659521254.170101,10175
1659521254.211576,10197
1659521254.256634,10223
1659521254.301692,10242
1659521254.34675,10273
1659521254.380032,10300
1659521254.413314,10268
1659521254.453252,10166
1659521254.49319,10060
1659521254.533128,10002
1659521254.573066,9965
1659521254.613003,9935
1659521254.654478,9925
1659521254.695952,9928
1659521254.734183,9936
1659521254.772414,9928
1659521254.810645,9933
1659521254.852119,9934
1659521254.893594,9943
1659521254.937969,9976
1659521254.982345,9991
1659521255.02672,10014
1659521255.064951,10044
1659521255.103183,10071
1659521255.141414,10091
1659521255.183912,10126
1659521255.22641,10154
1659521255.265324,10188
1659521255.304238,10212
1659521255.343152,10170
1659521255.384114,10055
1659521255.425076,9960
1659521255.46271,9886
1659521255.500344,9854
1659521255.537978,9836
1659521255.575612,9835
1659521255.613843,9839
1659521255.652074,9849
1659521255.690305,9855
1659521255.73434,9844
1659521255.778374,9851
1659521255.822408,9872
1659521255.865418,9895
1659521255.908428,9923
1659521255.94666,9946
1659521255.984891,9972
1659521256.023122,10003
1659521256.061695,10033
1659521256.100267,10067
1659521256.13884,10107
1659521256.180826,10147
1659521256.222812,10170
1659521256.261385,10146
1659521256.299957,10033
1659521256.33853,9933
1659521256.381028,9885
1659521256.423526,9855
1659521256.462781,9836
1659521256.502037,9845
1659521256.541292,9853
1659521256.580206,9868
1659521256.61912,9856
1659521256.658034,9871
1659521256.698996,9888
1659521256.739958,9909
1659521256.779555,9938
1659521256.819151,9970
1659521256.858748,10018
1659521256.89971,10051
1659521256.940672,10090
1659521256.979244,10111
1659521257.017817,10138
1659521257.05639,10175
1659521257.097352,10209
1659521257.138314,10236
1659521257.177911,10197
1659521257.217507,10094
1659521257.257104,9973
1659521257.298066,9920
1659521257.339028,9892
1659521257.383745,9880
1659521257.428462,9883
1659521257.473179,9899
1659521257.511751,9893
1659521257.550324,9904
1659521257.588897,9905
1659521257.63037,9924
1659521257.671844,9942
1659521257.7111,9978
1659521257.750355,10001
1659521257.78961,10034
1659521257.831597,10069
1659521257.873583,10090
1659521257.911814,10129
1659521257.950045,10162
1659521257.988276,10184
1659521258.026849,10241
1659521258.065422,10278
1659521258.103994,10302
1659521258.14598,10258
1659521258.187966,10139
1659521258.22688,10010
1659521258.265794,9928
1659521258.304708,9898
1659521258.342598,9855
1659521258.380488,9844
1659521258.418378,9843
1659521258.460876,9837
1659521258.503374,9825
1659521258.541947,9815
1659521258.580519,9825
1659521258.619092,9845
1659521258.660566,9883
1659521258.70204,9919
1659521258.741637,9956
1659521258.781233,9991
1659521258.82083,10025
1659521258.862304,10063
1659521258.903778,10090
1659521258.947471,10121
1659521258.991164,10164
1659521259.034857,10186
1659521259.069162,10192
1659521259.103468,10080
1659521259.147844,9942
1659521259.192219,9852
1659521259.236595,9804
1659521259.26834,9763
1659521259.300086,9745
1659521259.344803,9761
1659521259.38952,9762
1659521259.434237,9749
1659521259.473492,9752
1659521259.512747,9756
1659521259.552003,9779
1659521259.593477,9813
1659521259.634951,9856
1659521259.674206,9898
1659521259.713461,9948
1659521259.752717,9997
1659521259.791631,10034
1659521259.830544,10080
1659521259.869458,10104
1659521259.91042,10141
1659521259.951383,10183
1659521259.990297,10168
1659521260.029211,10039
1659521260.068125,9896
1659521260.110623,9822
1659521260.153121,9764
1659521260.191352,9751
1659521260.229583,9743
1659521260.267814,9749
1659521260.309289,9763
1659521260.350763,9758
1659521260.389677,9764
1659521260.428591,9765
1659521260.467505,9796
1659521260.508978,9822
1659521260.550452,9872
1659521260.589366,9897
1659521260.62828,9938
1659521260.667194,9977
1659521260.709181,10010
1659521260.751167,10051
1659521260.793153,10084
1659521260.835139,10124
1659521260.873711,10123
1659521260.912284,10006
1659521260.950857,9858
1659521260.992843,9761
1659521261.034829,9720
1659521261.073401,9685
1659521261.111974,9682
1659521261.150547,9701
1659521261.192021,9697
1659521261.233495,9697
1659521261.272067,9703
1659521261.31064,9704
1659521261.349212,9737
1659521261.390687,9769
1659521261.432161,9799
1659521261.470392,9836
1659521261.508623,9879
1659521261.546854,9921
1659521261.59123,9947
1659521261.635606,10000
1659521261.679981,10040
1659521261.713263,10067
1659521261.746544,9970
1659521261.79092,9799
1659521261.835295,9681
1659521261.879671,9617
1659521261.918926,9572
1659521261.958182,9545
1659521261.997437,9548
1659521262.039423,9561
1659521262.081409,9558
1659521262.119982,9540
1659521262.158554,9547
1659521262.197127,9583
1659521262.239625,9606
1659521262.282123,9652
1659521262.321037,9690
1659521262.359951,9731
1659521262.398865,9767
1659521262.439827,9815
1659521262.480789,9844
1659521262.519362,9879
1659521262.557934,9934
1659521262.596507,9974
1659521262.636104,9948
1659521262.6757,9803
1659521262.715297,9631
1659521262.756771,9528
1659521262.798245,9459
1659521262.836818,9410
1659521262.87539,9391
1659521262.913963,9397
1659521262.955437,9411
1659521262.996911,9394
1659521263.036849,9406
1659521263.076787,9414
1659521263.116725,9434
1659521263.157687,9477
1659521263.198649,9514
1659521263.237563,9560
1659521263.276477,9601
1659521263.315391,9651
1659521263.357377,9681
1659521263.399363,9729
1659521263.443056,9768
1659521263.486749,9815
1659521263.530442,9864
1659521263.569697,9884
1659521263.608952,9787
1659521263.648207,9612
1659521263.68917,9472
1659521263.730132,9407
1659521263.768704,9356
1659521263.807277,9328
1659521263.845849,9329
1659521263.884763,9338
1659521263.923677,9342
1659521263.962591,9328
1659521264.005089,9351
1659521264.047587,9370
1659521264.08616,9404
1659521264.124733,9448
1659521264.163305,9489
1659521264.204267,9531
1659521264.245229,9571
1659521264.284826,9616
1659521264.324423,9648
1659521264.364019,9697
1659521264.401909,9743
1659521264.439799,9792
1659521264.477689,9844
1659521264.519675,9840
1659521264.561661,9715
1659521264.600575,9532
1659521264.639489,9425
1659521264.678403,9368
1659521264.719365,9343
1659521264.760327,9330
1659521264.798558,9337
1659521264.83679,9348
1659521264.875021,9336
1659521264.917519,9336
1659521264.960017,9343
1659521265.004051,9365
1659521265.048085,9407
1659521265.09212,9448
1659521265.124889,9490
1659521265.157659,9529
1659521265.202717,9585
1659521265.247776,9616
1659521265.292834,9663
1659521265.331406,9698
1659521265.369979,9738
1659521265.408551,9795
1659521265.450026,9838
1659521265.4915,9849
1659521265.531096,9714
1659521265.570693,9532
1659521265.61029,9395
1659521265.651252,9313
1659521265.692214,9258
1659521265.730786,9213
1659521265.769359,9225
1659521265.807931,9232
1659521265.846845,9226
1659521265.885759,9234
1659521265.924673,9243
1659521265.963929,9277
1659521266.003184,9311
1659521266.042439,9349
1659521266.086815,9405
1659521266.13119,9452
1659521266.175566,9491
1659521266.208848,9530
1659521266.242129,9584
1659521266.286505,9633
1659521266.33088,9682
1659521266.375256,9749
1659521266.41673,9817
1659521266.458204,9837
1659521266.497801,9739
1659521266.537397,9576
1659521266.576994,9441
1659521266.615566,9368
1659521266.654139,9317
1659521266.692712,9291
1659521266.733674,9304
1659521266.774636,9330
1659521266.81355,9344
1659521266.852464,9337
1659521266.891378,9343
1659521266.932852,9370
1659521266.974326,9415
1659521267.012557,9469
1659521267.050788,9511
1659521267.08902,9557
1659521267.127592,9600
1659521267.166165,9647
1659521267.204737,9679
1659521267.246212,9721
1659521267.287686,9793
1659521267.3266,9853
1659521267.365514,9867
1659521267.404427,9767
1659521267.446414,9619
1659521267.4884,9517
1659521267.527313,9470
1659521267.566227,9440
1659521267.605141,9428
1659521267.646616,9446
1659521267.68809,9456
1659521267.72598,9447
1659521267.763869,9440
1659521267.801759,9450
1659521267.846135,9472
1659521267.89051,9525
1659521267.934886,9553
1659521267.976872,9607
1659521268.018858,9652
1659521268.057431,9693
1659521268.096003,9731
1659521268.134576,9780
1659521268.17605,9824
1659521268.217524,9884
1659521268.256438,9938
1659521268.295352,9896
1659521268.334266,9739
1659521268.372838,9597
1659521268.411411,9525
1659521268.449984,9461
1659521268.492482,9436
1659521268.53498,9415
1659521268.573894,9414
1659521268.612808,9422
1659521268.651722,9410
1659521268.693196,9405
1659521268.73467,9419
1659521268.773925,9444
1659521268.81318,9481
1659521268.852436,9522
1659521268.894934,9570
1659521268.937432,9618
1659521268.975322,9679
1659521269.013212,9725
1659521269.051102,9775
1659521269.090357,9840
1659521269.129612,9879
1659521269.168868,9885
1659521269.20983,9749
1659521269.250792,9575
1659521269.289706,9449
1659521269.32862,9368
1659521269.367534,9314
1659521269.409008,9285
1659521269.450482,9297
1659521269.49554,9293
1659521269.540598,9286
1659521269.585656,9279
1659521269.617914,9287
1659521269.650172,9314
1659521269.694889,9353
1659521269.739605,9393
1659521269.784323,9441
1659521269.818628,9500
1659521269.852934,9546
1659521269.89731,9586
1659521269.941685,9632
1659521269.986061,9679
1659521270.024633,9723
1659521270.063206,9721
1659521270.101778,9591
1659521270.143252,9420
1659521270.184726,9274
1659521270.223299,9203
1659521270.261872,9136
1659521270.300444,9112
1659521270.339017,9119
1659521270.377589,9132
1659521270.416162,9118
1659521270.457124,9119
1659521270.498086,9142
1659521270.536659,9163
1659521270.575231,9202
1659521270.613804,9256
1659521270.65579,9295
1659521270.697776,9344
1659521270.737031,9385
1659521270.776287,9435
1659521270.815542,9482
1659521270.854115,9540
1659521270.892687,9588
1659521270.93126,9635
1659521270.972734,9691
1659521271.014208,9658
1659521271.056706,9500
1659521271.099204,9347
1659521271.137777,9249
1659521271.176349,9196
1659521271.214922,9158
1659521271.25614,9142
1659521271.297358,9155
1659521271.338576,9181
1659521271.379794,9170
1659521271.41905,9178
1659521271.458305,9218
1659521271.49756,9256
1659521271.539034,9307
1659521271.580508,9348
1659521271.619081,9401
1659521271.657654,9445
1659521271.696226,9496
1659521271.738212,9532
1659521271.780198,9567
1659521271.819453,9620
1659521271.858709,9658
1659521271.897964,9707
1659521271.939438,9733
1659521271.980912,9649
1659521272.020168,9478
1659521272.059423,9354
1659521272.098678,9291
1659521272.143395,9257
1659521272.188112,9246
1659521272.232829,9261
1659521272.266623,9284
1659521272.300416,9284
1659521272.344792,9271
1659521272.389167,9299
1659521272.433543,9324
1659521272.474505,9363
1659521272.515467,9406
1659521272.55404,9465
1659521272.592612,9505
1659521272.631185,9550
1659521272.670099,9580
1659521272.709013,9602
1659521272.747927,9638
1659521272.789913,9668
1659521272.831899,9695
1659521272.870471,9670
1659521272.909044,9509
1659521272.947617,9322
1659521272.989091,9212
1659521273.030565,9140
1659521273.06982,9076
1659521273.109075,9038
1659521273.148331,9038
1659521273.186562,9034
1659521273.224793,9027
1659521273.263025,9034
1659521273.305011,9076
1659521273.346997,9154
1659521273.385911,9218
1659521273.424824,9287
1659521273.463738,9353
1659521273.504189,9427
1659521273.544639,9493
1659521273.583211,9559
1659521273.621784,9615
1659521273.660356,9670
1659521273.702854,9737
1659521273.745353,9746
1659521273.783242,9639
1659521273.821132,9463
1659521273.859022,9327
1659521273.900496,9239
1659521273.94197,9198
1659521273.98737,9172
1659521274.03277,9177
1659521274.078169,9194
1659521274.116742,9185
1659521274.155314,9180
1659521274.193887,9195
1659521274.235873,9224
1659521274.277859,9268
1659521274.317456,9304
1659521274.357053,9346
1659521274.396649,9379
1659521274.437099,9434
1659521274.477549,9479
1659521274.515439,9531
1659521274.553329,9583
1659521274.591219,9584
1659521274.630474,9483
1659521274.669729,9317
1659521274.708985,9219
1659521274.750971,9167
1659521274.792957,9147
1659521274.83153,9144
1659521274.870102,9178
1659521274.908675,9201
1659521274.947589,9195
1659521274.986503,9203
1659521275.025417,9216
1659521275.066891,9240
1659521275.108365,9283
1659521275.14762,9313
1659521275.186875,9339
1659521275.226131,9373
1659521275.268117,9419
1659521275.310103,9463
1659521275.349017,9510
1659521275.387931,9567
1659521275.426845,9593
1659521275.468319,9504
1659521275.509793,9335
1659521275.55451,9193
1659521275.599227,9126
1659521275.643944,9074
1659521275.677737,9050
1659521275.711531,9065
1659521275.755224,9082
1659521275.798917,9083
1659521275.842609,9100
1659521275.875379,9104
1659521275.908149,9135
1659521275.952524,9180
1659521275.9969,9242
1659521276.041276,9291
1659521276.080189,9338
1659521276.119103,9396
1659521276.158017,9439
1659521276.199491,9497
1659521276.240965,9552
1659521276.279879,9582
1659521276.318793,9534
1659521276.357707,9379
1659521276.39628,9222
1659521276.434852,9142
1659521276.473425,9100
1659521276.512339,9081
1659521276.551253,9091
1659521276.590167,9111
1659521276.632153,9109
1659521276.674139,9113
1659521276.712712,9124
1659521276.751284,9162
1659521276.789857,9200
1659521276.830819,9239
1659521276.871781,9293
1659521276.915815,9334
1659521276.959849,9379
1659521277.003884,9417
1659521277.042115,9470
1659521277.080346,9519
1659521277.118577,9572
1659521277.160563,9584
1659521277.202549,9490
1659521277.241463,9293
1659521277.280377,9126
1659521277.319291,9030
1659521277.361278,8951
1659521277.403264,8901
1659521277.441836,8895
1659521277.480409,8914
1659521277.518981,8920
1659521277.558578,8909
1659521277.598175,8931
1659521277.637771,8958
1659521277.679757,9005
1659521277.721744,9056
1659521277.760316,9098
1659521277.798889,9148
1659521277.837461,9205
1659521277.876717,9253
1659521277.915972,9299
1659521277.955227,9354
1659521277.996189,9406
1659521278.037151,9464
1659521278.076065,9532
1659521278.114979,9534
1659521278.153893,9406
1659521278.195879,9211
1659521278.237865,9065
1659521278.276438,8972
1659521278.315011,8910
1659521278.353583,8876
1659521278.394545,8879
1659521278.435507,8903
1659521278.480566,8901
1659521278.525624,8917
1659521278.570682,8942
1659521278.604476,8973
1659521278.638269,9023
1659521278.682303,9072
1659521278.726338,9129
1659521278.770372,9183
1659521278.803654,9248
1659521278.836935,9288
1659521278.881311,9336
1659521278.925686,9386
1659521278.970062,9438
1659521279.008635,9491
1659521279.047207,9538
1659521279.08578,9584
1659521279.126742,9563
1659521279.167704,9396
1659521279.206959,9227
1659521279.246214,9137
1659521279.28547,9094
1659521279.32336,9055
1659521279.361249,9067
1659521279.399139,9063
1659521279.441638,9057
1659521279.484136,9057
1659521279.52305,9066
1659521279.561964,9088
1659521279.600878,9124
1659521279.63945,9179
1659521279.678023,9228
1659521279.716595,9292
1659521279.758069,9323
1659521279.799543,9366
1659521279.842041,9418
1659521279.88454,9465
1659521279.923112,9522
1659521279.961685,9575
1659521280.000257,9624
1659521280.041219,9585
1659521280.082181,9403
1659521280.121095,9199
1659521280.160009,9073
1659521280.198923,9003
1659521280.242616,8945
1659521280.286309,8935
1659521280.330002,8953
1659521280.363284,8957
1659521280.396565,8956
1659521280.441282,8964
1659521280.485999,8987
1659521280.530716,9021
1659521280.569288,9077
1659521280.607861,9124
1659521280.646434,9173
1659521280.68842,9221
1659521280.730406,9272
1659521280.769661,9323
1659521280.808917,9373
1659521280.848172,9416
1659521280.890158,9468
1659521280.932144,9531
1659521280.971058,9566
1659521281.009972,9489
1659521281.048886,9280
1659521281.090872,9103
1659521281.132858,8995
1659521281.171431,8925
1659521281.210003,8875
1659521281.248576,8880
1659521281.287148,8898
1659521281.325721,8907
1659521281.364294,8914
1659521281.406792,8933
1659521281.44929,8963
1659521281.488545,9013
1659521281.527801,9071
1659521281.567056,9122
1659521281.607506,9190
1659521281.647956,9233
1659521281.689942,9285
1659521281.731928,9343
1659521281.773914,9384
1659521281.8159,9439
1659521281.854814,9493
1659521281.893728,9551
1659521281.932642,9510
1659521281.971556,9369
1659521282.01047,9195
1659521282.049384,9101
1659521282.09137,9073
1659521282.133356,9048
1659521282.172611,9068
1659521282.211867,9084
1659521282.251122,9083
1659521282.291572,9069
1659521282.332022,9090
1659521282.370595,9117
1659521282.409167,9154
1659521282.44774,9214
1659521282.490238,9264
1659521282.532736,9328
1659521282.570626,9366
1659521282.608516,9411
1659521282.646406,9453
1659521282.687368,9503
1659521282.72833,9555
1659521282.767585,9601
1659521282.80684,9596
1659521282.846096,9431
1659521282.89013,9237
1659521282.934164,9099
1659521282.978199,9018
1659521283.020185,8959
1659521283.062171,8930
1659521283.101426,8940
1659521283.140681,8949
1659521283.179936,8955
1659521283.221411,8958
1659521283.262885,8979
1659521283.301116,9016
1659521283.339347,9050
1659521283.377578,9097
1659521283.416834,9145
1659521283.456089,9191
1659521283.495344,9242
1659521283.536818,9290
1659521283.578292,9339
1659521283.616865,9380
1659521283.655438,9439
1659521283.69401,9496
1659521283.732924,9560
1659521283.771838,9555
1659521283.810752,9407
1659521283.852226,9254
1659521283.8937,9142
1659521283.932956,9083
1659521283.972211,9048
1659521284.011466,9031
1659521284.053452,9048
1659521284.095438,9050
1659521284.134011,9051
1659521284.172584,9057
1659521284.211156,9087
1659521284.253142,9124
1659521284.295128,9170
1659521284.340187,9213
1659521284.385245,9269
1659521284.430303,9311
1659521284.463585,9351
1659521284.496866,9400
1659521284.540559,9440
1659521284.584252,9495
1659521284.627945,9556
1659521284.661227,9602
1659521284.694508,9561
1659521284.738884,9405
1659521284.783259,9280
1659521284.827635,9199
1659521284.866549,9156
1659521284.905463,9142
1659521284.944377,9164
1659521284.985851,9178
1659521285.027325,9167
1659521285.066239,9170
1659521285.105153,9182
1659521285.144067,9215
1659521285.182639,9249
1659521285.221212,9298
1659521285.259784,9372
1659521285.302283,9446
1659521285.344781,9511
1659521285.383353,9569
1659521285.421926,9613
1659521285.460499,9631
1659521285.501973,9650
1659521285.543447,9665
1659521285.582019,9661
1659521285.620592,9561
1659521285.659164,9405
1659521285.697737,9291
1659521285.73631,9242
1659521285.774882,9213
1659521285.816869,9218
1659521285.858855,9249
1659521285.899817,9245
1659521285.940779,9248
1659521285.979351,9248
1659521286.017924,9286
1659521286.056496,9323
1659521286.100531,9378
1659521286.144565,9422
1659521286.188599,9480
1659521286.222393,9536
1659521286.256186,9581
1659521286.300903,9621
1659521286.34562,9664
1659521286.390337,9719
1659521286.423619,9764
1659521286.4569,9819
1659521286.500935,9726
1659521286.544969,9518
1659521286.589003,9329
1659521286.627576,9213
1659521286.666148,9124
1659521286.704721,9039
1659521286.747219,8997
1659521286.789717,9006
1659521286.827948,9005
1659521286.86618,8990
1659521286.904411,8988
1659521286.943325,9015
1659521286.982239,9046
1659521287.021153,9101
1659521287.059725,9147
1659521287.098298,9189
1659521287.13687,9234
1659521287.178344,9283
1659521287.219819,9339
1659521287.259757,9394
1659521287.299695,9458
1659521287.339633,9519
1659521287.384008,9516
1659521287.428384,9389
1659521287.472759,9202
1659521287.514233,9077
1659521287.555707,8996
1659521287.594963,8939
1659521287.634218,8915
1659521287.673473,8928
1659521287.714947,8945
1659521287.756422,8952
1659521287.795677,8956
1659521287.834932,8975
1659521287.874187,9018
1659521287.913101,9063
1659521287.952015,9119
1659521287.990929,9179
1659521288.031891,9224
1659521288.072853,9272
1659521288.110743,9329
1659521288.148633,9375
1659521288.186523,9433
1659521288.225778,9478
1659521288.265033,9552
1659521288.304289,9611
1659521288.345763,9666
1659521288.387237,9567
1659521288.42581,9363
1659521288.464382,9201
1659521288.502955,9095
1659521288.544941,9027
1659521288.586927,8978
1659521288.625499,8983
1659521288.664072,8990
1659521288.702645,8994
1659521288.744119,8983
1659521288.785593,8987
1659521288.83031,9014
1659521288.875027,9043
1659521288.919744,9088
1659521288.952513,9138
1659521288.985283,9185
1659521289.029317,9227
1659521289.073351,9267
1659521289.117386,9304
1659521289.155958,9349
1659521289.194531,9407
1659521289.233103,9441
1659521289.275601,9381
1659521289.318099,9203
1659521289.355989,9016
1659521289.393879,8901
1659521289.431769,8834
1659521289.473243,8794
1659521289.514717,8793
1659521289.553973,8824
1659521289.593228,8819
1659521289.632483,8815
1659521289.671056,8823
1659521289.709629,8849
1659521289.748201,8898
1659521289.790699,8941
1659521289.833197,8987
1659521289.872453,9031
1659521289.911708,9080
1659521289.950963,9124
1659521289.991413,9181
1659521290.031863,9226
1659521290.070777,9261
1659521290.109691,9183
1659521290.148605,9006
1659521290.18786,8842
1659521290.227116,8767
1659521290.266371,8722
1659521290.307333,8701
1659521290.348295,8735
1659521290.389257,8754
1659521290.430219,8764
1659521290.469475,8767
1659521290.50873,8805
1659521290.547985,8843
1659521290.588128,8903
1659521290.628271,8952
1659521290.668413,9010
1659521290.708556,9069
1659521290.748699,9127
1659521290.790173,9173
1659521290.831647,9225
1659521290.870903,9285
1659521290.910158,9345
1659521290.949413,9379
1659521290.993447,9254
1659521291.037482,9067
1659521291.081516,8951
1659521291.124014,8889
1659521291.166512,8864
1659521291.205085,8867
1659521291.243657,8901
1659521291.28223,8915
1659521291.320802,8908
1659521291.359375,8913
1659521291.397948,8932
1659521291.43891,8985
1659521291.479872,9028
1659521291.519127,9086
1659521291.558382,9128
1659521291.597638,9174
1659521291.6386,9219
1659521291.679562,9273
1659521291.718476,9326
1659521291.75739,9374
1659521291.796304,9385
1659521291.835559,9252
1659521291.874814,9065
1659521291.914069,8940
1659521291.955544,8881
1659521291.997018,8868
1659521292.035249,8877
1659521292.07348,8904
1659521292.111711,8905
1659521292.154209,8916
1659521292.196707,8923
1659521292.234939,8940
1659521292.27317,8982
1659521292.311401,9021
1659521292.352875,9059
1659521292.394349,9110
1659521292.433605,9157
1659521292.47286,9211
1659521292.512115,9253
1659521292.553077,9304
1659521292.594039,9378
1659521292.637732,9415
1659521292.681425,9343
1659521292.725118,9121
1659521292.764373,8947
1659521292.803629,8849
1659521292.842884,8803
1659521292.885382,8749
1659521292.92788,8746
1659521292.966453,8774
1659521293.005025,8773
1659521293.043598,8773
1659521293.085584,8790
1659521293.12757,8832
1659521293.167167,8870
1659521293.206764,8939
1659521293.24636,8992
1659521293.28425,9035
1659521293.32214,9102
1659521293.36003,9158
1659521293.40304,9220
1659521293.44605,9275
1659521293.484623,9344
1659521293.523195,9366
1659521293.561768,9241
1659521293.602218,9022
1659521293.642668,8857
1659521293.681582,8789
1659521293.720496,8742
1659521293.75941,8737
1659521293.798665,8768
1659521293.83792,8798
1659521293.877176,8806
1659521293.91865,8827
1659521293.960124,8854
1659521293.999379,8902
1659521294.038634,8960
1659521294.07789,9010
1659521294.119876,9060
1659521294.161862,9122
1659521294.205896,9169
1659521294.24993,9224
1659521294.293964,9283
1659521294.327758,9337
1659521294.361552,9398
1659521294.40661,9461
1659521294.451668,9443
1659521294.496727,9273
1659521294.528472,9091
1659521294.560218,8994
1659521294.604593,8961
1659521294.648969,8960
1659521294.693344,8987
1659521294.731917,9027
1659521294.77049,9020
1659521294.809062,9012
1659521294.851048,9014
1659521294.893034,9026
1659521294.931266,9052
1659521294.969497,9094
1659521295.007728,9138
1659521295.049714,9183
1659521295.0917,9244
1659521295.130273,9284
1659521295.168846,9331
1659521295.207418,9395
1659521295.246674,9448
1659521295.285929,9493
1659521295.325184,9518
1659521295.36717,9400
1659521295.409156,9162
1659521295.44807,8975
1659521295.486984,8872
1659521295.525898,8803
1659521295.566348,8771
1659521295.606798,8779
1659521295.646395,8806
1659521295.685992,8821
1659521295.725588,8814
1659521295.76655,8830
1659521295.807512,8870
1659521295.846085,8914
1659521295.884657,8972
1659521295.92323,9023
1659521295.964704,9084
1659521296.006178,9126
1659521296.045775,9188
1659521296.085371,9216
1659521296.124968,9267
1659521296.169002,9333
1659521296.213037,9360
1659521296.257071,9264
1659521296.290352,9055
1659521296.323634,8897
1659521296.368351,8803
1659521296.413068,8751
1659521296.457785,8726
1659521296.499771,8744
1659521296.541757,8760
1659521296.581012,8742
1659521296.620268,8747
1659521296.659523,8759
1659521296.698778,8787
1659521296.738033,8827
1659521296.777289,8883
1659521296.817739,8921
1659521296.858189,8962
1659521296.896761,9017
1659521296.935334,9065
1659521296.973907,9114
1659521297.013162,9171
1659521297.052417,9225
1659521297.091672,9259
1659521297.133147,9149
1659521297.174621,8927
1659521297.213193,8747
1659521297.251766,8652
1659521297.290338,8574
1659521297.332836,8524
1659521297.375335,8540
1659521297.415068,8559
1659521297.454801,8585
1659521297.494534,8605
1659521297.534267,8626
1659521297.574001,8680
1659521297.613597,8722
1659521297.653194,8792
1659521297.692791,8837
1659521297.736483,8895
1659521297.780176,8947
1659521297.823869,8991
1659521297.855615,9054
1659521297.88736,9111
1659521297.932077,9184
1659521297.976794,9248
1659521298.021511,9262
1659521298.059742,9155
1659521298.097973,8950
1659521298.136205,8825
1659521298.177679,8759
1659521298.219153,8704
1659521298.258067,8694
1659521298.296981,8737
1659521298.335895,8748
1659521298.374467,8737
1659521298.41304,8749
1659521298.451612,8776
1659521298.492574,8811
1659521298.533536,8852
1659521298.573133,8908
1659521298.61273,8955
1659521298.652327,9015
1659521298.6938,9063
1659521298.735275,9105
1659521298.773847,9169
1659521298.81242,9221
1659521298.850992,9286
1659521298.892467,9318
1659521298.933941,9214
1659521298.973537,9007
1659521299.013134,8848
1659521299.052731,8761
1659521299.093181,8690
1659521299.133631,8664
1659521299.172544,8680
1659521299.211458,8697
1659521299.250372,8684
1659521299.294748,8687
1659521299.339123,8716
1659521299.383499,8747
1659521299.424461,8797
1659521299.465423,8838
1659521299.50502,8896
1659521299.544616,8947
1659521299.584213,9002
1659521299.626199,9050
1659521299.668185,9095
1659521299.706758,9161
1659521299.745331,9212
1659521299.783903,9265
1659521299.825889,9308
1659521299.867875,9237
1659521299.907472,9007
1659521299.947069,8799
1659521299.986665,8679
1659521300.024896,8599
1659521300.063128,8558
1659521300.101359,8568
1659521300.142321,8610
1659521300.183283,8639
1659521300.222197,8655
1659521300.261111,8682
1659521300.300025,8730
1659521300.338256,8766
1659521300.376487,8815
1659521300.414719,8861
1659521300.456705,8906
1659521300.498691,8939
1659521300.537946,8991
1659521300.577201,9027
1659521300.616457,9072
1659521300.658443,9137
1659521300.700429,9196
1659521300.739002,9253
1659521300.777574,9295
1659521300.816147,9200
1659521300.858133,9001
1659521300.900119,8847
1659521300.944494,8759
1659521300.98887,8704
1659521301.033246,8684
1659521301.066015,8692
1659521301.098785,8714
1659521301.142819,8717
1659521301.186853,8712
1659521301.230887,8725
1659521301.26946,8761
1659521301.308033,8801
1659521301.346605,8841
1659521301.388079,8892
1659521301.429554,8944
1659521301.468126,8998
1659521301.506699,9048
1659521301.545271,9088
1659521301.586233,9135
1659521301.627195,9176
1659521301.666109,9225
1659521301.705023,9284
1659521301.743937,9304
1659521301.782851,9203
1659521301.821765,8991
1659521301.860679,8829
1659521301.903177,8734
1659521301.945675,8696
1659521301.984248,8676
1659521302.02282,8696
1659521302.061393,8727
1659521302.102867,8727
1659521302.144341,8730
1659521302.183596,8762
1659521302.222852,8803
1659521302.262107,8852
1659521302.301021,8895
1659521302.339935,8966
1659521302.378849,9015
1659521302.419811,9096
1659521302.460773,9136
1659521302.502759,9186
1659521302.544745,9250
1659521302.583318,9295
1659521302.62189,9352
1659521302.660463,9411
1659521302.702193,9416
1659521302.743923,9258
1659521302.785653,9069
1659521302.827383,8929
1659521302.870394,8869
1659521302.913404,8838
1659521302.951976,8821
1659521302.990549,8838
1659521303.029121,8862
1659521303.068377,8867
1659521303.107632,8872
1659521303.146887,8905
1659521303.188874,8949
1659521303.23086,9006
1659521303.269091,9074
1659521303.307322,9123
1659521303.345553,9184
1659521303.388051,9238
1659521303.43055,9292
1659521303.469463,9332
1659521303.508377,9382
1659521303.547291,9436
1659521303.587741,9480
1659521303.628191,9543
1659521303.666423,9583
1659521303.704654,9519
1659521303.742885,9290
1659521303.785383,9088
1659521303.827881,8996
1659521303.872257,8925
1659521303.916632,8878
1659521303.961008,8874
1659521303.999581,8900
1659521304.038153,8895
1659521304.076726,8911
1659521304.118712,8935
1659521304.160698,8974
1659521304.199271,9038
1659521304.237843,9091
1659521304.276416,9143
1659521304.314988,9207
1659521304.353561,9266
1659521304.392134,9319
1659521304.434632,9374
1659521304.47713,9434
1659521304.515361,9489
1659521304.553592,9543
1659521304.591824,9612
1659521304.632786,9658
1659521304.673748,9605
1659521304.712662,9399
1659521304.751576,9240
1659521304.790489,9182
1659521304.829745,9145
1659521304.869,9146
1659521304.908255,9170
1659521304.949218,9199
1659521304.99018,9191
1659521305.029435,9208
1659521305.06869,9214
1659521305.107945,9247
1659521305.14942,9310
1659521305.190894,9355
1659521305.230149,9401
1659521305.269404,9463
1659521305.30866,9508
1659521305.349622,9553
1659521305.390584,9606
1659521305.435642,9657
1659521305.4807,9711
1659521305.525758,9767
1659521305.558528,9774
1659521305.591298,9645
1659521305.635332,9451
1659521305.679366,9287
1659521305.7234,9216
1659521305.762655,9179
1659521305.801911,9159
1659521305.841166,9172
1659521305.88264,9180
1659521305.924114,9190
1659521305.962687,9189
1659521306.001259,9229
1659521306.039832,9277
1659521306.081818,9331
1659521306.123804,9391
1659521306.163059,9432
1659521306.202315,9474
1659521306.24157,9496
1659521306.280484,9540
1659521306.319398,9591
1659521306.358312,9655
1659521306.400298,9715
1659521306.442284,9735
1659521306.481539,9628
1659521306.520795,9382
1659521306.56005,9199
1659521306.601524,9078
1659521306.642998,9000
1659521306.681912,8947
1659521306.720826,8957
1659521306.75974,8966
1659521306.797971,8966
1659521306.836203,8984
1659521306.874434,9001
1659521306.914884,9040
1659521306.955334,9078
1659521306.99732,9138
1659521307.039306,9190
1659521307.07822,9229
1659521307.117134,9275
1659521307.156048,9316
1659521307.200082,9351
1659521307.244116,9400
1659521307.288151,9458
1659521307.321432,9495
1659521307.354714,9435
1659521307.399431,9255
1659521307.444148,9089
1659521307.488864,9003
1659521307.521634,8975
1659521307.554404,8958
1659521307.598779,8972
1659521307.643155,9002
1659521307.687531,9006
1659521307.726786,9010
1659521307.766041,9021
1659521307.805296,9060
1659521307.845746,9110
1659521307.886196,9168
1659521307.923574,9213
1659521307.960952,9265
1659521307.99833,9315
1659521308.035708,9339
1659521308.07667,9379
1659521308.117632,9422
1659521308.156546,9470
1659521308.19546,9501
1659521308.234374,9444
1659521308.279091,9237
1659521308.323808,9068
1659521308.368525,9002
1659521308.410511,8979
1659521308.452497,8972
1659521308.490728,8990
1659521308.528959,9009
1659521308.56719,9008
1659521308.609177,9012
1659521308.651163,9010
1659521308.690759,9030
1659521308.730356,9058
1659521308.769953,9090
1659521308.808867,9138
1659521308.84778,9191
1659521308.886694,9241
1659521308.928169,9289
1659521308.969643,9337
1659521309.008557,9375
1659521309.047471,9407
1659521309.086385,9414
1659521309.127858,9295
1659521309.169333,9075
1659521309.208246,8881
1659521309.24716,8768
1659521309.286074,8694
1659521309.324647,8621
1659521309.363219,8588
1659521309.401792,8602
1659521309.442754,8631
1659521309.483716,8664
1659521309.52263,8701
1659521309.561544,8738
1659521309.600458,8779
1659521309.642956,8821
1659521309.685454,8853
1659521309.724027,8881
1659521309.7626,8904
1659521309.801172,8915
1659521309.842646,8917
1659521309.88412,8941
1659521309.928154,8976
1659521309.972189,9020
1659521310.016223,8991
1659521310.050017,8857
1659521310.08381,8709
1659521310.127503,8630
1659521310.171196,8581
1659521310.214889,8604
1659521310.253803,8662
1659521310.292717,8710
1659521310.331631,8739
1659521310.372081,8764
1659521310.412531,8793
1659521310.451445,8836
1659521310.490359,8899
1659521310.529273,8951
1659521310.571259,9000
1659521310.613245,9062
1659521310.652159,9111
1659521310.691073,9168
1659521310.729987,9218
1659521310.768901,9261
1659521310.807815,9247
1659521310.846729,9113
1659521310.888203,8920
1659521310.929677,8806
1659521310.96859,8764
1659521311.007504,8748
1659521311.046418,8775
1659521311.084991,8804
1659521311.123564,8798
1659521311.162136,8799
1659521311.203098,8807
1659521311.24406,8819
1659521311.283316,8849
1659521311.322571,8900
1659521311.361826,8928
1659521311.402276,8968
1659521311.442726,8990
1659521311.487102,9017
1659521311.531477,9064
1659521311.575853,9098
1659521311.610159,9072
1659521311.644464,8894
1659521311.68884,8690
1659521311.733216,8552
1659521311.777591,8473
1659521311.810361,8409
1659521311.84313,8378
1659521311.888189,8389
1659521311.933247,8388
1659521311.978305,8386
1659521312.012099,8392
1659521312.045892,8407
1659521312.090268,8439
1659521312.134644,8493
1659521312.179019,8559
1659521312.218274,8600
1659521312.25753,8656
1659521312.296785,8712
1659521312.337747,8764
1659521312.378709,8822
1659521312.417282,8837
1659521312.455854,8737
1659521312.494427,8542
1659521312.536413,8389
1659521312.578399,8315
1659521312.616972,8278
1659521312.655544,8253
1659521312.694117,8278
1659521312.732689,8311
1659521312.771262,8299
1659521312.809835,8297
1659521312.852333,8307
1659521312.894831,8336
1659521312.933745,8387
1659521312.972659,8441
1659521313.011573,8506
1659521313.052535,8545
1659521313.093497,8602
1659521313.132752,8644
1659521313.172008,8701
1659521313.211263,8748
1659521313.253249,8698
1659521313.295235,8566
1659521313.333466,8438
1659521313.371697,8382
1659521313.409929,8363
1659521313.454304,8359
1659521313.49868,8393
1659521313.543055,8428
1659521313.575313,8457
1659521313.607571,8469
1659521313.651263,8501
1659521313.694956,8535
1659521313.738649,8585
1659521313.777905,8638
1659521313.81716,8693
1659521313.856415,8755
1659521313.898401,8802
1659521313.940387,8865
1659521313.97896,8911
1659521314.017532,8975
1659521314.056105,9028
1659521314.09536,9077
1659521314.134616,9083
1659521314.173871,8935
1659521314.215857,8773
1659521314.257843,8674
1659521314.296074,8607
1659521314.334306,8563
1659521314.372537,8552
1659521314.415035,8572
1659521314.457533,8582
1659521314.496106,8598
1659521314.534678,8602
1659521314.573251,8615
1659521314.614725,8649
1659521314.656199,8683
1659521314.694772,8726
1659521314.733344,8775
1659521314.771917,8832
1659521314.814415,8879
1659521314.856913,8930
1659521314.895827,8972
1659521314.934741,9014
1659521314.973655,9081
1659521315.01803,9126
1659521315.062406,9152
1659521315.106781,9046
1659521315.148768,8861
1659521315.190754,8739
1659521315.229326,8667
1659521315.267899,8620
1659521315.306472,8599
1659521315.348458,8625
1659521315.390444,8641
1659521315.429699,8639
1659521315.468954,8644
1659521315.50821,8660
1659521315.546782,8691
1659521315.585355,8726
1659521315.623927,8765
1659521315.66489,8802
1659521315.705852,8853
1659521315.745107,8895
1659521315.784362,8928
1659521315.823617,8976
1659521315.862531,9011
1659521315.901445,9063
1659521315.940359,9091
1659521315.980809,9048
1659521316.021259,8897
1659521316.060173,8736
1659521316.099087,8662
1659521316.138001,8620
1659521316.180499,8607
1659521316.222997,8607
1659521316.261229,8637
1659521316.29946,8635
1659521316.337691,8640
1659521316.379165,8658
1659521316.420639,8680
1659521316.460236,8723
1659521316.499833,8760
1659521316.539429,8799
1659521316.580903,8844
1659521316.622377,8888
1659521316.666412,8921
1659521316.710446,8959
1659521316.75448,9010
1659521316.793394,9049
1659521316.832308,9100
1659521316.871222,9145
1659521316.911672,9168
1659521316.952122,9072
1659521316.990353,8884
1659521317.028584,8739
1659521317.066816,8661
1659521317.109826,8610
1659521317.152836,8581
1659521317.191409,8580
1659521317.229981,8615
1659521317.268554,8611
1659521317.307126,8614
1659521317.345699,8627
1659521317.384272,8656
1659521317.42677,8703
1659521317.469268,8750
1659521317.50784,8790
1659521317.546413,8833
1659521317.584985,8882
1659521317.623558,8919
1659521317.662131,8955
1659521317.700703,9006
1659521317.743201,9048
1659521317.7857,9115
1659521317.823931,9157
1659521317.862162,9181
1659521317.900393,9095
1659521317.941867,8926
1659521317.983341,8808
1659521318.022255,8751
1659521318.061169,8723
1659521318.100083,8712
1659521318.142581,8734
1659521318.18508,8743
1659521318.228772,8730
1659521318.272465,8737
1659521318.316158,8749
1659521318.349952,8777
1659521318.383745,8809
1659521318.425476,8852
1659521318.467206,8898
1659521318.508936,8946
1659521318.550666,8984
1659521318.59214,9030
1659521318.633614,9077
1659521318.673211,9109
1659521318.712807,9162
1659521318.752404,9208
1659521318.790977,9264
1659521318.829549,9306
1659521318.868122,9261
1659521318.909084,9101
1659521318.950046,8944
1659521318.98896,8866
1659521319.027874,8822
1659521319.066788,8788
1659521319.108262,8791
1659521319.149736,8802
1659521319.188308,8818
1659521319.226881,8821
1659521319.265454,8819
1659521319.306416,8837
1659521319.347378,8869
1659521319.38595,8913
1659521319.424523,8949
1659521319.463095,9003
1659521319.507471,9042
1659521319.551847,9083
1659521319.596222,9132
1659521319.63872,9176
1659521319.681218,9221
1659521319.720132,9271
1659521319.759046,9326
1659521319.79796,9375
1659521319.838922,9431
1659521319.879884,9426
1659521319.918457,9292
1659521319.95703,9131
1659521319.995602,9029
1659521320.034175,8985
1659521320.072747,8956
1659521320.11132,8949
1659521320.153306,8964
1659521320.195292,8980
1659521320.233865,8976
1659521320.272437,8971
1659521320.31101,8985
1659521320.349924,9015
1659521320.388838,9049
1659521320.427752,9083
1659521320.469226,9123
1659521320.5107,9170
1659521320.549273,9207
1659521320.587845,9247
1659521320.626418,9283
1659521320.668916,9327
1659521320.711414,9372
1659521320.750328,9415
1659521320.789242,9440
1659521320.828156,9343
1659521320.86963,9167
1659521320.911104,9025
1659521320.950359,8953
1659521320.989614,8913
1659521321.02887,8882
1659521321.070856,8885
1659521321.112842,8903
1659521321.156535,8909
1659521321.200228,8903
1659521321.243921,8914
1659521321.282835,8949
1659521321.321748,8991
1659521321.360662,9047
1659521321.401624,9082
1659521321.442586,9124
1659521321.481159,9173
1659521321.519732,9227
1659521321.558304,9267
1659521321.60029,9316
1659521321.642277,9367
1659521321.681532,9412
1659521321.720787,9476
1659521321.760042,9470
1659521321.798274,9325
1659521321.836505,9145
1659521321.874736,9022
1659521321.916722,8960
1659521321.958708,8906
1659521321.998305,8897
1659521322.037902,8908
1659521322.077498,8933
1659521322.116071,8944
1659521322.154644,8950
1659521322.193216,8975
1659521322.23469,9008
1659521322.276164,9049
1659521322.314737,9104
1659521322.353309,9147
1659521322.391882,9193
1659521322.433356,9241
1659521322.47483,9271
1659521322.513744,9301
1659521322.552658,9336
1659521322.591572,9377
1659521322.632534,9409
1659521322.673496,9432
1659521322.71753,9338
1659521322.761564,9162
1659521322.805599,9036
1659521322.83888,8978
1659521322.872162,8954
1659521322.91722,8942
1659521322.962279,8954
1659521323.007337,8968
1659521323.045568,8976
1659521323.083799,8981
1659521323.12203,9009
1659521323.163505,9046
1659521323.204979,9084
1659521323.243893,9123
1659521323.282807,9159
1659521323.321721,9218
1659521323.363707,9272
1659521323.405693,9328
1659521323.444265,9389
1659521323.482838,9453
1659521323.52141,9544
1659521323.560324,9635
1659521323.599238,9757
1659521323.638152,9829
1659521323.678602,9774
1659521323.719052,9672
1659521323.758308,9623
1659521323.797563,9611
1659521323.836818,9603
1659521323.879316,9605
1659521323.921814,9649
1659521323.960728,9705
1659521323.999642,9732
1659521324.038556,9751
1659521324.08003,9802
1659521324.121505,9853
1659521324.16076,9903
1659521324.200015,9932
1659521324.23927,9986
1659521324.281256,10032
1659521324.323243,10072
1659521324.362157,10127
1659521324.401071,10172
1659521324.439985,10219
1659521324.480947,10264
1659521324.521909,10285
1659521324.561164,10344
1659521324.600419,10303
1659521324.639674,10120
1659521324.683367,9912
1659521324.72706,9761
1659521324.770753,9682
1659521324.804547,9625
1659521324.83834,9614
1659521324.882716,9619
1659521324.927092,9646
1659521324.971467,9646
1659521325.010381,9646
1659521325.049295,9677
1659521325.088209,9737
1659521325.129683,9819
1659521325.171157,9912
1659521325.210071,10002
1659521325.248985,10097
1659521325.287899,10176
1659521325.329885,10257
1659521325.371871,10333
1659521325.410785,10426
1659521325.449699,10512
1659521325.488613,10544
1659521325.527527,10421
1659521325.566441,10225
1659521325.605355,10109
1659521325.646317,10044
1659521325.687279,9992
1659521325.725852,9961
1659521325.764424,9964
1659521325.802997,9945
1659521325.844983,9927
1659521325.886969,9901
1659521325.928187,9909
1659521325.969405,9978
1659521326.010623,10040
1659521326.051841,10113
1659521326.090755,10186
1659521326.129669,10269
1659521326.168583,10348
1659521326.210569,10432
1659521326.252555,10508
1659521326.291128,10566
1659521326.3297,10637
1659521326.368273,10698
1659521326.407528,10676
1659521326.446784,10470
1659521326.486039,10246
1659521326.528537,10120
1659521326.571035,10042
1659521326.608925,9989
1659521326.646815,9969
1659521326.684705,9961
1659521326.726179,9955
1659521326.767653,9924
1659521326.806567,9909
1659521326.845481,9888
1659521326.884395,9899
1659521326.926381,9920
1659521326.968367,9932
1659521327.006939,9944
1659521327.045512,9960
1659521327.084085,9985
1659521327.126071,10014
1659521327.168057,10074
1659521327.212774,10141
1659521327.257491,10168
1659521327.302208,10039
1659521327.34078,9793
1659521327.379353,9598
1659521327.417925,9480
1659521327.460936,9416
1659521327.503946,9376
1659521327.54286,9380
1659521327.581774,9382
1659521327.620687,9360
1659521327.66165,9362
1659521327.702612,9375
1659521327.741867,9426
1659521327.781122,9474
1659521327.820378,9516
1659521327.859292,9581
1659521327.898206,9635
1659521327.937119,9678
1659521327.978081,9718
1659521328.019043,9762
1659521328.057957,9814
1659521328.096871,9866
1659521328.135785,9860
1659521328.174016,9691
1659521328.212248,9463
1659521328.250479,9318
1659521328.292465,9255
1659521328.334451,9225
1659521328.373707,9202
1659521328.412962,9212
1659521328.452217,9232
1659521328.493179,9240
1659521328.534141,9244
1659521328.572714,9248
1659521328.611286,9287
1659521328.649859,9331
1659521328.691845,9391
1659521328.733831,9446
1659521328.778548,9498
1659521328.823265,9557
1659521328.867982,9617
1659521328.900239,9667
1659521328.932497,9733
1659521328.97223,9796
1659521329.011964,9808
1659521329.051697,9667
1659521329.09143,9423
1659521329.131163,9253
1659521329.172637,9184
1659521329.214111,9138
1659521329.252342,9115
1659521329.290574,9127
1659521329.328805,9147
1659521329.373522,9147
1659521329.418239,9143
1659521329.462956,9159
1659521329.503918,9190
1659521329.54488,9230
1659521329.584135,9279
1659521329.62339,9326
1659521329.662646,9389
1659521329.704632,9421
1659521329.746618,9461
1659521329.785532,9520
1659521329.824446,9576
1659521329.86336,9638
1659521329.901932,9654
1659521329.940505,9539
1659521329.979078,9301
1659521330.021576,9148
1659521330.064074,9070
1659521330.102988,9023
1659521330.141902,9014
1659521330.180816,9033
1659521330.221266,9049
1659521330.261716,9044
1659521330.300288,9039
1659521330.338861,9042
1659521330.377434,9056
1659521330.41703,9091
1659521330.456627,9125
1659521330.496223,9171
1659521330.537698,9213
1659521330.579172,9260
1659521330.618085,9298
1659521330.656999,9337
1659521330.695913,9392
1659521330.738411,9447
1659521330.78091,9515
1659521330.819141,9560
1659521330.857372,9483
1659521330.895603,9256
1659521330.937589,9074
1659521330.979576,8989
1659521331.024292,8960
1659521331.069009,8951
1659521331.113726,8957
1659521331.152299,8971
1659521331.190871,8973
1659521331.229444,8951
1659521331.270406,8927
1659521331.311368,8934
1659521331.350623,8954
1659521331.389879,8984
1659521331.429134,9029
1659521331.47112,9081
1659521331.513106,9132
1659521331.550996,9190
1659521331.588886,9232
1659521331.626776,9292
1659521331.666373,9342
1659521331.705969,9381
1659521331.745566,9355
1659521331.786528,9160
1659521331.82749,8943
1659521331.866063,8822
1659521331.904635,8787
1659521331.943208,8764
1659521331.985706,8784
1659521332.028204,8833
1659521332.066777,8848
1659521332.105349,8853
1659521332.143922,8862
1659521332.182153,8891
1659521332.220384,8921
1659521332.258615,8988
1659521332.30009,9035
1659521332.341564,9099
1659521332.38355,9161
1659521332.425536,9222
1659521332.463767,9291
1659521332.501998,9347
1659521332.54023,9409
1659521332.584947,9477
1659521332.629663,9542
1659521332.67438,9581
1659521332.70715,9463
1659521332.73992,9219
1659521332.783954,8994
1659521332.827988,8885
1659521332.872022,8830
1659521332.906328,8802
1659521332.940634,8816
1659521332.985351,8851
1659521333.030067,8874
1659521333.074784,8881
1659521333.113698,8898
1659521333.152612,8930
1659521333.191526,8976
1659521333.233,9024
1659521333.274474,9073
1659521333.314071,9130
1659521333.353668,9189
1659521333.393264,9225
1659521333.433714,9262
1659521333.474164,9302
1659521333.513078,9348
1659521333.551992,9395
1659521333.590906,9453
1659521333.629479,9427
1659521333.668051,9256
1659521333.706624,9097
1659521333.749122,9016
1659521333.79162,9006
1659521333.830534,8995
1659521333.869448,9011
1659521333.908362,9034
1659521333.950348,9032
1659521333.992334,9029
1659521334.031248,9032
1659521334.070162,9069
1659521334.109076,9130
1659521334.151062,9195
1659521334.193048,9251
1659521334.234778,9293
1659521334.276509,9341
1659521334.318238,9373
1659521334.359969,9414
1659521334.3982,9458
1659521334.436431,9524
1659521334.474662,9577
1659521334.513918,9624
1659521334.553173,9492
1659521334.592428,9274
1659521334.63339,9120
1659521334.674352,9042
1659521334.712925,8996
1659521334.751498,8973
1659521334.79007,8980
1659521334.831032,9009
1659521334.871994,9020
1659521334.91125,9031
1659521334.950505,9053
1659521334.98976,9088
1659521335.031234,9120
1659521335.072708,9155
1659521335.11094,9211
1659521335.149171,9261
1659521335.187402,9316
1659521335.229388,9349
1659521335.271374,9391
1659521335.31063,9444
1659521335.349885,9505
1659521335.38914,9573
1659521335.433516,9591
1659521335.477891,9456
1659521335.522267,9222
1659521335.563741,9052
1659521335.605215,8954
1659521335.644129,8889
1659521335.683043,8851
1659521335.721957,8854
1659521335.762407,8865
1659521335.802857,8887
1659521335.842453,8894
1659521335.88205,8913
1659521335.921647,8956
1659521335.960219,9014
1659521335.998792,9083
1659521336.037364,9142
1659521336.078327,9202
1659521336.119289,9266
1659521336.158544,9332
1659521336.197799,9393
1659521336.237055,9446
1659521336.279553,9495
1659521336.322051,9582
1659521336.360282,9644
1659521336.398513,9643
1659521336.436744,9452
1659521336.476341,9253
1659521336.515938,9142
1659521336.555535,9089
1659521336.596497,9055
1659521336.637459,9045
1659521336.676031,9074
1659521336.714604,9084
1659521336.753176,9104
1659521336.795675,9121
1659521336.838173,9158
1659521336.88289,9215
1659521336.927606,9271
1659521336.972323,9328
1659521337.004069,9392
1659521337.035815,9453
1659521337.080531,9503
1659521337.125248,9554
1659521337.169965,9603
1659521337.204271,9640
1659521337.238577,9690
1659521337.282952,9749
1659521337.327328,9794
1659521337.371703,9707
1659521337.410617,9481
1659521337.449531,9296
1659521337.488445,9219
1659521337.530431,9195
1659521337.572417,9199
1659521337.610649,9226
1659521337.64888,9263
1659521337.687111,9264
1659521337.729097,9271
1659521337.771083,9285
1659521337.809656,9310
1659521337.848228,9348
1659521337.886801,9380
1659521337.925032,9428
1659521337.963264,9477
1659521338.001495,9515
1659521338.042457,9566
1659521338.083419,9620
1659521338.122333,9677
1659521338.161247,9727
1659521338.200161,9797
1659521338.239075,9847
1659521338.277989,9799
1659521338.316903,9599
1659521338.358377,9407
1659521338.399851,9310
1659521338.441325,9264
1659521338.482799,9229
1659521338.521372,9235
1659521338.559944,9250
1659521338.598517,9263
1659521338.642892,9270
1659521338.687268,9274
1659521338.731643,9289
1659521338.765437,9345
1659521338.799231,9398
1659521338.843606,9456
1659521338.887982,9512
1659521338.932357,9565
1659521338.965127,9635
1659521338.997897,9684
1659521339.041931,9740
1659521339.085965,9810
1659521339.129999,9882
1659521339.169255,9907
1659521339.20851,9790
1659521339.247765,9590
1659521339.288727,9441
1659521339.329689,9364
1659521339.368945,9332
1659521339.4082,9328
1659521339.447455,9342
1659521339.486711,9368
1659521339.525966,9374
1659521339.565221,9376
1659521339.607207,9404
1659521339.649193,9429
1659521339.688107,9467
1659521339.727021,9510
1659521339.765935,9560
1659521339.807921,9618
1659521339.849907,9667
1659521339.88848,9735
1659521339.927052,9798
1659521339.965625,9856
1659521340.010001,9915
1659521340.054376,9980
1659521340.098752,10020
1659521340.133057,9896
1659521340.167363,9669
1659521340.210715,9507
1659521340.254066,9407
1659521340.297418,9346
1659521340.33599,9313
1659521340.374563,9315
1659521340.413136,9328
1659521340.45461,9340
1659521340.496083,9334
1659521340.534997,9347
1659521340.573911,9391
1659521340.612825,9430
1659521340.651398,9481
1659521340.689971,9530
1659521340.728543,9587
1659521340.771553,9642
1659521340.814564,9685
1659521340.853136,9737
1659521340.891709,9786
1659521340.930281,9846
1659521340.971243,9899
1659521341.012205,9906
1659521341.051461,9774
1659521341.090716,9565
1659521341.129971,9435
1659521341.168544,9358
1659521341.207117,9314
1659521341.245689,9281
1659521341.286651,9303
1659521341.327613,9308
1659521341.366527,9291
1659521341.405441,9303
1659521341.444355,9327
1659521341.485317,9380
1659521341.526279,9437
1659521341.570313,9497
1659521341.614347,9577
1659521341.658382,9632
1659521341.692688,9694
1659521341.726993,9745
1659521341.771369,9801
1659521341.815744,9839
1659521341.86012,9893
1659521341.892377,9954
1659521341.924635,9948
1659521341.969693,9778
1659521342.014752,9550
1659521342.05981,9386
1659521342.099065,9290
1659521342.13832,9214
1659521342.177576,9161
1659521342.218026,9166
1659521342.258476,9162
1659521342.297731,9159
1659521342.336986,9154
1659521342.376242,9175
1659521342.417204,9200
1659521342.458166,9254
1659521342.497421,9300
1659521342.536676,9359
1659521342.575932,9414
1659521342.614846,9468
1659521342.653759,9525
1659521342.692673,9577
1659521342.73466,9637
1659521342.776646,9694
1659521342.815218,9766
1659521342.853791,9816
1659521342.892364,9801
1659521342.934862,9629
1659521342.97736,9415
1659521343.016615,9274
1659521343.05587,9190
1659521343.095126,9125
1659521343.136088,9099
1659521343.17705,9112
1659521343.215622,9125
1659521343.254195,9116
1659521343.292768,9128
1659521343.335266,9134
1659521343.377764,9178
1659521343.416336,9234
1659521343.454909,9282
1659521343.493482,9345
1659521343.537516,9395
1659521343.58155,9465
1659521343.625584,9526
1659521343.658354,9585
1659521343.691123,9647
1659521343.735499,9702
1659521343.779875,9771
1659521343.82425,9834
1659521343.863164,9892
1659521343.902078,9848
1659521343.940992,9644
1659521343.98349,9439
1659521344.025988,9321
1659521344.064561,9242
1659521344.103133,9193
1659521344.141706,9191
1659521344.18318,9200
1659521344.224654,9189
1659521344.263227,9189
1659521344.301799,9196
1659521344.340372,9224
1659521344.379286,9249
1659521344.4182,9299
1659521344.457114,9360
1659521344.498588,9397
1659521344.540062,9453
1659521344.578635,9498
1659521344.617207,9566
1659521344.65578,9619
1659521344.69751,9670
1659521344.73924,9723
1659521344.78097,9777
1659521344.8227,9841
1659521344.860931,9898
1659521344.899163,9846
1659521344.937394,9654
1659521344.979892,9429
1659521345.02239,9299
1659521345.060963,9212
1659521345.099535,9155
1659521345.138108,9129
1659521345.180094,9129
1659521345.22208,9113
1659521345.261677,9096
1659521345.301273,9085
1659521345.34087,9095
1659521345.382344,9129
1659521345.423818,9173
1659521345.462049,9232
1659521345.500281,9275
1659521345.538512,9342
1659521345.581522,9403
1659521345.624532,9457
1659521345.663105,9509
1659521345.701677,9545
1659521345.74025,9603
1659521345.784284,9658
1659521345.828318,9721
1659521345.872353,9746
1659521345.905634,9650
1659521345.938916,9449
1659521345.983633,9299
1659521346.02835,9224
1659521346.073066,9170
1659521346.114541,9147
1659521346.156015,9172
1659521346.19527,9178
1659521346.234525,9175
1659521346.273781,9178
1659521346.312695,9188
1659521346.351609,9212
1659521346.390522,9257
1659521346.431484,9304
1659521346.472447,9355
1659521346.51136,9411
1659521346.550274,9460
1659521346.589188,9515
1659521346.631686,9551
1659521346.674185,9594
1659521346.712075,9649
1659521346.749964,9700
1659521346.787854,9693
1659521346.826768,9544
1659521346.865682,9368
1659521346.904596,9259
1659521346.945558,9204
1659521346.98652,9155
1659521347.025434,9142
1659521347.064348,9159
1659521347.103262,9164
1659521347.144736,9167
1659521347.18621,9169
1659521347.225466,9202
1659521347.264721,9249
1659521347.303976,9303
1659521347.344938,9364
1659521347.3859,9426
1659521347.425156,9488
1659521347.464411,9536
1659521347.503666,9591
1659521347.545652,9649
1659521347.587638,9707
1659521347.631673,9766
1659521347.675707,9825
1659521347.719741,9772
1659521347.758314,9578
1659521347.796886,9378
1659521347.835459,9254
1659521347.876933,9163
1659521347.918407,9114
1659521347.957321,9081
1659521347.996235,9088
1659521348.035149,9089
1659521348.076111,9075
1659521348.117073,9069
1659521348.155987,9084
1659521348.194901,9117
1659521348.233815,9166
1659521348.272729,9212
1659521348.311643,9263
1659521348.350557,9315
1659521348.39203,9372
1659521348.433505,9414
1659521348.47276,9458
1659521348.512015,9512
1659521348.55127,9576
1659521348.592745,9616
1659521348.634219,9568
1659521348.673133,9369
1659521348.712047,9167
1659521348.750961,9045
1659521348.789875,8955
1659521348.828789,8905
1659521348.867702,8886
1659521348.910712,8891
1659521348.953723,8881
1659521348.994173,8867
1659521349.034623,8867
1659521349.073195,8884
1659521349.111768,8930
1659521349.150341,8969
1659521349.194716,9031
1659521349.239092,9062
1659521349.283467,9112
1659521349.317261,9155
1659521349.351055,9202
1659521349.39543,9248
1659521349.439806,9301
1659521349.484181,9357
1659521349.517975,9413
1659521349.551769,9411
1659521349.595803,9229
1659521349.639837,9016
1659521349.683871,8868
1659521349.722785,8762
1659521349.761699,8679
1659521349.800613,8641
1659521349.842599,8654
1659521349.884585,8662
1659521349.923158,8655
1659521349.96173,8673
1659521350.000303,8699
1659521350.038534,8744
1659521350.076766,8797
1659521350.114997,8849
1659521350.153911,8937
1659521350.192825,9018
1659521350.231739,9104
1659521350.272189,9188
1659521350.312639,9264
1659521350.351894,9335
1659521350.391149,9409
1659521350.430405,9481
1659521350.472391,9526
1659521350.514377,9461
1659521350.558752,9278
1659521350.603128,9101
1659521350.647503,8996
1659521350.685735,8931
1659521350.723966,8883
1659521350.762197,8885
1659521350.804695,8894
1659521350.847193,8896
1659521350.886107,8908
1659521350.925021,8927
1659521350.963935,8964
1659521351.002508,9018
1659521351.04108,9066
1659521351.079653,9122
1659521351.121639,9179
1659521351.163625,9220
1659521351.201856,9280
1659521351.240088,9324
1659521351.278319,9376
1659521351.316892,9433
1659521351.355464,9491
1659521351.394037,9478
1659521351.436535,9312
1659521351.479033,9112
1659521351.517264,8971
1659521351.555496,8893
1659521351.593727,8846
1659521351.635713,8850
1659521351.677699,8881
1659521351.716954,8887
1659521351.75621,8883
1659521351.795465,8889
1659521351.837451,8899
1659521351.879437,8932
1659521351.91801,8968
1659521351.956582,9022
1659521351.995155,9054
1659521352.037141,9109
1659521352.079127,9143
1659521352.123502,9195
1659521352.167878,9243
1659521352.212254,9293
1659521352.245535,9358
1659521352.278817,9415
1659521352.323193,9437
1659521352.367568,9291
1659521352.411944,9049
1659521352.450516,8872
1659521352.489089,8756
1659521352.527662,8684
1659521352.568111,8638
1659521352.608562,8657
1659521352.647817,8684
1659521352.687072,8669
1659521352.726327,8656
1659521352.765241,8671
1659521352.804155,8696
1659521352.843069,8724
1659521352.885055,8763
1659521352.927042,8822
1659521352.965955,8864
1659521353.004869,8919
1659521353.043783,8969
1659521353.085769,9009
1659521353.127755,9076
1659521353.165987,9130
1659521353.204218,9196
1659521353.242449,9262
1659521353.281704,9291
1659521353.32096,9152
1659521353.360215,8931
1659521353.401177,8758
1659521353.442139,8659
1659521353.483101,8601
1659521353.524063,8569
1659521353.562294,8585
1659521353.600526,8606
1659521353.638757,8619
1659521353.683474,8630
1659521353.728191,8646
1659521353.772908,8692
1659521353.806701,8734
1659521353.840495,8799
1659521353.884529,8853
1659521353.928564,8910
1659521353.972598,8979
1659521354.005879,9019
1659521354.039161,9069
1659521354.083878,9143
1659521354.128595,9205
1659521354.173312,9279
1659521354.212226,9326
1659521354.25114,9240
1659521354.290054,9024
1659521354.331528,8829
1659521354.373002,8708
1659521354.411916,8617
1659521354.45083,8572
1659521354.489744,8574
1659521354.530194,8603
1659521354.570644,8629
1659521354.61024,8641
1659521354.649837,8664
1659521354.689434,8702
1659521354.728689,8756
1659521354.767944,8830
1659521354.807199,8904
1659521354.84765,8974
1659521354.888099,9052
1659521354.927355,9121
1659521354.96661,9179
1659521355.005865,9249
1659521355.048363,9314
1659521355.090862,9372
1659521355.13208,9428
1659521355.173298,9488
1659521355.214516,9446
1659521355.255734,9243
1659521355.294989,9024
1659521355.334244,8890
1659521355.3735,8817
1659521355.415998,8758
1659521355.458496,8748
1659521355.496386,8774
1659521355.534276,8779
1659521355.572166,8773
1659521355.611421,8783
1659521355.650676,8812
1659521355.689932,8848
1659521355.730894,8888
1659521355.771856,8942
1659521355.81077,8985
1659521355.849684,9053
1659521355.888597,9113
1659521355.930072,9172
1659521355.971546,9246
1659521356.01046,9311
1659521356.049374,9394
1659521356.088288,9446
1659521356.12925,9401
1659521356.170212,9187
1659521356.209808,8983
1659521356.249405,8835
1659521356.289002,8739
1659521356.330476,8682
1659521356.37195,8659
1659521356.410522,8662
1659521356.449095,8645
1659521356.487668,8630
1659521356.532043,8624
1659521356.576419,8655
1659521356.620794,8705
1659521356.662268,8751
1659521356.703742,8819
1659521356.742315,8886
1659521356.780888,8951
1659521356.81946,9020
1659521356.860422,9073
1659521356.901384,9129
1659521356.940298,9179
1659521356.979212,9243
1659521357.018126,9281
1659521357.056699,9218
1659521357.095271,8998
1659521357.133844,8796
1659521357.176342,8698
1659521357.21884,8628
1659521357.258096,8594
1659521357.297351,8601
1659521357.336606,8636
1659521357.377568,8642
1659521357.41853,8634
1659521357.457444,8642
1659521357.496358,8657
1659521357.535272,8701
1659521357.573844,8740
1659521357.612417,8777
1659521357.65099,8821
1659521357.692976,8856
1659521357.734962,8891
1659521357.773535,8926
1659521357.812107,8968
1659521357.85068,9021
1659521357.892154,9048
1659521357.933628,8926
1659521357.972542,8706
1659521358.011456,8561
1659521358.05037,8471
1659521358.092356,8413
1659521358.134342,8395
1659521358.178717,8418
1659521358.223093,8455
1659521358.267469,8472
1659521358.301262,8480
1659521358.335056,8499
1659521358.37909,8528
1659521358.423124,8574
1659521358.467159,8625
1659521358.506414,8687
1659521358.545669,8745
1659521358.584924,8796
1659521358.62691,8844
1659521358.668897,8898
1659521358.707811,8978
1659521358.746725,9037
1659521358.785639,9105
1659521358.826601,9116
1659521358.867563,8936
1659521358.906135,8707
1659521358.944708,8546
1659521358.98328,8470
1659521359.021853,8408
1659521359.060426,8394
1659521359.098998,8412
1659521359.140984,8445
1659521359.18297,8460
1659521359.221884,8466
1659521359.260798,8502
1659521359.299712,8543
1659521359.337944,8607
1659521359.376175,8662
1659521359.414406,8735
1659521359.455368,8781
1659521359.49633,8833
1659521359.53934,8889
1659521359.58235,8937
1659521359.620923,8995
1659521359.659496,9060
1659521359.698068,9117
1659521359.742444,9116
1659521359.786819,8957
1659521359.831195,8724
1659521359.863965,8578
1659521359.896734,8508
1659521359.940768,8454
1659521359.984802,8445
1659521360.028837,8484
1659521360.061606,8507
1659521360.094376,8509
1659521360.138752,8528
1659521360.183127,8565
1659521360.227503,8613
1659521360.266075,8671
1659521360.304648,8737
1659521360.34322,8796
1659521360.381793,8851
1659521360.420366,8907
1659521360.458938,8962
1659521360.498535,9022
1659521360.538131,9069
1659521360.577728,9111
1659521360.619714,9162
1659521360.6617,9220
1659521360.700614,9256
1659521360.739528,9202
1659521360.778442,8952
1659521360.820428,8707
1659521360.862414,8560
1659521360.900987,8456
1659521360.939559,8398
1659521360.978132,8372
1659521361.020118,8403
1659521361.062104,8431
1659521361.106821,8437
1659521361.151538,8454
1659521361.196255,8486
1659521361.233377,8545
1659521361.270499,8603
1659521361.307621,8675
1659521361.344743,8730
1659521361.383657,8778
1659521361.42257,8838
1659521361.461484,8891
1659521361.502959,8942
1659521361.544432,8991
1659521361.583005,9051
1659521361.621578,9106
1659521361.66015,9180
1659521361.702136,9255
1659521361.744123,9329
1659521361.783378,9308
1659521361.822633,9102
1659521361.861888,8885
1659521361.905923,8756
1659521361.949957,8687
1659521361.993991,8653
1659521362.035977,8650
1659521362.077963,8695
1659521362.116877,8703
1659521362.155791,8699
1659521362.194705,8704
1659521362.236691,8724
1659521362.278677,8765
1659521362.315287,8808
1659521362.351897,8852
1659521362.388507,8913
1659521362.425117,8962
1659521362.467615,9019
1659521362.510113,9067
1659521362.548344,9119
1659521362.586575,9159
1659521362.624807,9211
1659521362.666281,9266
1659521362.707755,9324
1659521362.746327,9377
1659521362.7849,9310
1659521362.823472,9095
1659521362.865971,8886
1659521362.908469,8762
1659521362.947041,8686
1659521362.985614,8642
1659521363.024187,8639
1659521363.065661,8661
1659521363.107135,8695
1659521363.146049,8702
1659521363.184963,8722
1659521363.223876,8753
1659521363.267569,8806
1659521363.311262,8873
1659521363.354955,8928
1659521363.397453,8984
1659521363.439951,9046
1659521363.478183,9103
1659521363.516414,9172
1659521363.554645,9239
1659521363.593218,9304
1659521363.63179,9360
1659521363.670363,9441
1659521363.712349,9509
1659521363.754335,9575
1659521363.793932,9562
1659521363.833528,9369
1659521363.873125,9135
1659521363.914599,8997
1659521363.956073,8910
1659521363.994987,8848
1659521364.033901,8839
1659521364.072815,8861
1659521364.115313,8895
1659521364.157811,8907
1659521364.196725,8923
1659521364.235639,8945
1659521364.274553,8992
1659521364.313467,9043
1659521364.352381,9088
1659521364.391295,9136
1659521364.433281,9175
1659521364.475267,9231
1659521364.513498,9284
1659521364.55173,9330
1659521364.589961,9383
1659521364.631947,9448
1659521364.673933,9505
1659521364.713188,9574
1659521364.752444,9635
1659521364.791699,9600
1659521364.832661,9393
1659521364.873623,9183
1659521364.917999,9065
1659521364.962374,9000
1659521365.00675,8953
1659521365.041055,8942
1659521365.075361,8969
1659521365.119737,8992
1659521365.164112,8997
1659521365.208488,9010
1659521365.246719,9038
1659521365.28495,9068
1659521365.323182,9124
1659521365.36568,9184
1659521365.408178,9235
1659521365.446409,9303
1659521365.48464,9350
1659521365.522871,9407
1659521365.561103,9469
1659521365.599334,9525
1659521365.637565,9588
1659521365.680063,9657
1659521365.722562,9734
1659521365.760793,9758
1659521365.799024,9638
1659521365.837255,9394
1659521365.875486,9217
1659521365.913718,9136
1659521365.951949,9083
1659521365.993935,9063
1659521366.035921,9086
1659521366.074494,9101
1659521366.113066,9095
1659521366.151639,9110
1659521366.193625,9113
1659521366.235611,9160
1659521366.277597,9216
1659521366.319583,9267
1659521366.358839,9329
1659521366.398094,9392
1659521366.437349,9447
1659521366.481042,9496
1659521366.524735,9560
1659521366.568428,9602
1659521366.602734,9658
1659521366.637039,9721
1659521366.681415,9760
1659521366.72579,9684
1659521366.770166,9462
1659521366.808056,9300
1659521366.845946,9216
1659521366.883836,9185
1659521366.92531,9185
1659521366.966784,9208
1659521367.006039,9234
1659521367.045294,9235
1659521367.08455,9233
1659521367.126024,9252
1659521367.167498,9286
1659521367.206753,9344
1659521367.246008,9398
1659521367.285264,9452
1659521367.324178,9513
1659521367.363091,9575
1659521367.402005,9636
1659521367.443992,9692
1659521367.485978,9748
1659521367.525233,9811
1659521367.564488,9866
1659521367.603744,9806
1659521367.645218,9601
1659521367.686692,9374
1659521367.725264,9234
1659521367.763837,9142
1659521367.80241,9085
1659521367.843372,9063
1659521367.884334,9069
1659521367.92393,9088
1659521367.963527,9078
1659521368.003124,9083
1659521368.044598,9114
1659521368.086072,9144
1659521368.124303,9199
1659521368.162534,9258
1659521368.200765,9318
1659521368.242239,9376
1659521368.283714,9426
1659521368.32331,9480
1659521368.362907,9536
1659521368.402503,9611
1659521368.446538,9664
1659521368.490572,9698
1659521368.534606,9572
1659521368.57608,9355
1659521368.617554,9197
1659521368.656468,9112
1659521368.695382,9064
1659521368.734296,9043
1659521368.772527,9052
1659521368.810759,9066
1659521368.84899,9065
1659521368.890976,9062
1659521368.932962,9068
1659521368.971876,9108
1659521369.01079,9146
1659521369.049704,9198
1659521369.090154,9253
1659521369.130604,9306
1659521369.168835,9359
1659521369.207067,9413
1659521369.245298,9470
1659521369.284553,9519
1659521369.323808,9561
1659521369.363064,9459
1659521369.404538,9242
1659521369.446012,9074
1659521369.484926,8960
1659521369.52384,8888
1659521369.562754,8838
1659521369.60474,8843
1659521369.646726,8859
1659521369.685298,8866
1659521369.723871,8859
1659521369.762444,8880
1659521369.803918,8932
1659521369.845392,8998
1659521369.884647,9063
1659521369.923902,9122
1659521369.963158,9177
1659521370.00412,9223
1659521370.045082,9263
1659521370.089116,9305
1659521370.13315,9341
1659521370.177184,9390
1659521370.21644,9427
1659521370.255695,9363
1659521370.29495,9165
1659521370.333523,8946
1659521370.372095,8824
1659521370.410668,8740
1659521370.452654,8686
1659521370.49464,8679
1659521370.534237,8712
1659521370.573833,8719
1659521370.61343,8724
1659521370.652003,8733
1659521370.690575,8740
1659521370.729148,8794
1659521370.771134,8828
1659521370.81312,8871
1659521370.855106,8915
1659521370.897092,8970
1659521370.939078,9007
1659521370.981065,9053
1659521371.022539,9111
1659521371.064013,9166
1659521371.102585,9244
1659521371.141158,9260
1659521371.17973,9147
1659521371.221205,8951
1659521371.262679,8812
1659521371.300569,8735
1659521371.338459,8690
1659521371.376348,8686
1659521371.414921,8707
1659521371.453494,8736
1659521371.492066,8739
1659521371.534564,8736
1659521371.577062,8746
1659521371.615635,8755
1659521371.654207,8784
1659521371.69278,8822
1659521371.734254,8854
1659521371.775728,8893
1659521371.814984,8935
1659521371.854239,8979
1659521371.893494,9025
1659521371.932067,9080
1659521371.970639,9113
1659521372.009212,9099
1659521372.051198,8950
1659521372.093184,8739
1659521372.131757,8595
1659521372.170329,8513
1659521372.208902,8470
1659521372.249864,8464
1659521372.290826,8505
1659521372.33486,8515
1659521372.378895,8518
1659521372.422929,8531
1659521372.456722,8556
1659521372.490516,8599
1659521372.53455,8646
1659521372.578584,8682
1659521372.622619,8721
1659521372.661191,8771
1659521372.699764,8815
1659521372.738337,8849
1659521372.780323,8894
1659521372.822309,8937
1659521372.861223,8996
1659521372.900136,9037
1659521372.93905,9053
1659521372.981037,8927
1659521373.023023,8681
1659521373.062278,8480
1659521373.101533,8367
1659521373.140789,8299
1659521373.181751,8250
1659521373.222713,8272
1659521373.261627,8293
1659521373.300541,8308
1659521373.339454,8324
1659521373.37871,8336
1659521373.417965,8378
1659521373.45722,8422
1659521373.498694,8474
1659521373.540169,8527
1659521373.578741,8578
1659521373.617314,8606
1659521373.655886,8650
1659521373.697361,8702
1659521373.738834,8752
1659521373.778773,8806
1659521373.818711,8858
1659521373.858649,8852
1659521373.900635,8674
1659521373.942621,8469
1659521373.980852,8348
1659521374.019083,8265
1659521374.057314,8237
1659521374.099813,8240
1659521374.142311,8284
1659521374.181566,8304
1659521374.220821,8311
1659521374.260077,8328
1659521374.304452,8365
1659521374.348828,8413
1659521374.393203,8460
1659521374.425973,8521
1659521374.458743,8573
1659521374.503118,8627
1659521374.547494,8684
1659521374.591869,8730
1659521374.629759,8792
1659521374.667649,8844
1659521374.705539,8901
1659521374.748037,8956
1659521374.790535,9017
1659521374.829108,9071
1659521374.86768,9010
1659521374.906253,8790
1659521374.944825,8553
1659521374.983398,8431
1659521375.021971,8349
1659521375.063957,8288
1659521375.105943,8294
1659521375.144516,8312
1659521375.183088,8338
1659521375.221661,8346
1659521375.263135,8359
1659521375.304609,8394
1659521375.343864,8443
1659521375.383119,8495
1659521375.422375,8546
1659521375.463337,8608
1659521375.504299,8651
1659521375.54253,8705
1659521375.580761,8759
1659521375.618993,8801
1659521375.663709,8864
1659521375.708426,8925
1659521375.753143,8971
1659521375.786937,9025
1659521375.820731,9096
1659521375.864424,9147
1659521375.908116,9170
1659521375.951809,9021
1659521375.993795,8773
1659521376.035781,8602
1659521376.076129,8524
1659521376.116477,8475
1659521376.156824,8455
1659521376.197172,8491
1659521376.23752,8518
1659521376.275153,8513
1659521376.312787,8524
1659521376.350421,8540
1659521376.388055,8579
1659521376.430041,8622
1659521376.472027,8668
1659521376.510258,8723
1659521376.54849,8776
1659521376.586721,8823
1659521376.625635,8866
1659521376.664549,8927
1659521376.703463,8973
1659521376.745449,9028
1659521376.787435,9073
1659521376.828397,9121
1659521376.869359,9187
1659521376.907932,9244
1659521376.946504,9299
1659521376.985077,9224
1659521377.027063,8993
1659521377.069049,8757
1659521377.108304,8631
1659521377.14756,8550
1659521377.186815,8492
1659521377.23119,8493
1659521377.275566,8515
1659521377.319942,8530
1659521377.353223,8533
1659521377.386505,8552
1659521377.430881,8575
1659521377.475256,8628
1659521377.519632,8683
1659521377.558204,8735
1659521377.596777,8798
1659521377.63535,8852
1659521377.677848,8903
1659521377.720346,8969
1659521377.758577,9015
1659521377.796808,9069
1659521377.835039,9132
1659521377.876001,9187
1659521377.916964,9242
1659521377.955536,9310
1659521377.994109,9366
1659521378.032681,9359
1659521378.071595,9166
1659521378.110509,8931
1659521378.149423,8810
1659521378.190897,8750
1659521378.232371,8729
1659521378.271285,8729
1659521378.310199,8769
1659521378.349113,8792
1659521378.391099,8800
1659521378.433085,8806
1659521378.471317,8827
1659521378.509548,8885
1659521378.547779,8933
1659521378.589253,8990
1659521378.630727,9049
1659521378.670324,9111
1659521378.70992,9182
1659521378.749517,9235
1659521378.789967,9282
1659521378.830417,9340
1659521378.874451,9395
1659521378.918486,9468
1659521378.96252,9525
1659521379.001434,9583
1659521379.040348,9557
1659521379.079262,9345
1659521379.121248,9109
1659521379.163234,8969
1659521379.201465,8882
1659521379.239696,8840
1659521379.277928,8797
1659521379.319914,8813
1659521379.3619,8840
1659521379.400814,8838
1659521379.439728,8843
1659521379.478642,8876
1659521379.517555,8917
1659521379.556469,8966
1659521379.595383,9027
1659521379.638394,9083
1659521379.681404,9139
1659521379.720318,9199
1659521379.759232,9251
1659521379.798146,9316
1659521379.838596,9367
1659521379.879046,9428
1659521379.918301,9488
1659521379.957556,9556
1659521379.996812,9609
1659521380.035726,9562
1659521380.074639,9365
1659521380.113553,9157
1659521380.154516,9050
1659521380.195477,8991
1659521380.234391,8961
1659521380.273305,8970
1659521380.312219,8973
1659521380.353693,8979
1659521380.395167,8975
1659521380.439202,8988
1659521380.483236,9005
1659521380.52727,9052
1659521380.561576,9097
1659521380.595881,9147
1659521380.640257,9208
1659521380.684633,9250
1659521380.729008,9302
1659521380.761778,9361
1659521380.794547,9410
1659521380.839264,9460
1659521380.883981,9518
1659521380.928698,9582
1659521380.967612,9644
1659521381.006526,9668
1659521381.04544,9490
1659521381.08589,9235
1659521381.12634,9070
1659521381.165254,8958
1659521381.204168,8882
1659521381.243082,8831
1659521381.281654,8826
1659521381.320227,8833
1659521381.3588,8833
1659521381.400274,8841
1659521381.441748,8848
1659521381.48032,8890
1659521381.518893,8935
1659521381.557466,8991
1659521381.59638,9045
1659521381.635293,9098
1659521381.674207,9160
1659521381.715682,9229
1659521381.757156,9290
1659521381.79607,9340
1659521381.834984,9419
1659521381.873897,9480
1659521381.915884,9553
1659521381.95787,9610
1659521382.002245,9611
1659521382.046621,9451
1659521382.090996,9202
1659521382.123766,9048
1659521382.156536,8960
1659521382.201252,8898
1659521382.245969,8864
1659521382.290686,8867
1659521382.32448,8871
1659521382.358274,8867
1659521382.402308,8871
1659521382.446342,8881
1659521382.490376,8913
1659521382.528949,8965
1659521382.567522,9008
1659521382.606094,9051
1659521382.647568,9112
1659521382.689042,9164
1659521382.727956,9226
1659521382.76687,9285
1659521382.805784,9349
1659521382.848282,9405
1659521382.89078,9489
1659521382.929694,9545
1659521382.968608,9582
1659521383.007522,9491
1659521383.046436,9268
1659521383.08535,9094
1659521383.124264,9001
1659521383.165226,8953
1659521383.206188,8928
1659521383.245443,8958
1659521383.284699,8976
1659521383.323954,8986
1659521383.365428,8998
1659521383.406902,9010
1659521383.445475,9040
1659521383.484047,9088
1659521383.52262,9143
1659521383.564606,9194
1659521383.606592,9258
1659521383.644823,9304
1659521383.683055,9359
1659521383.721286,9416
1659521383.763272,9466
1659521383.805258,9532
1659521383.844855,9592
1659521383.884451,9634
1659521383.924048,9570
1659521383.968082,9389
1659521384.012116,9239
1659521384.056151,9177
1659521384.089432,9177
1659521384.122714,9191
1659521384.167431,9236
1659521384.212148,9236
1659521384.256865,9220
1659521384.295437,9224
1659521384.33401,9243
1659521384.372582,9277
1659521384.413033,9305
1659521384.453482,9357
1659521384.492738,9410
1659521384.531993,9463
1659521384.571248,9499
1659521384.611698,9545
1659521384.652148,9607
1659521384.691062,9646
1659521384.729976,9691
1659521384.76889,9594
1659521384.807804,9367
1659521384.846718,9163
1659521384.885632,9041
1659521384.927106,8979
1659521384.96858,8930
1659521385.007494,8933
1659521385.046408,8943
1659521385.085322,8943
1659521385.12782,8945
1659521385.170318,8941
1659521385.208891,8956
1659521385.247463,9006
1659521385.286036,9043
1659521385.328022,9083
1659521385.370008,9129
1659521385.408922,9174
1659521385.447836,9207
1659521385.48675,9260
1659521385.529248,9308
1659521385.571746,9356
1659521385.615439,9396
1659521385.659132,9298
1659521385.702825,9059
1659521385.74208,8836
1659521385.781336,8708
1659521385.820591,8612
1659521385.861553,8562
1659521385.902515,8542
1659521385.941087,8555
1659521385.97966,8569
1659521386.018233,8565
1659521386.060731,8571
1659521386.103229,8586
1659521386.142484,8621
1659521386.18174,8666
1659521386.220995,8724
1659521386.259567,8770
1659521386.29814,8827
1659521386.336713,8888
1659521386.378699,8935
1659521386.420685,8987
1659521386.459257,9044
1659521386.49783,9097
1659521386.536403,9162
1659521386.577877,9147
1659521386.619351,8971
1659521386.660825,8738
1659521386.702299,8596
1659521386.743773,8516
1659521386.785247,8472
1659521386.824161,8452
1659521386.863075,8474
1659521386.901989,8501
1659521386.942951,8499
1659521386.983913,8501
1659521387.023168,8528
1659521387.062424,8572
1659521387.101679,8624
1659521387.140593,8673
1659521387.179507,8726
1659521387.218421,8781
1659521387.259895,8845
1659521387.301369,8896
1659521387.340283,8943
1659521387.379197,8993
1659521387.418111,9046
1659521387.459585,9103
1659521387.501059,9173
1659521387.539632,9238
1659521387.578204,9279
1659521387.616777,9206
1659521387.655349,8972
1659521387.693922,8785
1659521387.732495,8669
1659521387.774993,8607
1659521387.817491,8569
1659521387.858453,8569
1659521387.899415,8591
1659521387.937305,8602
1659521387.975195,8608
1659521388.013084,8617
1659521388.05746,8665
1659521388.101836,8699
1659521388.146211,8742
1659521388.180005,8808
1659521388.213799,8858
1659521388.258174,8911
1659521388.30255,8964
1659521388.346925,9026
1659521388.380719,9080
1659521388.414513,9151
1659521388.458888,9204
1659521388.503264,9256
1659521388.547639,9318
1659521388.586212,9376
1659521388.624784,9441
1659521388.663357,9492
1659521388.705855,9419
1659521388.748353,9201
1659521388.787267,8993
1659521388.826181,8887
1659521388.865095,8810
1659521388.906057,8769
1659521388.947019,8770
1659521388.985933,8792
1659521389.024847,8801
1659521389.063761,8789
1659521389.102334,8805
1659521389.140906,8841
1659521389.179479,8882
1659521389.220953,8933
1659521389.262427,8985
1659521389.302024,9040
1659521389.34162,9089
1659521389.381217,9145
1659521389.422691,9195
1659521389.464165,9252
1659521389.502738,9293
1659521389.54131,9338
1659521389.579883,9378
1659521389.622381,9425
1659521389.664879,9478
1659521389.703793,9461
1659521389.742707,9318
1659521389.781621,9083
1659521389.822071,8938
1659521389.862521,8884
1659521389.901435,8861
1659521389.940349,8883
1659521389.979263,8915
1659521390.023297,8939
1659521390.067331,8948
1659521390.111366,8977
1659521390.15284,9015
1659521390.194314,9077
1659521390.232886,9151
1659521390.271459,9215
1659521390.310031,9285
1659521390.348945,9335
1659521390.387859,9386
1659521390.426773,9438
1659521390.467735,9483
1659521390.508697,9525
1659521390.547953,9573
1659521390.587208,9633
1659521390.626463,9685
1659521390.667937,9737
1659521390.709411,9606
1659521390.747984,9348
1659521390.786556,9143
1659521390.825129,9018
1659521390.863702,8932
1659521390.902274,8867
1659521390.940847,8864
1659521390.983345,8881
1659521391.025843,8896
1659521391.064075,8896
1659521391.102306,8906
1659521391.140537,8947
1659521391.181499,8987
1659521391.222461,9046
1659521391.261375,9087
1659521391.300289,9135
1659521391.339203,9185
1659521391.381189,9242
1659521391.423175,9292
1659521391.461748,9346
1659521391.50032,9406
1659521391.538893,9475
1659521391.580879,9546
1659521391.622865,9543
1659521391.667241,9394
1659521391.711616,9197
1659521391.755992,9060
1659521391.794906,9004
1659521391.83382,8955
1659521391.872734,8943
1659521391.91088,8956
1659521391.949025,8975
1659521391.987171,8980
1659521392.025317,8984
1659521392.065767,9021
1659521392.106217,9060
1659521392.145473,9106
1659521392.184728,9167
1659521392.223983,9210
1659521392.265457,9263
1659521392.306931,9316
1659521392.350965,9369
1659521392.395,9425
1659521392.439034,9494
1659521392.477607,9558
1659521392.516179,9630
1659521392.554752,9608
1659521392.596738,9416
1659521392.638724,9218
1659521392.677979,9100
1659521392.717235,9022
1659521392.75649,8963
1659521392.797964,8957
1659521392.839438,8967
1659521392.878693,8969
1659521392.917948,8969
1659521392.957204,8978
1659521392.996459,9017
1659521393.035714,9057
1659521393.07497,9111
1659521393.116444,9162
1659521393.157918,9222
1659521393.196832,9274
1659521393.235746,9326
1659521393.27466,9378
1659521393.315622,9428
1659521393.356584,9498
1659521393.394474,9559
1659521393.432364,9605
1659521393.470253,9535
1659521393.509167,9318
1659521393.548081,9130
1659521393.586995,9022
1659521393.628981,8956
1659521393.670968,8904
1659521393.709199,8914
1659521393.74743,8928
1659521393.785661,8929
1659521393.827647,8919
1659521393.869633,8932
1659521393.91435,8955
1659521393.959067,8999
1659521394.003784,9046
1659521394.036554,9099
1659521394.069324,9156
1659521394.11404,9200
1659521394.158757,9240
1659521394.203474,9299
1659521394.236756,9333
1659521394.270037,9394
1659521394.314072,9451
1659521394.358106,9472
1659521394.40214,9340
1659521394.441054,9126
1659521394.479968,8987
1659521394.518882,8921
1659521394.56138,8887
1659521394.603878,8888
1659521394.642109,8911
1659521394.680341,8926
1659521394.718572,8921
1659521394.759534,8920
1659521394.800496,8962
1659521394.840093,9003
1659521394.879689,9064
1659521394.919286,9128
1659521394.957859,9176
1659521394.996431,9229
1659521395.035004,9285
1659521395.077502,9327
1659521395.12,9374
1659521395.159255,9421
1659521395.198511,9480
1659521395.237766,9523
1659521395.27924,9444
1659521395.320714,9215
1659521395.359287,9006
1659521395.397859,8888
1659521395.436432,8797
1659521395.47893,8743
1659521395.521428,8726
1659521395.560001,8744
1659521395.598573,8745
1659521395.637146,8737
1659521395.678108,8746
1659521395.71907,8769
1659521395.757984,8809
1659521395.796898,8850
1659521395.835812,8917
1659521395.880187,8956
1659521395.924563,9007
1659521395.968939,9058
1659521396.010412,9098
1659521396.051887,9144
1659521396.091142,9191
1659521396.130397,9252
1659521396.169652,9313
1659521396.211127,9307
1659521396.252601,9147
1659521396.291173,8924
1659521396.329746,8793
1659521396.368319,8706
1659521396.407574,8659
1659521396.446829,8629
1659521396.486084,8650
1659521396.527046,8657
1659521396.568008,8656
1659521396.60624,8661
1659521396.644471,8682
1659521396.682702,8724
1659521396.721275,8767
1659521396.759847,8826
1659521396.79842,8870
1659521396.840406,8921
1659521396.882392,8973
1659521396.920965,9014
1659521396.959537,9065
1659521396.99811,9123
1659521397.039584,9191
1659521397.081058,9246
1659521397.120655,9310
1659521397.160251,9258
1659521397.199848,9049
1659521397.241834,8870
1659521397.28382,8753
1659521397.322052,8680
1659521397.360283,8632
1659521397.398514,8642
1659521397.4405,8667
1659521397.482486,8687
1659521397.526862,8699
1659521397.571237,8712
1659521397.615613,8752
1659521397.653844,8802
1659521397.692075,8854
1659521397.730307,8912
1659521397.772805,8964
1659521397.815303,9024
1659521397.854217,9081
1659521397.893131,9135
1659521397.932045,9181
1659521397.972495,9240
1659521398.012945,9294
1659521398.050835,9367
1659521398.088725,9421
1659521398.126614,9409
1659521398.164504,9231
1659521398.205978,9015
1659521398.247452,8887
1659521398.286025,8810
1659521398.324598,8758
1659521398.36317,8740
1659521398.40618,8768
1659521398.449191,8788
1659521398.488105,8789
1659521398.527019,8802
1659521398.565933,8828
1659521398.606894,8870
1659521398.647856,8915
1659521398.687112,8965
1659521398.726367,9021
1659521398.765622,9084
1659521398.80812,9130
1659521398.850619,9177
1659521398.888509,9226
1659521398.926399,9276
1659521398.964288,9343
1659521399.005762,9396
1659521399.047236,9415
1659521399.091612,9298
1659521399.135988,9099
1659521399.180363,8962
1659521399.218594,8888
1659521399.256826,8851
1659521399.295057,8857
1659521399.337043,8881
1659521399.379029,8923
1659521399.418284,8911
1659521399.45754,8926
1659521399.496795,8960
1659521399.535026,9008
1659521399.573257,9053
1659521399.611489,9110
1659521399.653475,9166
1659521399.695461,9219
1659521399.734716,9270
1659521399.773972,9328
1659521399.813227,9377
1659521399.853677,9434
1659521399.894127,9498
1659521399.932699,9553
1659521399.971272,9601
1659521400.009845,9534
1659521400.048417,9301
1659521400.08699,9098
1659521400.125562,8974
1659521400.167037,8890
1659521400.208511,8844
1659521400.247083,8835
1659521400.285656,8866
1659521400.324228,8876
1659521400.366215,8874
1659521400.408201,8878
1659521400.452576,8898
1659521400.496952,8934
1659521400.541327,8983
1659521400.574609,9042
1659521400.607891,9096
1659521400.652949,9159
1659521400.698007,9213
1659521400.743065,9262
1659521400.775835,9329
1659521400.808604,9395
1659521400.85298,9460
1659521400.897356,9522
1659521400.941731,9559
1659521400.980645,9421
1659521401.019559,9200
1659521401.058473,8982
1659521401.100459,8746
