LocalTimestamp,PG
1659514698.657988,11696
1659514698.699509,11897
1659514698.741031,12157
1659514698.779648,12394
1659514698.818264,12638
1659514698.856881,12899
1659514698.89789,13140
1659514698.938899,13413
1659514698.977174,13631
1659514699.015449,13803
1659514699.053724,13870
1659514699.095758,13892
1659514699.137792,13873
1659514699.177092,13877
1659514699.216392,13891
1659514699.255692,13894
1659514699.296701,13901
1659514699.33771,13932
1659514699.376327,14030
1659514699.414944,14162
1659514699.45356,14271
1659514699.498328,14349
1659514699.543097,14400
1659514699.587865,14444
1659514699.629899,14504
1659514699.671933,14576
1659514699.71055,14647
1659514699.749166,14694
1659514699.787783,14713
1659514699.829304,14711
1659514699.870826,14684
1659514699.909443,14656
1659514699.94806,14707
1659514699.986676,14743
1659514700.024951,14765
1659514700.063226,14798
1659514700.101501,14807
1659514700.144048,14767
1659514700.186594,14756
1659514700.225553,14756
1659514700.264511,14735
1659514700.30347,14750
1659514700.344991,14784
1659514700.386513,14834
1659514700.425813,14865
1659514700.465113,14934
1659514700.504414,14974
1659514700.544602,14955
1659514700.584791,14952
1659514700.62498,14915
1659514700.665168,14841
1659514700.705357,14745
1659514700.746366,14694
1659514700.787375,14664
1659514700.826333,14625
1659514700.865292,14638
1659514700.90425,14646
1659514700.942867,14645
1659514700.981484,14643
1659514701.0201,14656
1659514701.062135,14660
1659514701.104169,14657
1659514701.145178,14670
1659514701.186187,14674
1659514701.225145,14671
1659514701.264103,14651
1659514701.303062,14646
1659514701.347147,14599
1659514701.391231,14551
1659514701.435316,14572
1659514701.469661,14656
1659514701.504005,14739
1659514701.54809,14792
1659514701.592175,14872
1659514701.636259,14950
1659514701.669066,14986
1659514701.701873,15001
1659514701.745958,15025
1659514701.790042,15084
1659514701.834127,15112
1659514701.873085,15125
1659514701.912044,15132
1659514701.951002,15152
1659514701.992524,15172
1659514702.034045,15232
1659514702.072662,15293
1659514702.111279,15362
1659514702.149896,15417
1659514702.188512,15464
1659514702.227129,15513
1659514702.265746,15551
1659514702.306242,15577
1659514702.346738,15609
1659514702.386039,15655
1659514702.425339,15643
1659514702.464639,15655
1659514702.506673,15695
1659514702.548707,15722
1659514702.586982,15739
1659514702.625257,15749
1659514702.663532,15757
1659514702.705566,15758
1659514702.7476,15776
1659514702.786901,15783
1659514702.826201,15779
1659514702.865501,15794
1659514702.90651,15789
1659514702.947519,15817
1659514702.986135,15815
1659514703.024752,15834
1659514703.063369,15839
1659514703.108137,15839
1659514703.152905,15838
1659514703.197673,15830
1659514703.23048,15854
1659514703.263287,15843
1659514703.307714,15841
1659514703.35214,15822
1659514703.396566,15816
1659514703.4386,15812
1659514703.480634,15767
1659514703.519251,15729
1659514703.557868,15706
1659514703.596485,15702
1659514703.635443,15683
1659514703.674402,15699
1659514703.71336,15704
1659514703.755907,15702
1659514703.798453,15719
1659514703.83707,15702
1659514703.875687,15699
1659514703.914304,15708
1659514703.956338,15724
1659514703.998372,15746
1659514704.036988,15770
1659514704.075605,15782
1659514704.114222,15795
1659514704.152497,15819
1659514704.190772,15849
1659514704.229047,15854
1659514704.271081,15865
1659514704.313115,15874
1659514704.352073,15892
1659514704.391032,15913
1659514704.429991,15909
1659514704.470487,15911
1659514704.510983,15947
1659514704.549942,15955
1659514704.5889,15990
1659514704.627858,16028
1659514704.669893,15989
1659514704.711927,15978
1659514704.756695,16000
1659514704.801463,16015
1659514704.846231,15993
1659514704.884847,16007
1659514704.923464,16018
1659514704.962081,16039
1659514705.004115,16035
1659514705.046149,16020
1659514705.084424,16015
1659514705.122699,16005
1659514705.160974,15993
1659514705.203008,15984
1659514705.245042,15993
1659514705.283317,15979
1659514705.321592,15942
1659514705.359867,15972
1659514705.398142,16025
1659514705.436417,16043
1659514705.474692,16024
1659514705.515701,16045
1659514705.55671,16056
1659514705.595327,16030
1659514705.633943,16037
1659514705.67256,16122
1659514705.714594,16143
1659514705.756628,16072
1659514705.796612,16120
1659514705.836596,16157
1659514705.876579,16164
1659514705.916563,16146
1659514705.956547,16169
1659514705.996189,16184
1659514706.03583,16204
1659514706.075473,16228
1659514706.117507,16242
1659514706.159541,16298
1659514706.198158,16284
1659514706.236774,16288
1659514706.275391,16283
1659514706.316912,16262
1659514706.358434,16225
1659514706.397392,16228
1659514706.436351,16287
1659514706.475309,16314
1659514706.516831,16377
1659514706.558352,16372
1659514706.597311,16327
1659514706.636269,16239
1659514706.675228,16206
1659514706.716749,16233
1659514706.758271,16243
1659514706.796546,16280
1659514706.834821,16321
1659514706.873096,16315
1659514706.917864,16258
1659514706.962632,16249
1659514707.0074,16259
1659514707.049947,16285
1659514707.092493,16304
1659514707.13111,16277
1659514707.169727,16251
1659514707.208343,16247
1659514707.249865,16212
1659514707.291386,16158
1659514707.330687,16174
1659514707.369987,16219
1659514707.409287,16263
1659514707.447904,16255
1659514707.486521,16208
1659514707.525137,16222
1659514707.566146,16279
1659514707.607155,16279
1659514707.646455,16236
1659514707.685755,16207
1659514707.725055,16153
1659514707.762989,16126
1659514707.800922,16168
1659514707.838855,16201
1659514707.881402,16175
1659514707.923949,16181
1659514707.962907,16198
1659514708.001866,16209
1659514708.040824,16235
1659514708.081833,16243
1659514708.122842,16241
1659514708.161458,16213
1659514708.200075,16147
1659514708.238692,16195
1659514708.281239,16202
1659514708.323786,16198
1659514708.368212,16160
1659514708.412638,16084
1659514708.457064,16103
1659514708.495681,16039
1659514708.534298,16002
1659514708.572915,15963
1659514708.614436,15923
1659514708.655957,15955
1659514708.693891,16046
1659514708.731824,16098
1659514708.769757,16062
1659514708.808374,15974
1659514708.846991,15925
1659514708.885607,15942
1659514708.928154,15975
1659514708.970701,15996
1659514709.008976,15998
1659514709.047251,16029
1659514709.085526,16059
1659514709.12756,16055
1659514709.169594,16043
1659514709.208894,15997
1659514709.248194,15964
1659514709.287495,15963
1659514709.326453,15938
1659514709.365412,15913
1659514709.40437,15883
1659514709.445891,15873
1659514709.487413,15837
1659514709.526713,15818
1659514709.566013,15757
1659514709.605314,15691
1659514709.646322,15682
1659514709.687331,15636
1659514709.725948,15573
1659514709.764565,15510
1659514709.803181,15401
1659514709.845216,15285
1659514709.88725,15181
1659514709.932018,15044
1659514709.976786,14895
1659514710.021554,14809
1659514710.059829,14806
1659514710.098104,14843
1659514710.136379,14928
1659514710.178413,15036
1659514710.220447,15101
1659514710.259406,15182
1659514710.298364,15268
1659514710.337322,15280
1659514710.379357,15221
1659514710.421391,15177
1659514710.460349,15165
1659514710.499308,15129
1659514710.538266,15161
1659514710.5803,15287
1659514710.622334,15353
1659514710.660609,14918
1659514710.698884,13945
1659514710.737159,13018
1659514710.776459,12788
1659514710.81576,13197
1659514710.85506,13498
1659514710.896069,13561
1659514710.937078,13652
1659514710.975694,13747
1659514711.014311,13878
1659514711.052928,13991
1659514711.092706,14074
1659514711.132485,14160
1659514711.172264,14217
1659514711.212042,14385
1659514711.251821,14529
1659514711.293342,14786
1659514711.334864,14929
1659514711.373139,15001
1659514711.411414,15113
1659514711.449689,15246
1659514711.491723,15182
1659514711.533757,15238
1659514711.573399,15294
1659514711.613041,15294
1659514711.652683,15284
1659514711.693692,15295
1659514711.734701,15349
1659514711.773317,15447
1659514711.811934,15529
1659514711.850551,15616
1659514711.894977,15650
1659514711.939404,15687
1659514711.98383,15717
1659514712.024326,15731
1659514712.064822,15739
1659514712.104122,15742
1659514712.143423,15748
1659514712.182723,15785
1659514712.221681,15845
1659514712.26064,15921
1659514712.299598,15934
1659514712.340095,15849
1659514712.380591,15815
1659514712.419891,15853
1659514712.459191,15876
1659514712.498492,15859
1659514712.541038,15878
1659514712.583585,15899
1659514712.62186,15915
1659514712.660135,15922
1659514712.69841,15943
1659514712.73771,15951
1659514712.77701,15984
1659514712.81631,16002
1659514712.857832,16005
1659514712.899354,16098
1659514712.937629,16248
1659514712.975903,16338
1659514713.014178,16354
1659514713.056725,16359
1659514713.099272,16372
1659514713.13823,16391
1659514713.177189,16396
1659514713.216147,16419
1659514713.256644,16425
1659514713.29714,16428
1659514713.335757,16430
1659514713.374373,16444
1659514713.41299,16450
1659514713.455537,16451
1659514713.498083,16469
1659514713.54251,16465
1659514713.586936,16468
1659514713.631362,16480
1659514713.670321,16479
1659514713.709279,16482
1659514713.748238,16487
1659514713.790272,16512
1659514713.832306,16516
1659514713.870581,16495
1659514713.908856,16476
1659514713.947131,16458
1659514713.985406,16466
1659514714.023681,16453
1659514714.061956,16447
1659514714.104502,16452
1659514714.147049,16457
1659514714.185324,16459
1659514714.223599,16478
1659514714.261874,16497
1659514714.302883,16513
1659514714.343892,16527
1659514714.382509,16541
1659514714.421125,16551
1659514714.459742,16542
1659514714.498701,16560
1659514714.537659,16604
1659514714.576617,16593
1659514714.617626,16593
1659514714.658635,16582
1659514714.697594,16567
1659514714.736552,16539
1659514714.775511,16535
1659514714.817032,16526
1659514714.858554,16526
1659514714.90298,16536
1659514714.947406,16549
1659514714.991832,16573
1659514715.025665,16571
1659514715.059497,16582
1659514715.103924,16563
1659514715.14835,16560
1659514715.192776,16550
1659514715.225583,16504
1659514715.25839,16519
1659514715.302475,16527
1659514715.34656,16535
1659514715.390644,16539
1659514715.429944,16540
1659514715.469244,16539
1659514715.508545,16543
1659514715.549554,16539
1659514715.590563,16547
1659514715.629179,16547
1659514715.667796,16548
1659514715.706413,16552
1659514715.748447,16547
1659514715.790481,16551
1659514715.829781,16549
1659514715.869081,16529
1659514715.908381,16522
1659514715.94734,16516
1659514715.986298,16518
1659514716.025257,16503
1659514716.067291,16468
1659514716.109325,16452
1659514716.148283,16447
1659514716.187242,16449
1659514716.2262,16455
1659514716.268234,16461
1659514716.310269,16477
1659514716.350047,16504
1659514716.389826,16507
1659514716.429605,16516
1659514716.469383,16523
1659514716.509162,16525
1659514716.547095,16528
1659514716.585028,16525
1659514716.622962,16528
1659514716.665508,16511
1659514716.708055,16508
1659514716.747013,16507
1659514716.785972,16521
1659514716.82493,16512
1659514716.865939,16511
1659514716.906948,16519
1659514716.945907,16528
1659514716.984865,16537
1659514717.023823,16526
1659514717.06637,16534
1659514717.108917,16540
1659514717.153002,16550
1659514717.197086,16547
1659514717.241171,16561
1659514717.279787,16582
1659514717.318404,16594
1659514717.357021,16607
1659514717.398542,16603
1659514717.440064,16611
1659514717.478339,16608
1659514717.516614,16607
1659514717.554889,16616
1659514717.593505,16614
1659514717.632122,16628
1659514717.670739,16624
1659514717.713286,16643
1659514717.755832,16627
1659514717.793766,16640
1659514717.831699,16649
1659514717.869632,16642
1659514717.908932,16642
1659514717.948232,16654
1659514717.987533,16661
1659514718.029054,16663
1659514718.070576,16663
1659514718.109192,16662
1659514718.147809,16668
1659514718.186426,16663
1659514718.228972,16662
1659514718.271519,16664
1659514718.310819,16670
1659514718.35012,16671
1659514718.38942,16678
1659514718.429916,16678
1659514718.470412,16684
1659514718.514497,16683
1659514718.558582,16685
1659514718.602666,16688
1659514718.641625,16681
1659514718.680583,16690
1659514718.719542,16690
1659514718.761576,16683
1659514718.80361,16691
1659514718.842227,16697
1659514718.880843,16704
1659514718.91946,16696
1659514718.960981,16698
1659514719.002503,16694
1659514719.041461,16686
1659514719.08042,16695
1659514719.119378,16685
1659514719.158679,16678
1659514719.197979,16667
1659514719.237279,16685
1659514719.279313,16672
1659514719.321347,16678
1659514719.360306,16678
1659514719.399264,16667
1659514719.438222,16673
1659514719.479744,16669
1659514719.521266,16673
1659514719.560907,16664
1659514719.600549,16679
1659514719.640191,16669
1659514719.678808,16651
1659514719.717425,16639
1659514719.756042,16636
1659514719.796538,16637
1659514719.837034,16640
1659514719.875651,16641
1659514719.914268,16648
1659514719.952884,16640
1659514719.994918,16639
1659514720.036952,16644
1659514720.081037,16649
1659514720.125122,16648
1659514720.169206,16674
1659514720.202526,16672
1659514720.235846,16687
1659514720.27993,16688
1659514720.324015,16684
1659514720.368099,16695
1659514720.406716,16703
1659514720.445333,16689
1659514720.483949,16682
1659514720.525984,16690
1659514720.568018,16680
1659514720.606976,16684
1659514720.645935,16696
1659514720.684893,16693
1659514720.725902,16699
1659514720.766911,16712
1659514720.805527,16711
1659514720.844144,16712
1659514720.882761,16740
1659514720.921719,16757
1659514720.960678,16777
1659514720.999636,16767
1659514721.041671,16773
1659514721.083704,16784
1659514721.121979,16783
1659514721.160254,16776
1659514721.198529,16778
1659514721.240564,16798
1659514721.282598,16806
1659514721.321556,16804
1659514721.360515,16798
1659514721.399473,16795
1659514721.440995,16811
1659514721.482516,16807
1659514721.521816,16812
1659514721.561116,16831
1659514721.600417,16847
1659514721.63999,16849
1659514721.679564,16866
1659514721.719137,16873
1659514721.758711,16874
1659514721.798285,16885
1659514721.841344,16878
1659514721.884403,16880
1659514721.92302,16877
1659514721.961637,16886
1659514722.000253,16888
1659514722.04075,16900
1659514722.081246,16910
1659514722.120204,16910
1659514722.159163,16903
1659514722.198121,16898
1659514722.240668,16905
1659514722.283215,16901
1659514722.327299,16899
1659514722.371384,16902
1659514722.415469,16906
1659514722.454427,16906
1659514722.493386,16904
1659514722.532344,16896
1659514722.574891,16893
1659514722.617437,16909
1659514722.655712,16896
1659514722.693987,16890
1659514722.732262,16900
1659514722.771221,16900
1659514722.810179,16907
1659514722.849138,16918
1659514722.891685,16920
1659514722.934231,16891
1659514722.972164,16884
1659514723.010098,16895
1659514723.048031,16880
1659514723.089552,16894
1659514723.131074,16900
1659514723.169349,16894
1659514723.207624,16885
1659514723.245899,16883
1659514723.284857,16878
1659514723.323816,16885
1659514723.362774,16883
1659514723.403783,16859
1659514723.444792,16848
1659514723.484092,16830
1659514723.523392,16839
1659514723.562693,16814
1659514723.603701,16815
1659514723.64471,16821
1659514723.689137,16786
1659514723.733563,16759
1659514723.777989,16747
1659514723.811822,16743
1659514723.845654,16722
1659514723.89008,16731
1659514723.934507,16722
1659514723.978933,16706
1659514724.011227,16709
1659514724.043522,16709
1659514724.087948,16684
1659514724.132375,16668
1659514724.176801,16653
1659514724.215759,16628
1659514724.254718,16599
1659514724.293676,16556
1659514724.334685,16555
1659514724.375694,16567
1659514724.414311,16595
1659514724.452927,16612
1659514724.491544,16608
1659514724.530161,16584
1659514724.568778,16573
1659514724.607394,16561
1659514724.649428,16534
1659514724.691463,16535
1659514724.730763,16560
1659514724.770063,16562
1659514724.809363,16571
1659514724.850885,16595
1659514724.892406,16604
1659514724.931706,16610
1659514724.971007,16629
1659514725.010307,16635
1659514725.052341,16646
1659514725.094375,16658
1659514725.133675,16667
1659514725.172975,16677
1659514725.212276,16683
1659514725.252772,16674
1659514725.293268,16659
1659514725.331885,16632
1659514725.370502,16620
1659514725.409118,16639
1659514725.451665,16648
1659514725.494212,16674
1659514725.532828,16674
1659514725.571445,16686
1659514725.610062,16687
1659514725.653805,16701
1659514725.697547,16717
1659514725.74129,16715
1659514725.775123,16733
1659514725.808955,16749
1659514725.85304,16745
1659514725.897124,16747
1659514725.941209,16760
1659514725.980167,16770
1659514726.019126,16770
1659514726.058084,16764
1659514726.100118,16740
1659514726.142152,16734
1659514726.181111,16729
1659514726.220069,16732
1659514726.259028,16730
1659514726.299524,16725
1659514726.34002,16745
1659514726.378979,16750
1659514726.417937,16748
1659514726.456896,16753
1659514726.495171,16755
1659514726.533446,16762
1659514726.571721,16765
1659514726.613242,16766
1659514726.654764,16774
1659514726.693722,16782
1659514726.732681,16788
1659514726.771639,16784
1659514726.81316,16791
1659514726.854682,16776
1659514726.894666,16743
1659514726.934649,16736
1659514726.974633,16739
1659514727.014617,16718
1659514727.0546,16729
1659514727.093559,16734
1659514727.132517,16730
1659514727.171476,16726
1659514727.21556,16730
1659514727.259645,16729
1659514727.30373,16727
1659514727.344738,16729
1659514727.385747,16735
1659514727.425047,16747
1659514727.464348,16748
1659514727.503648,16761
1659514727.542264,16757
1659514727.580881,16765
1659514727.619498,16767
1659514727.661532,16764
1659514727.703566,16740
1659514727.742183,16721
1659514727.7808,16728
1659514727.819416,16708
1659514727.860425,16726
1659514727.901434,16724
1659514727.941076,16714
1659514727.980718,16728
1659514728.02036,16727
1659514728.05966,16716
1659514728.09896,16713
1659514728.138261,16728
1659514728.179269,16723
1659514728.220278,16731
1659514728.259578,16735
1659514728.298879,16735
1659514728.338179,16744
1659514728.380726,16751
1659514728.423272,16763
1659514728.461889,16766
1659514728.500506,16751
1659514728.539123,16734
1659514728.579619,16721
1659514728.620115,16731
1659514728.659074,16717
1659514728.698032,16723
1659514728.73699,16728
1659514728.781075,16745
1659514728.82516,16738
1659514728.869244,16736
1659514728.911791,16745
1659514728.954338,16752
1659514728.992954,16751
1659514729.031571,16753
1659514729.070188,16763
1659514729.111709,16758
1659514729.153231,16776
1659514729.191848,16776
1659514729.230464,16782
1659514729.269081,16779
1659514729.308381,16784
1659514729.347681,16784
1659514729.386981,16758
1659514729.428503,16750
1659514729.470025,16744
1659514729.508983,16741
1659514729.547941,16738
1659514729.5869,16743
1659514729.627909,16750
1659514729.668918,16751
1659514729.707534,16748
1659514729.746151,16748
1659514729.784768,16751
1659514729.823043,16750
1659514729.861318,16757
1659514729.899593,16758
1659514729.941627,16761
1659514729.983661,16774
1659514730.022619,16762
1659514730.061578,16775
1659514730.100536,16771
1659514730.141545,16756
1659514730.182554,16740
1659514730.22698,16737
1659514730.271407,16737
1659514730.315833,16725
1659514730.349665,16737
1659514730.383498,16741
1659514730.427582,16751
1659514730.471667,16744
1659514730.515752,16747
1659514730.549071,16756
1659514730.582391,16760
1659514730.626817,16759
1659514730.671244,16773
1659514730.71567,16778
1659514730.754628,16771
1659514730.793587,16783
1659514730.832545,16781
1659514730.874067,16785
1659514730.915588,16793
1659514730.954888,16781
1659514730.994189,16767
1659514731.033489,16763
1659514731.071764,16754
1659514731.110039,16747
1659514731.148314,16752
1659514731.189835,16759
1659514731.231357,16759
1659514731.27134,16771
1659514731.311324,16769
1659514731.351308,16776
1659514731.392829,16774
1659514731.434351,16780
1659514731.472626,16770
1659514731.510901,16783
1659514731.549176,16788
1659514731.591722,16787
1659514731.634269,16796
1659514731.673569,16795
1659514731.71287,16808
1659514731.75217,16777
1659514731.792666,16769
1659514731.833162,16778
1659514731.872121,16778
1659514731.911079,16786
1659514731.950038,16780
1659514731.991047,16790
1659514732.032056,16789
1659514732.073748,16807
1659514732.11544,16794
1659514732.157133,16799
1659514732.198825,16808
1659514732.240517,16808
1659514732.28221,16811
1659514732.320485,16824
1659514732.35876,16831
1659514732.397035,16827
1659514732.435652,16832
1659514732.474268,16818
1659514732.512885,16821
1659514732.554919,16826
1659514732.596953,16831
1659514732.63557,16831
1659514732.674186,16838
1659514732.712803,16842
1659514732.754325,16851
1659514732.795846,16856
1659514732.835146,16852
1659514732.874447,16863
1659514732.913747,16858
1659514732.952022,16865
1659514732.990297,16867
1659514733.028572,16871
1659514733.069581,16878
1659514733.11059,16892
1659514733.152624,16881
1659514733.194658,16862
1659514733.233616,16865
1659514733.272575,16859
1659514733.311533,16837
1659514733.355276,16832
1659514733.399019,16836
1659514733.442762,16827
1659514733.482062,16838
1659514733.521362,16848
1659514733.560662,16846
1659514733.602184,16848
1659514733.643705,16852
1659514733.68198,16861
1659514733.720255,16860
1659514733.75853,16857
1659514733.798172,16866
1659514733.837814,16867
1659514733.877456,16845
1659514733.91949,16832
1659514733.961524,16823
1659514733.999799,16820
1659514734.038074,16823
1659514734.076349,16809
1659514734.117871,16817
1659514734.159392,16830
1659514734.198692,16839
1659514734.237993,16834
1659514734.277293,16832
1659514734.31591,16843
1659514734.354526,16839
1659514734.393143,16840
1659514734.434152,16847
1659514734.475161,16850
1659514734.517195,16862
1659514734.559229,16862
1659514734.598529,16862
1659514734.637829,16852
1659514734.67713,16847
1659514734.721556,16840
1659514734.765982,16838
1659514734.810409,16839
1659514734.843728,16847
1659514734.877048,16868
1659514734.921474,16864
1659514734.965901,16869
1659514735.010327,16875
1659514735.044159,16875
1659514735.077991,16897
1659514735.122418,16889
1659514735.166844,16902
1659514735.211271,16903
1659514735.249546,16921
1659514735.28782,16919
1659514735.326095,16933
1659514735.367104,16951
1659514735.408113,16935
1659514735.446388,16933
1659514735.484663,16939
1659514735.522938,16940
1659514735.561897,16912
1659514735.600855,16915
1659514735.639813,16909
1659514735.681335,16923
1659514735.722857,16918
1659514735.761815,16918
1659514735.800773,16930
1659514735.839732,16936
1659514735.881766,16940
1659514735.9238,16953
1659514735.962075,16943
1659514736.00035,16954
1659514736.038625,16943
1659514736.080147,16938
1659514736.121668,16944
1659514736.160968,16924
1659514736.200269,16911
1659514736.239569,16912
1659514736.280065,16918
1659514736.320561,16910
1659514736.359178,16917
1659514736.397795,16925
1659514736.436411,16937
1659514736.480838,16931
1659514736.525264,16941
1659514736.56969,16944
1659514736.60301,16947
1659514736.63633,16950
1659514736.680414,16953
1659514736.724499,16969
1659514736.768584,16972
1659514736.81113,16984
1659514736.853677,16981
1659514736.892294,16990
1659514736.93091,16997
1659514736.969527,17009
1659514737.008486,17003
1659514737.047444,16983
1659514737.086402,16996
1659514737.129462,16992
1659514737.172521,16988
1659514737.211138,16978
1659514737.249755,16994
1659514737.288371,17001
1659514737.328867,17025
1659514737.369364,17028
1659514737.409758,17027
1659514737.450151,17053
1659514737.490545,17063
1659514737.530939,17068
1659514737.571333,17067
1659514737.611829,17085
1659514737.652325,17077
1659514737.691284,17088
1659514737.730242,17098
1659514737.769201,17106
1659514737.807817,17105
1659514737.846434,17111
1659514737.885051,17109
1659514737.926572,17106
1659514737.968094,17115
1659514738.007394,17125
1659514738.046694,17128
1659514738.085994,17137
1659514738.128028,17136
1659514738.170063,17155
1659514738.208679,17153
1659514738.247296,17154
1659514738.285913,17154
1659514738.327947,17151
1659514738.369981,17170
1659514738.408939,17161
1659514738.447898,17168
1659514738.486856,17162
1659514738.527353,17184
1659514738.567849,17176
1659514738.606466,17185
1659514738.645082,17182
1659514738.683699,17173
1659514738.728125,17178
1659514738.772552,17183
1659514738.816978,17184
1659514738.850298,17180
1659514738.883617,17190
1659514738.92736,17190
1659514738.971103,17190
1659514739.014846,17194
1659514739.05688,17202
1659514739.098914,17204
1659514739.137531,17204
1659514739.176148,17208
1659514739.214764,17218
1659514739.254065,17220
1659514739.293365,17219
1659514739.332665,17225
1659514739.374699,17234
1659514739.416733,17229
1659514739.45535,17237
1659514739.493967,17226
1659514739.532583,17238
1659514739.570858,17231
1659514739.609133,17220
1659514739.647408,17225
1659514739.689955,17228
1659514739.732502,17232
1659514739.77146,17225
1659514739.810419,17233
1659514739.849377,17237
1659514739.889873,17245
1659514739.93037,17239
1659514739.969328,17243
1659514740.008286,17252
1659514740.047245,17257
1659514740.089792,17259
1659514740.132339,17271
1659514740.170955,17267
1659514740.209572,17268
1659514740.248188,17290
1659514740.28971,17281
1659514740.331232,17282
1659514740.376,17282
1659514740.420768,17279
1659514740.465536,17285
1659514740.499368,17286
1659514740.533201,17287
1659514740.577627,17288
1659514740.622053,17311
1659514740.666479,17337
1659514740.70578,17335
1659514740.74508,17347
1659514740.78438,17344
1659514740.824876,17351
1659514740.865372,17354
1659514740.903989,17364
1659514740.942606,17369
1659514740.981223,17391
1659514741.020523,17396
1659514741.059823,17392
1659514741.099123,17394
1659514741.140645,17392
1659514741.182166,17405
1659514741.220783,17388
1659514741.2594,17383
1659514741.298016,17382
1659514741.340563,17378
1659514741.38311,17379
1659514741.421727,17359
1659514741.460343,17372
1659514741.49896,17368
1659514741.537919,17385
1659514741.576877,17375
1659514741.615835,17384
1659514741.658382,17399
1659514741.700929,17414
1659514741.738862,17422
1659514741.776795,17432
1659514741.814728,17429
1659514741.855225,17426
1659514741.895721,17421
1659514741.940147,17421
1659514741.984574,17423
1659514742.029,17422
1659514742.06232,17414
1659514742.095639,17426
1659514742.139382,17419
1659514742.183125,17416
1659514742.226868,17426
1659514742.260188,17417
1659514742.293508,17417
1659514742.338275,17418
1659514742.383044,17419
1659514742.427812,17410
1659514742.466087,17408
1659514742.504362,17398
1659514742.542637,17392
1659514742.585696,17402
1659514742.628755,17386
1659514742.666176,17366
1659514742.703596,17353
1659514742.741017,17352
1659514742.778438,17341
1659514742.822864,17349
1659514742.86729,17347
1659514742.911717,17346
1659514742.945036,17365
1659514742.978356,17384
1659514743.022441,17399
1659514743.066525,17422
1659514743.11061,17443
1659514743.149226,17438
1659514743.187843,17454
1659514743.22646,17448
1659514743.269007,17463
1659514743.311553,17465
1659514743.349828,17472
1659514743.388103,17478
1659514743.426378,17479
1659514743.465337,17466
1659514743.504295,17458
1659514743.543254,17453
1659514743.585288,17443
1659514743.627322,17456
1659514743.665939,17448
1659514743.704555,17451
1659514743.743172,17459
1659514743.785206,17464
1659514743.82724,17460
1659514743.86654,17467
1659514743.905841,17492
1659514743.945141,17493
1659514743.983757,17505
1659514744.022374,17526
1659514744.060991,17533
1659514744.102,17542
1659514744.143009,17557
1659514744.185043,17572
1659514744.227077,17570
1659514744.266036,17580
1659514744.304994,17593
1659514744.343952,17616
1659514744.387695,17615
1659514744.431438,17621
1659514744.475181,17634
1659514744.508501,17613
1659514744.54182,17578
1659514744.586247,17566
1659514744.630673,17580
1659514744.675099,17602
1659514744.708932,17596
1659514744.742764,17589
1659514744.786849,17579
1659514744.830933,17578
1659514744.875018,17537
1659514744.913976,17503
1659514744.952935,17493
1659514744.991893,17475
1659514745.032902,17448
1659514745.073911,17440
1659514745.113211,17438
1659514745.152511,17401
1659514745.191812,17379
1659514745.232308,17349
1659514745.272804,17336
1659514745.311421,17331
1659514745.350037,17321
1659514745.388654,17319
1659514745.426587,17320
1659514745.464521,17323
1659514745.502454,17332
1659514745.545513,17323
1659514745.588573,17335
1659514745.626848,17324
1659514745.665123,17279
1659514745.703398,17241
1659514745.744406,17233
1659514745.785415,17210
1659514745.825057,17208
1659514745.864699,17207
1659514745.904341,17214
1659514745.946375,17211
1659514745.988409,17204
1659514746.026684,17205
1659514746.064959,17222
1659514746.103234,17227
1659514746.145781,17209
1659514746.188328,17214
1659514746.232754,17209
1659514746.27718,17203
1659514746.321607,17204
1659514746.359882,17192
1659514746.398157,17150
1659514746.436432,17119
1659514746.478466,17106
1659514746.5205,17094
1659514746.5598,17083
1659514746.5991,17098
1659514746.6384,17103
1659514746.676334,17109
1659514746.714267,17103
1659514746.7522,17107
1659514746.794747,17110
1659514746.837294,17124
1659514746.876252,17121
1659514746.91521,17133
1659514746.954169,17139
1659514746.992786,17146
1659514747.031402,17154
1659514747.070019,17144
1659514747.112566,17139
1659514747.155113,17090
1659514747.194071,17056
1659514747.233029,17058
1659514747.271988,17029
1659514747.312484,17034
1659514747.35298,17042
1659514747.391939,17068
1659514747.430897,17071
1659514747.469856,17078
1659514747.512403,17076
1659514747.554949,17094
1659514747.593224,17100
1659514747.631499,17120
1659514747.669774,17125
1659514747.713859,17133
1659514747.757943,17155
1659514747.802028,17164
1659514747.844062,17163
1659514747.886096,17174
1659514747.92326,17177
1659514747.960425,17169
1659514747.997589,17157
1659514748.034753,17117
1659514748.073712,17120
1659514748.11267,17123
1659514748.151629,17118
1659514748.196055,17119
1659514748.240481,17137
1659514748.284908,17135
1659514748.323183,17138
1659514748.361458,17140
1659514748.399733,17146
1659514748.442279,17151
1659514748.484826,17161
1659514748.523101,17164
1659514748.561376,17166
1659514748.599651,17178
1659514748.64066,17189
1659514748.681669,17191
1659514748.720627,17193
1659514748.759586,17191
1659514748.798544,17199
1659514748.837844,17161
1659514748.877145,17143
1659514748.916445,17148
1659514748.956941,17152
1659514748.997437,17159
1659514749.036737,17164
1659514749.076038,17179
1659514749.115338,17181
1659514749.156859,17194
1659514749.198381,17190
1659514749.237681,17197
1659514749.276981,17206
1659514749.316282,17205
1659514749.357803,17222
1659514749.399325,17242
1659514749.438625,17237
1659514749.477925,17248
1659514749.517225,17257
1659514749.560968,17247
1659514749.604711,17245
1659514749.648454,17257
1659514749.682286,17244
1659514749.716118,17201
1659514749.760545,17193
1659514749.804971,17186
1659514749.849397,17183
1659514749.882204,17178
1659514749.915011,17184
1659514749.959096,17174
1659514750.003181,17177
1659514750.047265,17164
1659514750.086907,17170
1659514750.126549,17180
1659514750.166191,17186
1659514750.207712,17182
1659514750.249234,17201
1659514750.288193,17200
1659514750.327151,17210
1659514750.366109,17219
1659514750.408144,17226
1659514750.450178,17225
1659514750.489136,17237
1659514750.528095,17241
1659514750.567053,17253
1659514750.604986,17215
1659514750.64292,17191
1659514750.680853,17196
1659514750.723912,17189
1659514750.766971,17184
1659514750.805246,17191
1659514750.843521,17198
1659514750.881796,17197
1659514750.922292,17208
1659514750.962789,17214
1659514751.001747,17211
1659514751.040706,17224
1659514751.079664,17226
1659514751.121186,17229
1659514751.162707,17232
1659514751.200982,17233
1659514751.239257,17236
1659514751.277532,17252
1659514751.322642,17246
1659514751.367752,17248
1659514751.412862,17262
1659514751.454383,17264
1659514751.495904,17252
1659514751.534179,17232
1659514751.572454,17231
1659514751.610729,17227
1659514751.653276,17231
1659514751.695823,17240
1659514751.734781,17232
1659514751.77374,17230
1659514751.812698,17214
1659514751.850631,17225
1659514751.888565,17211
1659514751.926498,17212
1659514751.968532,17217
1659514752.010566,17227
1659514752.049183,17224
1659514752.0878,17226
1659514752.126416,17229
1659514752.167938,17228
1659514752.209459,17235
1659514752.248418,17212
1659514752.287376,17190
1659514752.326335,17168
1659514752.365635,17127
1659514752.404935,17112
1659514752.444235,17099
1659514752.485244,17096
1659514752.526253,17086
1659514752.565895,17087
1659514752.605537,17077
1659514752.645179,17055
1659514752.687213,17063
1659514752.729247,17075
1659514752.767864,17074
1659514752.806481,17090
1659514752.845097,17096
1659514752.886106,17113
1659514752.927115,17125
1659514752.971883,17127
1659514753.016651,17144
1659514753.061419,17162
1659514753.094739,17155
1659514753.128059,17170
1659514753.167837,17145
1659514753.207616,17126
1659514753.247395,17114
1659514753.287173,17111
1659514753.326952,17112
1659514753.371378,17122
1659514753.415805,17137
1659514753.460231,17151
1659514753.493551,17166
1659514753.52687,17169
1659514753.571638,17173
1659514753.616406,17183
1659514753.661175,17199
1659514753.702696,17197
1659514753.744217,17208
1659514753.782834,17223
1659514753.821451,17227
1659514753.860068,17245
1659514753.899368,17248
1659514753.938668,17242
1659514753.977968,17251
1659514754.018977,17255
1659514754.059986,17265
1659514754.098261,17263
1659514754.136536,17240
1659514754.174811,17222
1659514754.213428,17221
1659514754.252044,17212
1659514754.290661,17194
1659514754.332695,17201
1659514754.374729,17197
1659514754.413346,17196
1659514754.451963,17188
1659514754.490579,17198
1659514754.532101,17207
1659514754.573622,17206
1659514754.612923,17203
1659514754.652223,17202
1659514754.691523,17211
1659514754.733557,17208
1659514754.775591,17223
1659514754.813866,17223
1659514754.852141,17218
1659514754.890416,17216
1659514754.93245,17220
1659514754.974484,17200
1659514755.013101,17169
1659514755.051718,17164
1659514755.090335,17182
1659514755.134077,17175
1659514755.17782,17173
1659514755.221563,17179
1659514755.263597,17192
1659514755.305631,17183
1659514755.34459,17190
1659514755.383548,17194
1659514755.422507,17205
1659514755.463003,17208
1659514755.503499,17222
1659514755.542458,17225
1659514755.581416,17229
1659514755.620375,17232
1659514755.659675,17240
1659514755.698975,17248
1659514755.738275,17246
1659514755.780309,17247
1659514755.822343,17249
1659514755.861644,17228
1659514755.900944,17195
1659514755.940244,17202
1659514755.982278,17199
1659514756.024312,17191
1659514756.062587,17188
1659514756.100862,17191
1659514756.139137,17193
1659514756.178437,17179
1659514756.217738,17188
1659514756.257038,17189
1659514756.299072,17204
1659514756.341106,17220
1659514756.379039,17208
1659514756.416972,17230
1659514756.454906,17223
1659514756.496427,17235
1659514756.537949,17241
1659514756.582375,17249
1659514756.626801,17262
1659514756.671228,17251
1659514756.704035,17234
1659514756.736842,17233
1659514756.781268,17246
1659514756.825695,17224
1659514756.870121,17225
1659514756.90344,17232
1659514756.93676,17241
1659514756.980845,17244
1659514757.02493,17252
1659514757.069014,17255
1659514757.107972,17256
1659514757.146931,17279
1659514757.185889,17279
1659514757.228436,17277
1659514757.270983,17298
1659514757.308916,17304
1659514757.346849,17313
1659514757.384783,17315
1659514757.423399,17326
1659514757.462016,17330
1659514757.500633,17337
1659514757.541641,17323
1659514757.58265,17288
1659514757.621609,17279
1659514757.660567,17267
1659514757.699526,17272
1659514757.740535,17254
1659514757.781544,17264
1659514757.820844,17265
1659514757.860144,17278
1659514757.899444,17280
1659514757.938061,17285
1659514757.976678,17299
1659514758.015294,17297
1659514758.056816,17310
1659514758.098337,17311
1659514758.143447,17308
1659514758.188557,17319
1659514758.233667,17327
1659514758.266474,17339
1659514758.299281,17338
1659514758.343707,17341
1659514758.388134,17342
1659514758.43256,17361
1659514758.46998,17312
1659514758.507401,17294
1659514758.544822,17286
1659514758.582242,17283
1659514758.620859,17280
1659514758.659476,17278
1659514758.698092,17289
1659514758.742519,17288
1659514758.786945,17294
1659514758.831372,17291
1659514758.872893,17309
1659514758.914414,17313
1659514758.953373,17312
1659514758.992332,17319
1659514759.03129,17329
1659514759.07059,17327
1659514759.10989,17340
1659514759.14919,17340
1659514759.190712,17318
1659514759.232234,17320
1659514759.27085,17312
1659514759.309467,17324
1659514759.348083,17313
1659514759.387042,17290
1659514759.426001,17265
1659514759.464959,17271
1659514759.507506,17261
1659514759.550052,17248
1659514759.588669,17262
1659514759.627286,17264
1659514759.665903,17273
1659514759.706912,17267
1659514759.74792,17281
1659514759.786879,17290
1659514759.825837,17310
1659514759.864796,17307
1659514759.90683,17313
1659514759.948864,17340
1659514759.986797,17333
1659514760.02473,17352
1659514760.062664,17353
1659514760.107432,17351
1659514760.1522,17365
1659514760.196968,17368
1659514760.238489,17362
1659514760.280011,17323
1659514760.318969,17325
1659514760.357928,17323
1659514760.396886,17332
1659514760.438408,17318
1659514760.479929,17326
1659514760.519229,17339
1659514760.55853,17343
1659514760.59783,17344
1659514760.635763,17339
1659514760.673696,17354
1659514760.71163,17355
1659514760.753151,17382
1659514760.794672,17365
1659514760.833289,17356
1659514760.871906,17373
1659514760.910523,17372
1659514760.949139,17360
1659514760.987756,17349
1659514761.026373,17345
1659514761.068407,17281
1659514761.110441,17233
1659514761.149058,17209
1659514761.187675,17188
1659514761.226291,17188
1659514761.2673,17192
1659514761.308309,17209
1659514761.348293,17202
1659514761.388276,17202
1659514761.42826,17198
1659514761.469782,17208
1659514761.511303,17213
1659514761.550261,17208
1659514761.58922,17226
1659514761.628178,17242
1659514761.670213,17251
1659514761.712247,17253
1659514761.757015,17266
1659514761.801783,17293
1659514761.846551,17297
1659514761.879358,17290
1659514761.912165,17284
1659514761.956591,17262
1659514762.001018,17219
1659514762.045444,17217
1659514762.084402,17199
1659514762.123361,17195
1659514762.162319,17191
1659514762.203328,17201
1659514762.244337,17212
1659514762.283637,17201
1659514762.322937,17216
1659514762.362238,17225
1659514762.404272,17226
1659514762.446306,17238
1659514762.484923,17242
1659514762.523539,17251
1659514762.562156,17253
1659514762.601115,17256
1659514762.640073,17263
1659514762.679031,17266
1659514762.721578,17278
1659514762.764125,17284
1659514762.8024,17294
1659514762.840675,17301
1659514762.87895,17299
1659514762.917567,17258
1659514762.956183,17236
1659514762.9948,17224
1659514763.036321,17219
1659514763.077843,17215
1659514763.119365,17215
1659514763.160886,17243
1659514763.199503,17235
1659514763.238119,17241
1659514763.276736,17247
1659514763.320821,17256
1659514763.364905,17249
1659514763.40899,17255
1659514763.44231,17275
1659514763.475629,17276
1659514763.519714,17284
1659514763.563798,17289
1659514763.607883,17303
1659514763.641715,17304
1659514763.675548,17318
1659514763.717069,17312
1659514763.758591,17325
1659514763.800112,17340
1659514763.841634,17303
1659514763.883155,17273
1659514763.924677,17255
1659514763.963635,17253
1659514764.002594,17247
1659514764.041552,17246
1659514764.080511,17249
1659514764.119469,17262
1659514764.158427,17253
1659514764.198924,17261
1659514764.23942,17280
1659514764.27872,17272
1659514764.318021,17279
1659514764.357321,17286
1659514764.398842,17300
1659514764.440364,17298
1659514764.478639,17306
1659514764.516914,17311
1659514764.555189,17311
1659514764.59671,17322
1659514764.638232,17324
1659514764.683,17331
1659514764.727768,17315
1659514764.772536,17279
1659514764.806368,17263
1659514764.8402,17256
1659514764.884969,17251
1659514764.929737,17242
1659514764.974505,17256
1659514765.013463,17261
1659514765.052422,17272
1659514765.09138,17270
1659514765.131876,17271
1659514765.172373,17277
1659514765.211673,17292
1659514765.250973,17287
1659514765.290273,17301
1659514765.329573,17313
1659514765.368874,17311
1659514765.408174,17317
1659514765.44867,17323
1659514765.489166,17326
1659514765.527441,17316
1659514765.565716,17326
1659514765.603991,17327
1659514765.647051,17322
1659514765.69011,17295
1659514765.728727,17261
1659514765.767343,17268
1659514765.80596,17251
1659514765.844918,17248
1659514765.883877,17254
1659514765.922835,17264
1659514765.964869,17265
1659514766.006904,17266
1659514766.050988,17267
1659514766.095073,17273
1659514766.139157,17290
1659514766.172477,17284
1659514766.205797,17296
1659514766.250223,17305
1659514766.294649,17306
1659514766.339076,17307
1659514766.377351,17327
1659514766.415626,17334
1659514766.453901,17319
1659514766.494397,17339
1659514766.534893,17352
1659514766.574193,17358
1659514766.613494,17323
1659514766.652794,17290
1659514766.694315,17299
1659514766.735837,17278
1659514766.774112,17276
1659514766.812387,17286
1659514766.850662,17299
1659514766.88962,17298
1659514766.928579,17299
1659514766.967537,17296
1659514767.009059,17303
1659514767.05058,17316
1659514767.089197,17304
1659514767.127814,17314
1659514767.16643,17324
1659514767.208977,17329
1659514767.251524,17337
1659514767.29014,17345
1659514767.328757,17338
1659514767.367374,17348
1659514767.40787,17353
1659514767.448366,17341
1659514767.487325,17308
1659514767.526284,17289
1659514767.565242,17275
1659514767.607789,17263
1659514767.650335,17270
1659514767.68861,17265
1659514767.726885,17269
1659514767.76516,17285
1659514767.81027,17281
1659514767.85538,17287
1659514767.90049,17280
1659514767.933297,17290
1659514767.966104,17298
1659514768.01053,17290
1659514768.054956,17294
1659514768.099383,17307
1659514768.133215,17328
1659514768.167048,17337
1659514768.212157,17344
1659514768.257267,17349
1659514768.302377,17349
1659514768.340652,17359
1659514768.378927,17321
1659514768.417202,17281
1659514768.458211,17279
1659514768.49922,17271
1659514768.53852,17265
1659514768.57782,17286
1659514768.61712,17276
1659514768.655395,17276
1659514768.69367,17281
1659514768.731945,17280
1659514768.772954,17286
1659514768.813963,17294
1659514768.85258,17298
1659514768.891196,17303
1659514768.929813,17304
1659514768.970002,17307
1659514769.01019,17320
1659514769.050379,17326
1659514769.090568,17325
1659514769.130757,17326
1659514769.172278,17330
1659514769.2138,17344
1659514769.2531,17335
1659514769.2924,17308
1659514769.3317,17291
1659514769.373222,17295
1659514769.414743,17285
1659514769.453702,17271
1659514769.49266,17284
1659514769.531619,17294
1659514769.57314,17282
1659514769.614662,17284
1659514769.658063,17287
1659514769.701464,17289
1659514769.744865,17298
1659514769.783482,17301
1659514769.822098,17308
1659514769.860715,17307
1659514769.902749,17310
1659514769.944783,17315
1659514769.9834,17329
1659514770.022017,17326
1659514770.060633,17326
1659514770.099592,17332
1659514770.13855,17325
1659514770.177509,17293
1659514770.219543,17275
1659514770.261577,17260
1659514770.299852,17258
1659514770.338127,17258
1659514770.376402,17259
1659514770.418436,17261
1659514770.46047,17270
1659514770.500112,17273
1659514770.539754,17279
1659514770.579396,17277
1659514770.617329,17283
1659514770.655262,17295
1659514770.693196,17284
1659514770.734717,17293
1659514770.776239,17300
1659514770.815197,17300
1659514770.854156,17302
1659514770.893114,17318
1659514770.935148,17307
1659514770.977182,17309
1659514771.021267,17317
1659514771.065351,17292
1659514771.109436,17263
1659514771.143268,17244
1659514771.177101,17230
1659514771.221527,17214
1659514771.265953,17226
1659514771.31038,17230
1659514771.344212,17229
1659514771.378044,17231
1659514771.422812,17231
1659514771.46758,17254
1659514771.512348,17243
1659514771.545668,17248
1659514771.578988,17264
1659514771.622731,17260
1659514771.666474,17256
1659514771.710216,17267
1659514771.749516,17276
1659514771.788817,17276
1659514771.828117,17290
1659514771.870151,17294
1659514771.912185,17283
1659514771.95046,17294
1659514771.988735,17306
1659514772.02701,17266
1659514772.065969,17246
1659514772.104927,17241
1659514772.143886,17237
1659514772.184894,17237
1659514772.225903,17229
1659514772.264862,17227
1659514772.30382,17229
1659514772.342779,17222
1659514772.384813,17218
1659514772.426847,17228
1659514772.465464,17241
1659514772.50408,17250
1659514772.542697,17252
1659514772.584219,17259
1659514772.62574,17263
1659514772.664699,17277
1659514772.703657,17277
1659514772.742615,17283
1659514772.787042,17291
1659514772.831468,17288
1659514772.875894,17289
1659514772.908189,17271
1659514772.940483,17238
1659514772.98491,17230
1659514773.029336,17227
1659514773.073762,17224
1659514773.112379,17214
1659514773.150996,17229
1659514773.189612,17228
1659514773.231134,17237
1659514773.272655,17234
1659514773.311614,17238
1659514773.350572,17253
1659514773.389531,17259
1659514773.431565,17263
1659514773.473599,17273
1659514773.512216,17267
1659514773.550833,17275
1659514773.589449,17289
1659514773.628749,17292
1659514773.66805,17290
1659514773.70735,17301
1659514773.749384,17307
1659514773.791418,17293
1659514773.830718,17276
1659514773.870018,17242
1659514773.909319,17238
1659514773.949815,17224
1659514773.990311,17232
1659514774.02927,17226
1659514774.068228,17241
1659514774.107187,17243
1659514774.149733,17237
1659514774.19228,17241
1659514774.231649,17250
1659514774.271017,17261
1659514774.310386,17273
1659514774.349754,17280
1659514774.389123,17290
1659514774.428423,17292
1659514774.467723,17297
1659514774.507023,17288
1659514774.551108,17297
1659514774.595192,17304
1659514774.639277,17318
1659514774.673622,17312
1659514774.707967,17319
1659514774.752393,17317
1659514774.79682,17279
1659514774.841246,17260
1659514774.880204,17259
1659514774.919163,17263
1659514774.958121,17253
1659514774.99913,17265
1659514775.040139,17277
1659514775.079098,17262
1659514775.118056,17280
1659514775.157014,17280
1659514775.198536,17278
1659514775.240057,17285
1659514775.278674,17298
1659514775.317291,17304
1659514775.355908,17311
1659514775.394524,17312
1659514775.433141,17312
1659514775.471758,17325
1659514775.512254,17330
1659514775.55275,17335
1659514775.592051,17318
1659514775.631351,17289
1659514775.670651,17271
1659514775.712685,17282
1659514775.754719,17269
1659514775.792994,17269
1659514775.831269,17287
1659514775.869544,17284
1659514775.911578,17280
1659514775.953612,17280
1659514775.992913,17292
1659514776.032213,17293
1659514776.071513,17296
1659514776.112522,17305
1659514776.153531,17301
1659514776.197273,17306
1659514776.241016,17317
1659514776.284759,17324
1659514776.324059,17319
1659514776.363359,17325
1659514776.40266,17309
1659514776.443156,17276
1659514776.483652,17255
1659514776.522611,17252
1659514776.561569,17250
1659514776.600528,17244
1659514776.639486,17250
1659514776.678445,17257
1659514776.717403,17259
1659514776.758924,17261
1659514776.800446,17262
1659514776.839405,17275
1659514776.878363,17284
1659514776.917321,17285
1659514776.959868,17284
1659514777.002415,17304
1659514777.041032,17303
1659514777.079648,17316
1659514777.118265,17308
1659514777.157223,17315
1659514777.196182,17332
1659514777.23514,17300
1659514777.276662,17265
1659514777.318183,17250
1659514777.3568,17241
1659514777.395417,17228
1659514777.434034,17239
1659514777.476068,17236
1659514777.518102,17249
1659514777.559623,17249
1659514777.601145,17252
1659514777.639761,17251
1659514777.678378,17257
1659514777.716995,17263
1659514777.761421,17255
1659514777.805848,17264
1659514777.850274,17272
1659514777.884106,17265
1659514777.917938,17273
1659514777.962707,17264
1659514778.007475,17291
1659514778.052243,17279
1659514778.090859,17276
1659514778.129476,17280
1659514778.168093,17267
1659514778.210127,17228
1659514778.252161,17217
1659514778.290436,17221
1659514778.328711,17212
1659514778.366986,17216
1659514778.40902,17217
1659514778.451054,17221
1659514778.489329,17226
1659514778.527604,17221
1659514778.565879,17232
1659514778.604154,17239
1659514778.642429,17243
1659514778.680704,17238
1659514778.721713,17255
1659514778.762722,17254
1659514778.801339,17264
1659514778.839955,17266
1659514778.878572,17269
1659514778.917872,17279
1659514778.957172,17288
1659514778.996473,17287
1659514779.037994,17284
1659514779.079516,17271
1659514779.120525,17246
1659514779.161533,17228
1659514779.200834,17234
1659514779.240134,17233
1659514779.279434,17220
1659514779.321468,17225
1659514779.363502,17240
1659514779.401777,17226
1659514779.440052,17221
1659514779.478327,17228
1659514779.518311,17231
1659514779.558295,17247
1659514779.598278,17246
1659514779.638262,17257
1659514779.678246,17259
1659514779.719767,17265
1659514779.761289,17265
1659514779.805715,17266
1659514779.850141,17272
1659514779.894567,17275
1659514779.927887,17294
1659514779.961207,17268
1659514780.005291,17247
1659514780.049376,17236
1659514780.093461,17241
1659514780.132419,17230
1659514780.171378,17229
1659514780.210336,17240
1659514780.252883,17243
1659514780.295429,17244
1659514780.334046,17246
1659514780.372663,17270
1659514780.41128,17260
1659514780.452801,17272
1659514780.494323,17282
1659514780.533623,17276
1659514780.572923,17280
1659514780.612223,17294
1659514780.65084,17296
1659514780.689457,17307
1659514780.728073,17300
1659514780.769082,17310
1659514780.810091,17320
1659514780.849391,17309
1659514780.888692,17286
1659514780.927992,17267
1659514780.965925,17254
1659514781.003858,17250
1659514781.041791,17260
1659514781.084338,17251
1659514781.126885,17252
1659514781.168919,17265
1659514781.210953,17259
1659514781.24957,17264
1659514781.288187,17270
1659514781.326803,17279
1659514781.367812,17277
1659514781.408821,17285
1659514781.448463,17294
1659514781.488105,17295
1659514781.527747,17303
1659514781.572173,17301
1659514781.6166,17318
1659514781.661026,17312
1659514781.693321,17311
1659514781.725615,17323
1659514781.770041,17326
1659514781.814467,17314
1659514781.858894,17274
1659514781.896827,17270
1659514781.93476,17261
1659514781.972693,17263
1659514782.014215,17257
1659514782.055737,17258
1659514782.094695,17270
1659514782.133653,17268
1659514782.172612,17278
1659514782.210887,17267
1659514782.249162,17286
1659514782.287437,17284
1659514782.328958,17301
1659514782.37048,17297
1659514782.40978,17303
1659514782.44908,17327
1659514782.48838,17329
1659514782.527339,17341
1659514782.566297,17349
1659514782.605256,17349
1659514782.646777,17347
1659514782.688299,17346
1659514782.730333,17333
1659514782.772367,17302
1659514782.810984,17287
1659514782.849601,17288
1659514782.888217,17284
1659514782.932643,17287
1659514782.97707,17288
1659514783.021496,17288
1659514783.054816,17285
1659514783.088135,17289
1659514783.132904,17283
1659514783.177672,17288
1659514783.22244,17283
1659514783.254734,17306
1659514783.287029,17300
1659514783.331797,17303
1659514783.376565,17316
1659514783.421333,17324
1659514783.460291,17319
1659514783.49925,17319
1659514783.538208,17327
1659514783.580242,17316
1659514783.622277,17314
1659514783.661235,17274
1659514783.700193,17248
1659514783.739152,17234
1659514783.781186,17225
1659514783.82322,17209
1659514783.861837,17202
1659514783.900454,17197
1659514783.93907,17188
1659514783.97837,17196
1659514784.017671,17184
1659514784.056971,17181
1659514784.098492,17185
1659514784.140014,17188
1659514784.178631,17182
1659514784.217247,17186
1659514784.255864,17194
1659514784.29636,17196
1659514784.336857,17214
1659514784.376498,17205
1659514784.416141,17209
1659514784.455782,17222
1659514784.497304,17222
1659514784.538826,17207
1659514784.577101,17170
1659514784.615375,17154
1659514784.65365,17131
1659514784.695172,17127
1659514784.736693,17118
1659514784.776882,17109
1659514784.817071,17115
1659514784.85726,17118
1659514784.897448,17130
1659514784.937637,17138
1659514784.981722,17142
1659514785.025806,17157
1659514785.069891,17167
1659514785.10321,17188
1659514785.13653,17199
1659514785.180273,17210
1659514785.224016,17221
1659514785.267759,17240
1659514785.301078,17245
1659514785.334398,17243
1659514785.379166,17251
1659514785.423934,17256
1659514785.468702,17233
1659514785.506977,17212
1659514785.545252,17209
1659514785.583527,17217
1659514785.622827,17213
1659514785.662127,17225
1659514785.701428,17229
1659514785.743974,17237
1659514785.786521,17231
1659514785.824796,17240
1659514785.863071,17242
1659514785.901346,17238
1659514785.942868,17243
1659514785.984389,17259
1659514786.023689,17261
1659514786.062989,17268
1659514786.10229,17280
1659514786.140565,17285
1659514786.17884,17302
1659514786.217115,17296
1659514786.259661,17284
1659514786.302208,17269
1659514786.34373,17250
1659514786.385251,17254
1659514786.423868,17251
1659514786.462485,17261
1659514786.501101,17265
1659514786.545186,17274
1659514786.58927,17264
1659514786.633355,17268
1659514786.6677,17273
1659514786.702045,17280
1659514786.746813,17281
1659514786.791581,17302
1659514786.836349,17293
1659514786.869156,17291
1659514786.901963,17311
1659514786.947073,17305
1659514786.992183,17302
1659514787.037293,17311
1659514787.075909,17303
1659514787.114526,17282
1659514787.153143,17260
1659514787.194664,17260
1659514787.236186,17250
1659514787.275144,17248
1659514787.314103,17250
1659514787.353061,17241
1659514787.39407,17255
1659514787.435079,17255
1659514787.473354,17264
1659514787.511629,17261
1659514787.549904,17268
1659514787.588521,17271
1659514787.627137,17278
1659514787.665754,17282
1659514787.707276,17295
1659514787.748797,17289
1659514787.787414,17300
1659514787.82603,17323
1659514787.864647,17315
1659514787.906169,17306
1659514787.94769,17280
1659514787.986649,17265
1659514788.025607,17250
1659514788.064566,17242
1659514788.1066,17237
1659514788.148634,17237
1659514788.187592,17247
1659514788.226551,17242
1659514788.265509,17239
1659514788.309594,17253
1659514788.353678,17261
1659514788.397763,17254
1659514788.43057,17262
1659514788.463377,17273
1659514788.50712,17272
1659514788.550863,17279
1659514788.594606,17281
1659514788.637152,17296
1659514788.679699,17297
1659514788.717974,17299
1659514788.756249,17299
1659514788.794524,17304
1659514788.832799,17282
1659514788.871074,17261
1659514788.909349,17263
1659514788.951383,17246
1659514788.993417,17251
1659514789.033059,17257
1659514789.072701,17251
1659514789.112343,17261
1659514789.153352,17258
1659514789.194361,17262
1659514789.233661,17264
1659514789.272961,17263
1659514789.312261,17268
1659514789.35122,17276
1659514789.390178,17293
1659514789.429137,17284
1659514789.471171,17302
1659514789.513205,17299
1659514789.552163,17310
1659514789.591122,17318
1659514789.63008,17316
1659514789.671602,17321
1659514789.713123,17336
1659514789.751057,17328
1659514789.78899,17302
1659514789.826923,17297
1659514789.86947,17268
1659514789.912016,17273
1659514789.956443,17273
1659514790.000869,17275
1659514790.045295,17281
1659514790.082203,17276
1659514790.119112,17283
1659514790.156019,17263
1659514790.192927,17264
1659514790.232911,17272
1659514790.272895,17285
1659514790.312879,17294
1659514790.353887,17294
1659514790.394896,17295
1659514790.433855,17298
1659514790.472813,17297
1659514790.511772,17301
1659514790.552781,17316
1659514790.593789,17338
1659514790.63309,17329
1659514790.67239,17281
1659514790.71169,17247
1659514790.752186,17239
1659514790.792683,17222
1659514790.837451,17212
1659514790.882219,17223
1659514790.926987,17218
1659514790.965262,17228
1659514791.003537,17228
1659514791.041812,17235
1659514791.082821,17233
1659514791.123829,17251
1659514791.163471,17247
1659514791.203113,17249
1659514791.242755,17255
1659514791.281372,17260
1659514791.319989,17270
1659514791.358605,17279
1659514791.399614,17272
1659514791.440623,17278
1659514791.479923,17285
1659514791.519224,17295
1659514791.558524,17299
1659514791.600558,17278
1659514791.642592,17253
1659514791.680867,17253
1659514791.719142,17255
1659514791.757417,17245
1659514791.796034,17259
1659514791.834651,17270
1659514791.873267,17261
1659514791.914276,17278
1659514791.955285,17285
1659514791.99356,17281
1659514792.031835,17279
1659514792.07011,17290
1659514792.112657,17298
1659514792.155203,17301
1659514792.19963,17313
1659514792.244056,17320
1659514792.288482,17323
1659514792.321802,17319
1659514792.355122,17327
1659514792.39989,17339
1659514792.444658,17332
1659514792.489426,17330
1659514792.523258,17316
1659514792.557091,17296
1659514792.601517,17291
1659514792.645943,17294
1659514792.690369,17289
1659514792.72967,17303
1659514792.76897,17301
1659514792.80827,17295
1659514792.849792,17303
1659514792.891313,17302
1659514792.92993,17312
1659514792.968546,17307
1659514793.007163,17315
1659514793.048685,17320
1659514793.090206,17329
1659514793.129165,17322
1659514793.168123,17336
1659514793.207082,17349
1659514793.245698,17339
1659514793.284315,17343
1659514793.322932,17342
1659514793.364453,17354
1659514793.405975,17314
1659514793.444933,17309
1659514793.483892,17297
1659514793.52285,17296
1659514793.564884,17289
1659514793.606918,17297
1659514793.645535,17290
1659514793.684152,17302
1659514793.722769,17302
1659514793.76429,17293
1659514793.805811,17309
1659514793.84477,17304
1659514793.883729,17318
1659514793.922687,17321
1659514793.964208,17320
1659514794.00573,17339
1659514794.044005,17329
1659514794.08228,17330
1659514794.120555,17336
1659514794.164981,17339
1659514794.209407,17342
1659514794.253834,17336
1659514794.286128,17328
1659514794.318423,17293
1659514794.362849,17290
1659514794.407275,17283
1659514794.451702,17280
1659514794.493736,17274
1659514794.53577,17285
1659514794.574728,17285
1659514794.613687,17299
1659514794.652645,17305
1659514794.691262,17309
1659514794.729879,17335
1659514794.768495,17327
1659514794.811042,17338
1659514794.853589,17339
1659514794.892547,17341
1659514794.931506,17347
1659514794.970464,17350
1659514795.009423,17359
1659514795.048381,17368
1659514795.08734,17394
1659514795.128861,17374
1659514795.170383,17342
1659514795.208316,17326
1659514795.246249,17312
1659514795.284182,17301
1659514795.328609,17291
1659514795.373035,17290
1659514795.417461,17288
1659514795.451806,17298
1659514795.486151,17293
1659514795.530236,17294
1659514795.57432,17306
1659514795.618405,17308
1659514795.657363,17318
1659514795.696322,17323
1659514795.73528,17319
1659514795.777827,17330
1659514795.820374,17330
1659514795.85899,17326
1659514795.897607,17342
1659514795.936224,17341
1659514795.977745,17341
1659514796.019267,17345
1659514796.058909,17296
1659514796.098551,17263
1659514796.138193,17261
1659514796.176468,17256
1659514796.214743,17236
1659514796.253018,17234
1659514796.294539,17255
1659514796.336061,17248
1659514796.374677,17254
1659514796.413294,17246
1659514796.451911,17245
1659514796.493945,17257
1659514796.535979,17257
1659514796.574254,17263
1659514796.612529,17261
1659514796.650804,17266
1659514796.692838,17275
1659514796.734872,17282
1659514796.773489,17305
1659514796.812106,17302
1659514796.850722,17305
1659514796.892756,17305
1659514796.934791,17317
1659514796.973749,17287
1659514797.012707,17256
1659514797.051666,17233
1659514797.096092,17237
1659514797.140518,17221
1659514797.184945,17217
1659514797.217239,17235
1659514797.249534,17241
1659514797.29396,17238
1659514797.338387,17244
1659514797.382813,17260
1659514797.424847,17266
1659514797.466881,17269
1659514797.505156,17280
1659514797.543431,17286
1659514797.581706,17291
1659514797.620323,17292
1659514797.658939,17314
1659514797.697556,17306
1659514797.739078,17307
1659514797.780599,17320
1659514797.819558,17325
1659514797.858516,17330
1659514797.897475,17315
1659514797.936433,17298
1659514797.975391,17281
1659514798.01435,17291
1659514798.055871,17289
1659514798.097393,17291
1659514798.136693,17305
1659514798.175993,17315
1659514798.215293,17305
1659514798.256815,17309
1659514798.298337,17309
1659514798.337637,17301
1659514798.376937,17311
1659514798.416237,17312
1659514798.457246,17318
1659514798.498255,17327
1659514798.53653,17330
1659514798.574805,17347
1659514798.61308,17339
1659514798.655627,17345
1659514798.698173,17339
1659514798.742599,17311
1659514798.787026,17292
1659514798.831452,17280
1659514798.869727,17283
1659514798.908002,17278
1659514798.946277,17293
1659514798.988311,17282
1659514799.030345,17281
1659514799.069304,17286
1659514799.108262,17293
1659514799.147221,17288
1659514799.189255,17287
1659514799.231289,17300
1659514799.270247,17301
1659514799.309206,17321
1659514799.348164,17316
1659514799.387123,17322
1659514799.426081,17336
1659514799.46504,17329
1659514799.505536,17337
1659514799.546032,17342
1659514799.584991,17313
1659514799.623949,17279
1659514799.662908,17280
1659514799.704942,17267
1659514799.746976,17260
1659514799.784909,17249
1659514799.822842,17234
1659514799.860775,17227
1659514799.899734,17192
1659514799.938693,17203
1659514799.977651,17214
1659514800.019172,17244
1659514800.060694,17253
1659514800.102216,17267
1659514800.143737,17284
1659514800.182695,17272
1659514800.221654,17278
1659514800.260612,17264
1659514800.30538,17269
1659514800.350148,17273
1659514800.394917,17288
1659514800.427211,17283
1659514800.459506,17295
1659514800.503248,17281
1659514800.546991,17261
1659514800.590734,17264
1659514800.630034,17278
1659514800.669334,17288
1659514800.708635,17298
1659514800.747251,17311
1659514800.785868,17302
1659514800.824485,17276
1659514800.866006,17298
1659514800.907528,17315
1659514800.946144,17283
1659514800.984761,17265
1659514801.023378,17239
1659514801.061653,17225
1659514801.099928,17226
1659514801.138203,17218
1659514801.180749,17222
1659514801.223296,17219
1659514801.262596,17229
1659514801.301897,17225
1659514801.341197,17231
1659514801.382206,17236
1659514801.423215,17209
1659514801.462515,17175
1659514801.501815,17151
1659514801.541115,17139
1659514801.583662,17128
1659514801.626209,17129
1659514801.670293,17130
1659514801.714378,17133
1659514801.758462,17148
1659514801.790757,17143
1659514801.823051,17152
1659514801.86782,17158
1659514801.912587,17171
1659514801.957355,17173
1659514801.995631,17186
1659514802.033906,17199
1659514802.072181,17207
1659514802.114727,17222
1659514802.157274,17221
1659514802.195891,17227
1659514802.234507,17217
1659514802.273124,17215
1659514802.314646,17203
1659514802.356167,17172
1659514802.394784,17158
1659514802.433401,17160
1659514802.472017,17162
1659514802.511317,17154
1659514802.550618,17174
1659514802.589918,17179
1659514802.631952,17171
1659514802.673986,17178
1659514802.712945,17188
1659514802.751903,17190
1659514802.790861,17190
1659514802.83187,17197
1659514802.872879,17192
1659514802.911838,17211
1659514802.950796,17206
1659514802.989755,17217
1659514803.031276,17237
1659514803.072798,17238
1659514803.111414,17247
1659514803.150031,17238
1659514803.188648,17218
1659514803.229657,17202
1659514803.270666,17199
1659514803.309624,17191
1659514803.348583,17194
1659514803.387541,17201
1659514803.431626,17183
1659514803.47571,17161
1659514803.519795,17145
1659514803.553627,17154
1659514803.587459,17155
1659514803.631544,17172
1659514803.675628,17181
1659514803.719713,17191
1659514803.758672,17197
1659514803.79763,17211
1659514803.836588,17242
1659514803.877597,17244
1659514803.918606,17260
1659514803.957565,17268
1659514803.996523,17248
1659514804.035481,17221
1659514804.077003,17211
1659514804.118525,17211
1659514804.157825,17219
1659514804.197125,17235
1659514804.236425,17253
1659514804.2747,17260
1659514804.312975,17267
1659514804.35125,17271
1659514804.392771,17262
1659514804.434293,17262
1659514804.474277,17268
1659514804.514261,17281
1659514804.554244,17274
1659514804.595766,17280
1659514804.637287,17290
1659514804.675562,17295
1659514804.713837,17291
1659514804.752112,17298
1659514804.794659,17307
1659514804.837205,17286
1659514804.876506,17257
1659514804.915806,17236
1659514804.955106,17218
1659514804.995602,17215
1659514805.036099,17222
1659514805.075057,17219
1659514805.114016,17227
1659514805.152974,17220
1659514805.1974,17217
1659514805.241827,17223
1659514805.286253,17228
1659514805.326749,17224
1659514805.367245,17230
1659514805.406888,17227
1659514805.446529,17227
1659514805.486171,17246
1659514805.527693,17251
1659514805.569214,17262
1659514805.607489,17271
1659514805.645764,17281
1659514805.684039,17279
1659514805.72334,17269
1659514805.76264,17252
1659514805.80194,17238
1659514805.844487,17234
1659514805.887033,17227
1659514805.926812,17219
1659514805.966591,17227
1659514806.006369,17240
1659514806.046148,17236
1659514806.085927,17242
1659514806.127448,17249
1659514806.16897,17261
1659514806.207586,17265
1659514806.246203,17258
1659514806.28482,17268
1659514806.325316,17268
1659514806.365812,17284
1659514806.404771,17281
1659514806.443729,17290
1659514806.482688,17298
1659514806.520962,17292
1659514806.559237,17271
1659514806.597512,17249
1659514806.639547,17249
1659514806.681581,17255
1659514806.720881,17246
1659514806.760181,17245
1659514806.799481,17262
1659514806.84049,17265
1659514806.881499,17261
1659514806.920116,17267
1659514806.958733,17286
1659514806.997349,17319
1659514807.042459,17330
1659514807.087569,17345
1659514807.132679,17336
1659514807.165998,17339
1659514807.199318,17346
1659514807.243403,17350
1659514807.287487,17363
1659514807.331572,17362
1659514807.364379,17338
1659514807.397186,17311
1659514807.441612,17300
1659514807.486039,17291
1659514807.530465,17275
1659514807.56874,17286
1659514807.607015,17289
1659514807.64529,17298
1659514807.687837,17306
1659514807.730383,17321
1659514807.769342,17322
1659514807.8083,17357
1659514807.847259,17362
1659514807.88878,17374
1659514807.930302,17374
1659514807.96926,17380
1659514808.008219,17375
1659514808.047177,17378
1659514808.086819,17389
1659514808.126461,17372
1659514808.166103,17378
1659514808.207624,17365
1659514808.249146,17341
1659514808.287763,17314
1659514808.326379,17307
1659514808.364996,17302
1659514808.406518,17299
1659514808.448039,17312
1659514808.486656,17314
1659514808.525273,17319
1659514808.563889,17316
1659514808.605923,17319
1659514808.647958,17333
1659514808.686916,17324
1659514808.725874,17343
1659514808.764833,17344
1659514808.805842,17353
1659514808.846851,17362
1659514808.890935,17368
1659514808.93502,17381
1659514808.979104,17385
1659514809.018063,17388
1659514809.057021,17394
1659514809.09598,17370
1659514809.138014,17343
1659514809.180048,17341
1659514809.218665,17346
1659514809.257281,17338
1659514809.295898,17339
1659514809.336907,17354
1659514809.377916,17351
1659514809.416874,17346
1659514809.455833,17348
1659514809.494791,17346
1659514809.533408,17358
1659514809.572025,17358
1659514809.610641,17357
1659514809.65165,17363
1659514809.692659,17372
1659514809.731618,17373
1659514809.770576,17396
1659514809.809535,17379
1659514809.847468,17378
1659514809.885401,17369
1659514809.923334,17340
1659514809.965881,17333
1659514810.008428,17324
1659514810.047386,17330
1659514810.086345,17328
1659514810.125303,17337
1659514810.166312,17333
1659514810.207321,17330
1659514810.252089,17326
1659514810.296857,17321
1659514810.341625,17312
1659514810.375458,17301
1659514810.40929,17312
1659514810.453716,17327
1659514810.498142,17346
1659514810.542569,17350
1659514810.575376,17355
1659514810.608183,17368
1659514810.652951,17375
1659514810.697719,17380
1659514810.742487,17341
1659514810.78042,17327
1659514810.818353,17334
1659514810.856287,17335
1659514810.895245,17334
1659514810.934204,17321
1659514810.973162,17332
1659514811.015196,17340
1659514811.05723,17343
1659514811.095847,17341
1659514811.134464,17347
1659514811.17308,17355
1659514811.212381,17333
1659514811.251681,17332
1659514811.290981,17327
1659514811.333015,17339
1659514811.375049,17352
1659514811.413666,17374
1659514811.452283,17375
1659514811.4909,17368
1659514811.532934,17359
1659514811.574968,17341
1659514811.613926,17344
1659514811.652885,17336
1659514811.691843,17337
1659514811.735586,17340
1659514811.779329,17349
1659514811.823071,17353
1659514811.864593,17356
1659514811.906115,17358
1659514811.945073,17355
1659514811.984031,17361
1659514812.02299,17353
1659514812.064512,17352
1659514812.106033,17348
1659514812.144308,17344
1659514812.182583,17339
1659514812.220858,17348
1659514812.260158,17352
1659514812.299458,17322
1659514812.338758,17303
1659514812.379767,17302
1659514812.420776,17288
1659514812.460077,17289
1659514812.499377,17290
1659514812.538677,17309
1659514812.580198,17312
1659514812.62172,17318
1659514812.660336,17319
1659514812.698953,17335
1659514812.73757,17340
1659514812.775845,17338
1659514812.81412,17348
1659514812.852395,17349
1659514812.894429,17348
1659514812.936463,17370
1659514812.975422,17362
1659514813.01438,17381
1659514813.053339,17373
1659514813.093835,17359
1659514813.134331,17345
1659514813.178757,17332
1659514813.223184,17338
1659514813.26761,17323
1659514813.301442,17329
1659514813.335275,17341
1659514813.379359,17351
1659514813.423444,17340
1659514813.467528,17348
1659514813.506829,17366
1659514813.546129,17368
1659514813.585429,17372
1659514813.626951,17376
1659514813.668472,17388
1659514813.707431,17376
1659514813.746389,17383
1659514813.785347,17388
1659514813.827382,17383
1659514813.869416,17396
1659514813.908716,17379
1659514813.948016,17364
1659514813.987316,17349
1659514814.025591,17348
1659514814.063866,17341
1659514814.102141,17337
1659514814.14315,17343
1659514814.184159,17353
1659514814.223459,17355
1659514814.262759,17356
1659514814.30206,17362
1659514814.343581,17352
1659514814.385103,17344
1659514814.423719,17350
1659514814.462336,17364
1659514814.500953,17358
1659514814.540595,17365
1659514814.580237,17377
1659514814.619879,17377
1659514814.6614,17380
1659514814.702922,17373
1659514814.744443,17354
1659514814.785964,17348
1659514814.825607,17338
1659514814.865248,17339
1659514814.90489,17341
1659514814.945899,17346
1659514814.986908,17342
1659514815.024841,17354
1659514815.062775,17346
1659514815.100708,17349
1659514815.145476,17361
1659514815.190244,17351
1659514815.235012,17354
1659514815.268332,17359
1659514815.301651,17366
1659514815.345394,17360
1659514815.389137,17371
1659514815.43288,17375
1659514815.471838,17364
1659514815.510797,17341
1659514815.549755,17334
1659514815.591277,17325
1659514815.632798,17317
1659514815.671073,17314
1659514815.709348,17322
1659514815.747623,17325
1659514815.79017,17327
1659514815.832717,17325
1659514815.871675,17337
1659514815.910634,17340
1659514815.949592,17348
1659514815.988209,17345
1659514816.026825,17353
1659514816.065442,17361
1659514816.106964,17370
1659514816.148485,17367
1659514816.187785,17365
1659514816.227086,17370
1659514816.266386,17354
1659514816.306882,17338
1659514816.347378,17328
1659514816.389413,17325
1659514816.431447,17323
1659514816.473481,17331
1659514816.515515,17335
1659514816.556524,17337
1659514816.597533,17332
1659514816.636491,17333
1659514816.67545,17353
1659514816.714408,17347
1659514816.753366,17346
1659514816.792325,17355
1659514816.831283,17358
1659514816.873317,17365
1659514816.915352,17362
1659514816.953968,17377
1659514816.992585,17374
1659514817.031202,17382
1659514817.070502,17353
1659514817.109802,17336
1659514817.149102,17332
1659514817.190624,17329
1659514817.232146,17334
1659514817.271104,17313
1659514817.310062,17318
1659514817.349021,17310
1659514817.391055,17329
1659514817.433089,17333
1659514817.472389,17341
1659514817.511689,17361
1659514817.55099,17359
1659514817.591486,17379
1659514817.631982,17379
1659514817.67675,17394
1659514817.721518,17404
1659514817.766286,17404
1659514817.800119,17409
1659514817.833951,17399
1659514817.878377,17375
1659514817.922804,17362
1659514817.96723,17370
1659514818.005847,17356
1659514818.044463,17356
1659514818.08308,17361
1659514818.125114,17367
1659514818.167148,17376
1659514818.205423,17372
1659514818.243698,17382
1659514818.281973,17376
1659514818.324007,17382
1659514818.366041,17379
1659514818.404316,17390
1659514818.442591,17390
1659514818.480866,17390
1659514818.519483,17394
1659514818.5581,17399
1659514818.596717,17395
1659514818.637213,17406
1659514818.677709,17413
1659514818.717351,17386
1659514818.756993,17357
1659514818.796635,17362
1659514818.83491,17352
1659514818.873185,17350
1659514818.91146,17350
1659514818.952469,17358
1659514818.993478,17370
1659514819.035512,17357
1659514819.077546,17364
1659514819.117188,17366
1659514819.15683,17376
1659514819.196472,17379
1659514819.237481,17384
1659514819.27849,17375
1659514819.317448,17374
1659514819.356406,17391
1659514819.395365,17395
1659514819.439791,17391
1659514819.484217,17397
1659514819.528644,17411
1659514819.561451,17397
1659514819.594258,17398
1659514819.638343,17366
1659514819.682427,17368
1659514819.726512,17365
1659514819.765812,17355
1659514819.805112,17369
1659514819.844412,17363
1659514819.884909,17368
1659514819.925405,17359
1659514819.964705,17367
1659514820.004005,17369
1659514820.043305,17381
1659514820.085852,17383
1659514820.128399,17388
1659514820.166674,17402
1659514820.204949,17388
1659514820.243224,17392
1659514820.282524,17398
1659514820.321824,17404
1659514820.361125,17410
1659514820.403159,17411
1659514820.445193,17403
1659514820.483468,17377
1659514820.521743,17388
1659514820.560018,17374
1659514820.602564,17370
1659514820.645111,17392
1659514820.68407,17390
1659514820.723028,17389
1659514820.761986,17390
1659514820.802483,17397
1659514820.842979,17391
1659514820.881254,17403
1659514820.919529,17403
1659514820.957804,17401
1659514821.000351,17399
1659514821.042897,17405
1659514821.081514,17414
1659514821.120131,17411
1659514821.158748,17416
1659514821.203516,17401
1659514821.248284,17382
1659514821.293052,17373
1659514821.334573,17373
1659514821.376095,17362
1659514821.414711,17366
1659514821.453328,17374
1659514821.491945,17378
1659514821.533466,17374
1659514821.574988,17373
1659514821.614288,17376
1659514821.653588,17385
1659514821.692888,17378
1659514821.731164,17389
1659514821.769439,17401
1659514821.807714,17399
1659514821.848722,17400
1659514821.889731,17411
1659514821.928348,17414
1659514821.966965,17404
1659514822.005581,17379
1659514822.044882,17369
1659514822.084182,17363
1659514822.123482,17356
1659514822.163978,17364
1659514822.204474,17355
1659514822.243433,17346
1659514822.282391,17332
1659514822.32135,17310
1659514822.362871,17307
1659514822.404393,17303
1659514822.443693,17292
1659514822.482993,17285
1659514822.522294,17310
1659514822.563302,17307
1659514822.604311,17297
1659514822.649079,17251
1659514822.693847,17231
1659514822.738616,17240
1659514822.776891,17240
1659514822.815165,17212
1659514822.85344,17167
1659514822.894962,17138
1659514822.936483,17109
1659514822.975784,17104
1659514823.015084,17104
1659514823.054384,17094
1659514823.093342,17100
1659514823.132301,17099
1659514823.171259,17099
1659514823.212268,17094
1659514823.253277,17073
1659514823.292919,17066
1659514823.332561,17067
1659514823.372203,17061
1659514823.413724,17066
1659514823.455246,17062
1659514823.494205,17062
1659514823.533163,17072
1659514823.572121,17079
1659514823.614156,17083
1659514823.65619,17090
1659514823.695148,17083
1659514823.734107,17051
1659514823.773065,17006
1659514823.810998,16984
1659514823.848931,16971
1659514823.886865,16955
1659514823.929924,16954
1659514823.972983,16970
1659514824.011258,16966
1659514824.049533,16975
1659514824.087808,16982
1659514824.128304,16998
1659514824.168801,17012
1659514824.213227,17017
1659514824.257653,17040
1659514824.30208,17052
1659514824.335912,17067
1659514824.369744,17073
1659514824.413829,17081
1659514824.457914,17101
1659514824.501998,17118
1659514824.541298,17123
1659514824.580599,17117
1659514824.619899,17078
1659514824.66142,17059
1659514824.702942,17055
1659514824.741217,17041
1659514824.779492,17035
1659514824.817767,17034
1659514824.857067,17052
1659514824.896367,17056
1659514824.935667,17039
1659514824.977701,17056
1659514825.019736,17071
1659514825.057669,17072
1659514825.095602,17084
1659514825.133535,17090
1659514825.175057,17109
1659514825.216578,17118
1659514825.255195,17127
1659514825.293812,17133
1659514825.332428,17147
1659514825.371387,17138
1659514825.410345,17143
1659514825.449304,17140
1659514825.490313,17114
1659514825.531322,17092
1659514825.573356,17052
1659514825.61539,17048
1659514825.654006,17022
1659514825.692623,17021
1659514825.73124,17042
1659514825.77635,17063
1659514825.82146,17070
1659514825.866569,17075
1659514825.900402,17089
1659514825.934234,17093
1659514825.978318,17102
1659514826.022403,17110
1659514826.066488,17124
1659514826.099295,17119
1659514826.132102,17137
1659514826.17687,17133
1659514826.221638,17129
1659514826.266406,17141
1659514826.305364,17137
1659514826.344323,17147
1659514826.383281,17135
1659514826.424803,17125
1659514826.466324,17093
1659514826.505283,17078
1659514826.544241,17074
1659514826.5832,17058
1659514826.624721,17061
1659514826.666243,17066
1659514826.705201,17080
1659514826.74416,17077
1659514826.783118,17076
1659514826.822418,17084
1659514826.861719,17102
1659514826.901019,17113
1659514826.939977,17107
1659514826.978936,17125
1659514827.017894,17130
1659514827.06232,17143
1659514827.106747,17139
1659514827.151173,17150
1659514827.192695,17166
1659514827.234216,17167
1659514827.272491,17172
1659514827.310766,17174
1659514827.349041,17131
1659514827.387658,17122
1659514827.426274,17112
1659514827.464891,17116
1659514827.507438,17099
1659514827.549985,17116
1659514827.588259,17120
1659514827.626534,17125
1659514827.664809,17127
1659514827.703768,17127
1659514827.742726,17130
1659514827.781685,17140
1659514827.822694,17135
1659514827.863703,17148
1659514827.903345,17146
1659514827.942986,17148
1659514827.982629,17162
1659514828.023637,17165
1659514828.064646,17174
1659514828.103605,17176
1659514828.142563,17188
1659514828.181522,17163
1659514828.223043,17113
1659514828.264565,17041
1659514828.303181,16966
1659514828.341798,16945
1659514828.380415,16903
1659514828.421424,16881
1659514828.462433,16870
1659514828.506517,16863
1659514828.550602,16846
1659514828.594686,16830
1659514828.633303,16823
1659514828.67192,16816
1659514828.710536,16824
1659514828.751545,16819
1659514828.792554,16822
1659514828.832196,16826
1659514828.871838,16845
1659514828.91148,16861
1659514828.950097,16886
1659514828.988714,16925
1659514829.02733,16925
1659514829.068852,16955
1659514829.110373,16955
1659514829.150015,16941
1659514829.189657,16901
1659514829.229299,16841
1659514829.270821,16845
1659514829.312342,16840
1659514829.3513,16846
1659514829.390259,16864
1659514829.429217,16863
1659514829.468176,16857
1659514829.507134,16858
1659514829.546093,16870
1659514829.587102,16864
1659514829.628111,16886
1659514829.666727,16890
1659514829.705344,16906
1659514829.743961,16902
1659514829.786507,16906
1659514829.829054,16903
1659514829.867329,16904
1659514829.905604,16920
1659514829.943879,16902
1659514829.985913,16914
1659514830.027947,16903
1659514830.072715,16874
1659514830.117483,16804
1659514830.162251,16740
1659514830.195059,16728
1659514830.227866,16708
1659514830.27195,16686
1659514830.316035,16680
1659514830.360119,16700
1659514830.399761,16676
1659514830.439403,16664
1659514830.479045,16673
1659514830.519542,16666
1659514830.560038,16669
1659514830.598313,16662
1659514830.636588,16679
1659514830.674863,16677
1659514830.71348,16679
1659514830.752096,16680
1659514830.790713,16685
1659514830.832747,16698
1659514830.874781,16692
1659514830.913056,16695
1659514830.951331,16666
1659514830.989606,16587
1659514831.03164,16517
1659514831.073674,16489
1659514831.112291,16491
1659514831.150908,16510
1659514831.189524,16541
1659514831.228483,16533
1659514831.267441,16538
1659514831.3064,16529
1659514831.347921,16528
1659514831.389443,16545
1659514831.431477,16582
1659514831.473511,16654
1659514831.511786,16705
1659514831.550061,16745
1659514831.588336,16774
1659514831.632762,16784
1659514831.677189,16780
1659514831.721615,16738
1659514831.754935,16694
1659514831.788254,16690
1659514831.831997,16687
1659514831.87574,16708
1659514831.919483,16768
1659514831.95229,16837
1659514831.985097,16919
1659514832.029865,16971
1659514832.074633,17032
1659514832.119401,17082
1659514832.156822,17109
1659514832.194242,17128
1659514832.231663,17141
1659514832.269084,17151
1659514832.31163,17164
1659514832.354177,17173
1659514832.393477,17178
1659514832.432778,17145
1659514832.472078,17098
1659514832.513087,17042
1659514832.554096,17017
1659514832.593054,16999
1659514832.632012,16995
1659514832.670971,17013
1659514832.713518,17028
1659514832.756064,17043
1659514832.794681,17043
1659514832.833298,17057
1659514832.871915,17063
1659514832.915999,17084
1659514832.960084,17091
1659514833.004168,17091
1659514833.04569,17103
1659514833.087211,17094
1659514833.125486,17078
1659514833.163761,17070
1659514833.202036,17020
1659514833.24407,16931
1659514833.286104,16903
1659514833.325405,16884
1659514833.364705,16866
1659514833.404005,16878
1659514833.442963,16900
1659514833.481922,16918
1659514833.52088,16905
1659514833.562402,16920
1659514833.603923,16936
1659514833.643224,16930
1659514833.682524,16941
1659514833.721824,16954
1659514833.763858,16969
1659514833.805892,16968
1659514833.843825,16978
1659514833.881759,16989
1659514833.919692,16997
1659514833.958992,16991
1659514833.998292,16956
1659514834.037592,16912
1659514834.078089,16911
1659514834.118585,16925
1659514834.157202,16917
1659514834.195818,16953
1659514834.234435,16968
1659514834.275957,16978
1659514834.317478,16980
1659514834.361905,16978
1659514834.406331,16986
1659514834.450757,17009
1659514834.483052,17012
1659514834.515346,17016
1659514834.560114,17049
1659514834.604882,17064
1659514834.64965,17085
1659514834.683483,17117
1659514834.717315,17136
1659514834.761741,17134
1659514834.806168,17133
1659514834.850594,17112
1659514834.889552,17080
1659514834.928511,17095
1659514834.967469,17074
1659514835.008991,17084
1659514835.050512,17096
1659514835.089129,17097
1659514835.127746,17088
1659514835.166363,17077
1659514835.207884,17060
1659514835.249405,17050
1659514835.288364,17050
1659514835.327322,17046
1659514835.366281,17034
1659514835.404556,17038
1659514835.442831,17042
1659514835.481106,17047
1659514835.523653,17046
1659514835.566199,17061
1659514835.6055,17045
1659514835.6448,17015
1659514835.6841,16963
1659514835.722717,16933
1659514835.761333,16924
1659514835.79995,16916
1659514835.841471,16944
1659514835.882993,16954
1659514835.92554,16975
1659514835.968086,16997
1659514836.006703,17013
1659514836.04532,17038
1659514836.083937,17048
1659514836.124945,17062
1659514836.165954,17081
1659514836.204913,17107
1659514836.243871,17110
1659514836.28283,17117
1659514836.326914,17137
1659514836.370999,17158
1659514836.415083,17191
1659514836.448916,17193
1659514836.482748,17213
1659514836.527174,17211
1659514836.571601,17215
1659514836.616027,17184
1659514836.654644,17174
1659514836.69326,17194
1659514836.731877,17183
1659514836.773399,17181
1659514836.81492,17214
1659514836.85422,17235
1659514836.893521,17234
1659514836.932821,17232
1659514836.974342,17232
1659514837.015864,17239
1659514837.054481,17243
1659514837.093097,17246
1659514837.131714,17270
1659514837.170331,17282
1659514837.208947,17320
1659514837.247564,17320
1659514837.288573,17284
1659514837.329582,17248
1659514837.368199,17221
1659514837.406815,17262
1659514837.445432,17264
1659514837.487466,17279
1659514837.5295,17283
1659514837.568459,17259
1659514837.607417,17247
1659514837.646376,17255
1659514837.690119,17233
1659514837.733861,17236
1659514837.777604,17228
1659514837.810924,17226
1659514837.844244,17233
1659514837.889012,17226
1659514837.93378,17228
1659514837.978548,17260
1659514838.020582,17282
1659514838.062616,17311
1659514838.101916,17326
1659514838.141216,17339
1659514838.180516,17356
1659514838.219817,17368
1659514838.259117,17343
1659514838.298417,17337
1659514838.339426,17356
1659514838.380435,17378
1659514838.419394,17401
1659514838.458352,17408
1659514838.49731,17439
1659514838.538832,17432
1659514838.580353,17397
1659514838.61897,17352
1659514838.657587,17316
1659514838.696203,17263
1659514838.734478,17179
1659514838.772753,17134
1659514838.811028,17112
1659514838.854088,17129
1659514838.897147,17147
1659514838.936105,17165
1659514838.975064,17184
1659514839.014023,17202
1659514839.055031,17216
1659514839.09604,17240
1659514839.135682,17251
1659514839.175324,17255
1659514839.214966,17253
1659514839.259392,17252
1659514839.303819,17248
1659514839.348245,17242
1659514839.381565,17237
1659514839.414885,17233
1659514839.459652,17228
1659514839.504421,17232
1659514839.549189,17199
1659514839.587464,17164
1659514839.625739,17157
1659514839.664014,17144
1659514839.70451,17150
1659514839.745006,17165
1659514839.784306,17148
1659514839.823606,17149
1659514839.862907,17145
1659514839.904428,17153
1659514839.94595,17151
1659514839.984225,17163
1659514840.0225,17164
1659514840.060775,17178
1659514840.099733,17170
1659514840.138692,17168
1659514840.17765,17181
1659514840.219172,17173
1659514840.260693,17189
1659514840.29931,17200
1659514840.337926,17226
1659514840.376543,17238
1659514840.41909,17216
1659514840.461637,17191
1659514840.500253,17181
1659514840.53887,17187
1659514840.577487,17187
1659514840.617983,17184
1659514840.658479,17188
1659514840.697096,17204
1659514840.735713,17211
1659514840.774329,17218
1659514840.818756,17214
1659514840.863182,17220
1659514840.907609,17237
1659514840.94913,17235
1659514840.990651,17239
1659514841.029952,17247
1659514841.069252,17264
1659514841.108552,17257
1659514841.150074,17275
1659514841.191595,17278
1659514841.230212,17268
1659514841.268828,17260
1659514841.307445,17255
1659514841.347087,17219
1659514841.386729,17191
1659514841.426371,17180
1659514841.468405,17171
1659514841.510439,17172
1659514841.548714,17171
1659514841.586989,17189
1659514841.625264,17219
1659514841.666273,17216
1659514841.707282,17231
1659514841.746582,17225
1659514841.785882,17238
1659514841.825182,17250
1659514841.863799,17259
1659514841.902416,17271
1659514841.941033,17278
1659514841.982042,17282
1659514842.023051,17279
1659514842.062009,17294
1659514842.100967,17291
1659514842.139926,17288
1659514842.18196,17276
1659514842.223994,17245
1659514842.262953,17237
1659514842.301911,17232
1659514842.340869,17239
1659514842.382391,17243
1659514842.423913,17264
1659514842.468339,17252
1659514842.512765,17261
1659514842.557191,17270
1659514842.591024,17271
1659514842.624856,17286
1659514842.66484,17306
1659514842.704823,17321
1659514842.744807,17346
1659514842.784791,17365
1659514842.824775,17369
1659514842.868176,17363
1659514842.911577,17375
1659514842.954978,17375
1659514842.988297,17366
1659514843.021617,17344
1659514843.066044,17344
1659514843.11047,17367
1659514843.154896,17389
1659514843.195905,17398
1659514843.236914,17412
1659514843.275872,17429
1659514843.314831,17424
1659514843.353789,17428
1659514843.392748,17420
1659514843.431706,17418
1659514843.470665,17443
1659514843.512186,17440
1659514843.553708,17444
1659514843.591983,17449
1659514843.630258,17460
1659514843.668533,17469
1659514843.711079,17481
1659514843.753626,17440
1659514843.791901,17438
1659514843.830176,17444
1659514843.868451,17446
1659514843.906726,17428
1659514843.945001,17426
1659514843.983276,17418
1659514844.026335,17419
1659514844.069395,17404
1659514844.10767,17400
1659514844.145945,17409
1659514844.18422,17414
1659514844.224716,17402
1659514844.265212,17416
1659514844.304854,17410
1659514844.344496,17426
1659514844.384138,17424
1659514844.426172,17423
1659514844.468206,17405
1659514844.512632,17385
1659514844.557059,17364
1659514844.601485,17362
1659514844.634805,17356
1659514844.668124,17368
1659514844.713234,17373
1659514844.758344,17382
1659514844.803454,17382
1659514844.841387,17387
1659514844.87932,17404
1659514844.917253,17407
1659514844.960313,17424
1659514845.003372,17419
1659514845.041989,17412
1659514845.080606,17426
1659514845.119222,17434
1659514845.157497,17432
1659514845.195772,17435
1659514845.234047,17435
1659514845.275569,17410
1659514845.31709,17405
1659514845.356049,17414
1659514845.395007,17417
1659514845.433966,17423
1659514845.475487,17429
1659514845.517009,17436
1659514845.556309,17434
1659514845.595609,17433
1659514845.634909,17434
1659514845.673868,17466
1659514845.712826,17470
1659514845.751785,17473
1659514845.793306,17484
1659514845.834828,17482
1659514845.873786,17486
1659514845.912745,17484
1659514845.951703,17498
1659514845.993737,17496
1659514846.035771,17476
1659514846.079514,17477
1659514846.123257,17482
1659514846.167,17497
1659514846.199807,17492
1659514846.232614,17501
1659514846.276699,17504
1659514846.320783,17510
1659514846.364868,17505
1659514846.3987,17515
1659514846.432532,17525
1659514846.476275,17521
1659514846.520018,17531
1659514846.563761,17536
1659514846.603061,17562
1659514846.642361,17545
1659514846.681662,17541
1659514846.72267,17515
1659514846.763679,17499
1659514846.802979,17512
1659514846.84228,17507
1659514846.88158,17517
1659514846.923614,17525
1659514846.965648,17544
1659514847.004606,17538
1659514847.043565,17548
1659514847.082524,17546
1659514847.120798,17544
1659514847.159073,17551
1659514847.197348,17556
1659514847.239895,17550
1659514847.282442,17557
1659514847.3214,17576
1659514847.360359,17569
1659514847.399317,17564
1659514847.439814,17554
1659514847.48031,17538
1659514847.518927,17526
1659514847.557543,17519
1659514847.59616,17518
1659514847.638707,17518
1659514847.681253,17519
1659514847.71987,17523
1659514847.758487,17519
1659514847.797104,17530
1659514847.838625,17531
1659514847.880147,17534
1659514847.922437,17529
1659514847.964727,17533
1659514848.007018,17534
1659514848.049308,17546
1659514848.09083,17544
1659514848.132351,17542
1659514848.170968,17557
1659514848.209585,17551
1659514848.248201,17526
1659514848.287502,17511
1659514848.326802,17513
1659514848.366102,17518
1659514848.407624,17509
1659514848.449145,17519
1659514848.487762,17528
1659514848.526378,17527
1659514848.564995,17529
1659514848.607029,17543
1659514848.649063,17542
1659514848.686997,17534
1659514848.72493,17548
1659514848.762863,17560
1659514848.802163,17568
1659514848.841464,17574
1659514848.880764,17572
1659514848.922798,17579
1659514848.964832,17584
1659514849.005841,17584
1659514849.04685,17589
1659514849.085808,17571
1659514849.124767,17546
1659514849.163725,17537
1659514849.208151,17540
1659514849.252578,17551
1659514849.297004,17560
1659514849.329811,17575
1659514849.362618,17587
1659514849.406361,17567
1659514849.450104,17575
1659514849.493847,17575
1659514849.527167,17578
1659514849.560486,17568
1659514849.604571,17571
1659514849.648655,17587
1659514849.69274,17582
1659514849.731699,17587
1659514849.770657,17584
1659514849.809615,17599
1659514849.85165,17592
1659514849.893683,17598
1659514849.9323,17573
1659514849.970917,17555
1659514850.009534,17557
1659514850.04815,17548
1659514850.086767,17542
1659514850.125384,17547
1659514850.167931,17552
1659514850.210477,17555
1659514850.249094,17566
1659514850.287711,17557
1659514850.326327,17557
1659514850.367849,17571
1659514850.40937,17565
1659514850.447987,17566
1659514850.486604,17571
1659514850.525221,17586
1659514850.567767,17573
1659514850.610314,17581
1659514850.648589,17589
1659514850.686864,17593
1659514850.725139,17591
1659514850.76666,17571
1659514850.808182,17564
1659514850.846799,17550
1659514850.885416,17540
1659514850.924032,17538
1659514850.968458,17547
1659514851.012885,17559
1659514851.057311,17557
1659514851.091143,17553
1659514851.124976,17559
1659514851.170086,17574
1659514851.215195,17569
1659514851.260305,17570
1659514851.301314,17572
1659514851.342323,17582
1659514851.381623,17585
1659514851.420923,17595
1659514851.460223,17596
1659514851.499182,17593
1659514851.538141,17614
1659514851.577099,17611
1659514851.619133,17604
1659514851.661167,17603
1659514851.699442,17579
1659514851.737717,17559
1659514851.775992,17542
1659514851.817513,17547
1659514851.859035,17547
1659514851.89731,17547
1659514851.935585,17548
1659514851.97386,17550
1659514852.012477,17550
1659514852.051093,17565
1659514852.08971,17549
1659514852.131232,17551
1659514852.172753,17554
1659514852.212053,17554
1659514852.251354,17553
1659514852.290654,17552
1659514852.331663,17549
1659514852.372672,17571
1659514852.411972,17571
1659514852.451272,17585
1659514852.490572,17573
1659514852.532606,17553
1659514852.57464,17551
1659514852.618725,17527
1659514852.66281,17524
1659514852.706894,17520
1659514852.745169,17532
1659514852.783444,17525
1659514852.821719,17536
1659514852.86324,17539
1659514852.904762,17532
1659514852.943037,17538
1659514852.981312,17539
1659514853.019587,17543
1659514853.061621,17547
1659514853.103655,17548
1659514853.142614,17542
1659514853.181572,17558
1659514853.220531,17550
1659514853.258806,17549
1659514853.297081,17557
1659514853.335356,17545
1659514853.376877,17551
1659514853.418398,17525
1659514853.45804,17512
1659514853.497682,17504
1659514853.537324,17496
1659514853.575599,17492
1659514853.613874,17496
1659514853.652149,17499
1659514853.694696,17488
1659514853.737243,17500
1659514853.775859,17499
1659514853.814476,17493
1659514853.853093,17490
1659514853.895127,17501
1659514853.937161,17505
1659514853.97612,17498
1659514854.015078,17517
1659514854.054036,17506
1659514854.095558,17525
1659514854.137079,17506
1659514854.181164,17495
1659514854.225249,17499
1659514854.269333,17474
1659514854.303165,17446
1659514854.336998,17402
1659514854.382108,17384
1659514854.427217,17365
1659514854.472327,17356
1659514854.510602,17360
1659514854.548877,17329
1659514854.587152,17291
1659514854.626111,17230
1659514854.665069,17185
1659514854.704027,17126
1659514854.746062,17110
1659514854.788096,17097
1659514854.826029,17076
1659514854.863962,17071
1659514854.901896,17081
1659514854.940512,17099
1659514854.979129,17123
1659514855.017745,17156
1659514855.060292,17208
1659514855.102839,17226
1659514855.140772,17217
1659514855.178705,17152
1659514855.216639,17054
1659514855.257648,17018
1659514855.298656,17024
1659514855.337615,17010
1659514855.376573,17036
1659514855.415532,17063
1659514855.457053,17054
1659514855.498575,17062
1659514855.543001,17041
1659514855.587428,17052
1659514855.631854,17083
1659514855.665174,17154
1659514855.698493,17188
1659514855.74292,17222
1659514855.787346,17245
1659514855.831772,17276
1659514855.870389,17295
1659514855.909006,17308
1659514855.947622,17331
1659514855.990169,17329
1659514856.032716,17296
1659514856.070991,17270
1659514856.109266,17282
1659514856.147541,17284
1659514856.185816,17288
1659514856.224091,17312
1659514856.262366,17318
1659514856.303887,17324
1659514856.345409,17324
1659514856.384709,17324
1659514856.424009,17330
1659514856.463309,17332
1659514856.504318,17336
1659514856.545327,17336
1659514856.584627,17360
1659514856.623927,17366
1659514856.663228,17357
1659514856.702528,17338
1659514856.741828,17324
1659514856.781128,17327
1659514856.82265,17346
1659514856.864171,17314
1659514856.90313,17276
1659514856.942088,17249
1659514856.981047,17235
1659514857.023593,17215
1659514857.06614,17216
1659514857.106636,17237
1659514857.147133,17249
1659514857.186433,17276
1659514857.225733,17284
1659514857.265033,17296
1659514857.30946,17303
1659514857.353886,17311
1659514857.398312,17324
1659514857.431632,17337
1659514857.464952,17355
1659514857.508694,17351
1659514857.552437,17370
1659514857.59618,17375
1659514857.63548,17398
1659514857.674781,17413
1659514857.714081,17419
1659514857.756115,17427
1659514857.798149,17418
1659514857.837107,17390
1659514857.876066,17381
1659514857.915024,17378
1659514857.956546,17384
1659514857.998067,17390
1659514858.037368,17386
1659514858.076668,17383
1659514858.115968,17402
1659514858.153901,17395
1659514858.191834,17408
1659514858.229768,17414
1659514858.272827,17430
1659514858.315886,17417
1659514858.354161,17430
1659514858.392436,17421
1659514858.430711,17429
1659514858.471977,17441
1659514858.513242,17441
1659514858.554507,17445
1659514858.595772,17456
1659514858.637294,17466
1659514858.678815,17464
1659514858.71709,17459
1659514858.755365,17432
1659514858.79364,17413
1659514858.832598,17417
1659514858.871557,17408
1659514858.910515,17414
1659514858.953062,17423
1659514858.995609,17425
1659514859.033884,17432
1659514859.072159,17444
1659514859.110434,17447
1659514859.151443,17441
1659514859.192451,17450
1659514859.231752,17453
1659514859.271052,17461
1659514859.310352,17458
1659514859.352386,17464
1659514859.39442,17475
1659514859.433037,17474
1659514859.471654,17478
1659514859.510271,17484
1659514859.551792,17488
1659514859.593313,17501
1659514859.63193,17499
1659514859.670547,17477
1659514859.709164,17478
1659514859.752907,17480
1659514859.796649,17486
1659514859.840392,17490
1659514859.874737,17492
1659514859.909082,17509
1659514859.95385,17522
1659514859.998618,17518
1659514860.043386,17506
1659514860.084395,17505
1659514860.125404,17502
1659514860.165046,17487
1659514860.204688,17483
1659514860.24433,17494
1659514860.283288,17481
1659514860.322247,17482
1659514860.361205,17481
1659514860.402727,17485
1659514860.444248,17460
1659514860.483207,17450
1659514860.522165,17466
1659514860.561124,17492
1659514860.602645,17482
1659514860.644167,17479
1659514860.682441,17465
1659514860.720716,17429
1659514860.758991,17375
1659514860.797608,17324
1659514860.836225,17292
1659514860.874842,17270
1659514860.916876,17272
1659514860.95891,17285
1659514860.997527,17257
1659514861.036143,17246
1659514861.07476,17232
1659514861.116282,17227
1659514861.157803,17208
1659514861.196762,17158
1659514861.23572,17058
1659514861.274678,16983
1659514861.316713,16936
1659514861.358747,16896
1659514861.403173,16869
1659514861.447599,16869
1659514861.492026,16900
1659514861.52432,16987
1659514861.556615,17048
1659514861.600699,17035
1659514861.644784,17034
1659514861.688868,17026
1659514861.727485,17051
1659514861.766102,17042
1659514861.804718,17008
1659514861.847265,16993
1659514861.889812,16976
1659514861.928087,16973
1659514861.966362,16924
1659514862.004637,16888
1659514862.042912,16874
1659514862.081187,16870
1659514862.119462,16858
1659514862.160983,16857
1659514862.202505,16873
1659514862.242147,16862
1659514862.281789,16852
1659514862.321431,16842
1659514862.362439,16845
1659514862.403448,16832
1659514862.442407,16836
1659514862.481365,16857
1659514862.520324,16856
1659514862.559282,16878
1659514862.598241,16875
1659514862.637199,16863
1659514862.678721,16811
1659514862.720242,16743
1659514862.759201,16717
1659514862.798159,16696
1659514862.837117,16691
1659514862.878639,16697
1659514862.920161,16702
1659514862.963903,16709
1659514863.007646,16713
1659514863.051389,16727
1659514863.085221,16734
1659514863.119054,16747
1659514863.163822,16751
1659514863.20859,16766
1659514863.253358,16769
1659514863.286165,16803
1659514863.318972,16820
1659514863.363398,16808
1659514863.407825,16797
1659514863.452251,16827
1659514863.491893,16877
1659514863.531535,16876
1659514863.571177,16880
1659514863.612698,16904
1659514863.65422,16915
1659514863.693178,16910
1659514863.732137,16930
1659514863.771095,16972
1659514863.810054,16993
1659514863.849012,17024
1659514863.88797,17019
1659514863.925904,17024
1659514863.963837,17051
1659514864.00177,17060
1659514864.043292,17070
1659514864.084813,17060
1659514864.12343,17021
1659514864.162047,16998
1659514864.200663,17017
1659514864.242185,16997
1659514864.283706,16996
1659514864.328133,17017
1659514864.372559,17038
1659514864.416985,17041
1659514864.456627,17039
1659514864.496269,17053
1659514864.535911,17056
1659514864.57692,17069
1659514864.617929,17076
1659514864.656888,17081
1659514864.695846,17096
1659514864.734804,17109
1659514864.777351,17121
1659514864.819898,17134
1659514864.857831,17114
1659514864.895764,17093
1659514864.933697,17050
1659514864.971972,17035
1659514865.010247,17038
1659514865.048522,17029
1659514865.089531,17032
1659514865.13054,17052
1659514865.169499,17060
1659514865.208457,17063
1659514865.247416,17067
1659514865.286032,17067
1659514865.324649,17080
1659514865.363266,17077
1659514865.404787,17086
1659514865.446309,17090
1659514865.485267,17105
1659514865.524226,17101
1659514865.563184,17100
1659514865.604706,17117
1659514865.646227,17117
1659514865.685527,17119
1659514865.724828,17115
1659514865.764128,17087
1659514865.805649,17040
1659514865.847171,17028
1659514865.891939,17027
1659514865.936707,17017
1659514865.981475,17035
1659514866.015307,17056
1659514866.049139,17060
1659514866.093566,17063
1659514866.137992,17063
1659514866.182419,17072
1659514866.220693,17083
1659514866.258968,17090
1659514866.297243,17095
1659514866.338765,17112
1659514866.380286,17126
1659514866.418903,17133
1659514866.45752,17129
1659514866.496137,17136
1659514866.538171,17165
1659514866.580205,17176
1659514866.619163,17182
1659514866.658122,17186
1659514866.69708,17145
1659514866.73638,17119
1659514866.775681,17114
1659514866.814981,17102
1659514866.85599,17091
1659514866.896999,17111
1659514866.935957,17119
1659514866.974916,17128
1659514867.013874,17129
1659514867.056421,17131
1659514867.098967,17142
1659514867.137584,17158
1659514867.176201,17158
1659514867.214818,17170
1659514867.253093,17175
1659514867.291368,17182
1659514867.329643,17186
1659514867.371677,17207
1659514867.413711,17205
1659514867.455745,17211
1659514867.497779,17229
1659514867.535712,17235
1659514867.573645,17216
1659514867.611579,17190
1659514867.656347,17166
1659514867.701115,17162
1659514867.745883,17170
1659514867.779202,17162
1659514867.812522,17178
1659514867.856607,17186
1659514867.900691,17196
1659514867.944776,17196
1659514867.978608,17205
1659514868.012441,17217
1659514868.057209,17220
1659514868.101977,17228
1659514868.146745,17233
1659514868.184678,17255
1659514868.222611,17261
1659514868.260545,17254
1659514868.302066,17259
1659514868.343587,17277
1659514868.382204,17288
1659514868.420821,17283
1659514868.459438,17303
1659514868.498054,17308
1659514868.536671,17297
1659514868.575288,17276
1659514868.617322,17273
1659514868.659356,17281
1659514868.697973,17252
1659514868.736589,17239
1659514868.775206,17230
1659514868.816215,17231
1659514868.857224,17226
1659514868.897208,17223
1659514868.937191,17234
1659514868.977175,17247
1659514869.018697,17246
1659514869.060218,17237
1659514869.10174,17240
1659514869.143261,17254
1659514869.184783,17261
1659514869.226304,17255
1659514869.265946,17255
1659514869.305588,17269
1659514869.34523,17272
1659514869.386239,17301
1659514869.427248,17269
1659514869.465864,17227
1659514869.504481,17221
1659514869.543098,17231
1659514869.581715,17222
1659514869.620331,17224
1659514869.658948,17240
1659514869.701495,17255
1659514869.744041,17244
1659514869.782316,17252
1659514869.820591,17258
1659514869.858866,17259
1659514869.9009,17265
1659514869.942935,17281
1659514869.981893,17268
1659514870.020851,17269
1659514870.05981,17276
1659514870.101844,17282
1659514870.143878,17289
1659514870.182837,17292
1659514870.221795,17296
1659514870.260754,17301
1659514870.302788,17313
1659514870.344822,17308
1659514870.388565,17270
1659514870.432307,17248
1659514870.47605,17240
1659514870.515009,17237
1659514870.553967,17241
1659514870.592926,17241
1659514870.63496,17242
1659514870.676994,17265
1659514870.715269,17246
1659514870.753544,17239
1659514870.791819,17254
1659514870.830094,17258
1659514870.868369,17257
1659514870.906644,17257
1659514870.948165,17268
1659514870.989687,17266
1659514871.028645,17270
1659514871.067604,17275
1659514871.106562,17276
1659514871.148084,17293
1659514871.189605,17293
1659514871.228564,17289
1659514871.267522,17267
1659514871.30648,17236
1659514871.345781,17223
1659514871.385081,17216
1659514871.424381,17216
1659514871.465903,17221
1659514871.507424,17243
1659514871.546383,17246
1659514871.585341,17252
1659514871.6243,17250
1659514871.665308,17253
1659514871.706317,17266
1659514871.75006,17260
1659514871.793803,17274
1659514871.837546,17275
1659514871.871378,17286
1659514871.90521,17288
1659514871.949637,17303
1659514871.994063,17305
1659514872.038489,17292
1659514872.070784,17312
1659514872.103078,17316
1659514872.147846,17289
1659514872.192615,17241
1659514872.237382,17240
1659514872.276683,17232
1659514872.315983,17244
1659514872.355283,17239
1659514872.396805,17238
1659514872.438326,17256
1659514872.477285,17245
1659514872.516243,17244
1659514872.555202,17253
1659514872.597236,17247
1659514872.63927,17261
1659514872.677545,17265
1659514872.71582,17283
1659514872.754095,17279
1659514872.793053,17291
1659514872.832011,17301
1659514872.87097,17304
1659514872.913517,17288
1659514872.956064,17289
1659514872.993997,17295
1659514873.03193,17269
1659514873.069863,17226
1659514873.108822,17192
1659514873.14778,17173
1659514873.186738,17109
1659514873.228773,17078
1659514873.270807,17054
1659514873.312328,17054
1659514873.35385,17062
1659514873.392808,17037
1659514873.431767,17023
1659514873.470725,16990
1659514873.512759,16973
1659514873.554793,16932
1659514873.593068,16915
1659514873.631343,16902
1659514873.669618,16892
1659514873.713361,16905
1659514873.757104,16895
1659514873.800847,16895
1659514873.835192,16897
1659514873.869537,16922
1659514873.913621,16932
1659514873.957706,16896
1659514874.001791,16875
1659514874.040407,16866
1659514874.079024,16883
1659514874.11764,16879
1659514874.158649,16884
1659514874.199658,16907
1659514874.237933,16918
1659514874.276208,16910
1659514874.314483,16912
1659514874.353442,16915
1659514874.3924,16928
1659514874.431359,16941
1659514874.473393,16965
1659514874.515427,16978
1659514874.554044,17001
1659514874.59266,17014
1659514874.631277,17024
1659514874.672799,17049
1659514874.71432,17068
1659514874.753962,17075
1659514874.793604,17099
1659514874.833246,17121
1659514874.874255,17125
1659514874.915264,17099
1659514874.953539,17045
1659514874.991814,17031
1659514875.030089,17030
1659514875.07161,17026
1659514875.113132,17048
1659514875.152432,17059
1659514875.191732,17070
1659514875.231032,17077
1659514875.275459,17093
1659514875.319885,17110
1659514875.364311,17117
1659514875.402928,17139
1659514875.441545,17150
1659514875.480161,17176
1659514875.522195,17172
1659514875.564229,17181
1659514875.602846,17189
1659514875.641463,17191
1659514875.68008,17200
1659514875.722626,17187
1659514875.765173,17196
1659514875.804132,17185
1659514875.84309,17207
1659514875.882048,17184
1659514875.921007,17126
1659514875.959965,17049
1659514875.998924,16997
1659514876.039933,16976
1659514876.080942,16947
1659514876.120242,16929
1659514876.159542,16914
1659514876.198842,16881
1659514876.240364,16849
1659514876.281885,16829
1659514876.320502,16803
1659514876.359119,16811
1659514876.397735,16817
1659514876.439257,16834
1659514876.480778,16838
1659514876.519737,16852
1659514876.558695,16869
1659514876.597654,16872
1659514876.641738,16859
1659514876.685823,16854
1659514876.729908,16868
1659514876.764252,16875
1659514876.798597,16896
1659514876.842682,16866
1659514876.886766,16766
1659514876.930851,16683
1659514876.972373,16655
1659514877.013894,16663
1659514877.052169,16649
1659514877.090444,16680
1659514877.128719,16696
1659514877.167677,16696
1659514877.206636,16699
1659514877.245595,16703
1659514877.287116,16717
1659514877.328637,16722
1659514877.367596,16748
1659514877.406554,16769
1659514877.445513,16784
1659514877.483788,16798
1659514877.522063,16821
1659514877.560338,16825
1659514877.601346,16841
1659514877.642355,16847
1659514877.682339,16825
1659514877.722323,16765
1659514877.762306,16677
1659514877.803828,16663
1659514877.84535,16665
1659514877.883625,16673
1659514877.9219,16691
1659514877.960175,16695
1659514878.002721,16692
1659514878.045268,16686
1659514878.084568,16706
1659514878.123868,16716
1659514878.163168,16714
1659514878.203665,16718
1659514878.244161,16707
1659514878.283119,16699
1659514878.322078,16660
1659514878.361037,16636
1659514878.402045,16619
1659514878.443054,16563
1659514878.487139,16444
1659514878.531223,16310
1659514878.575308,16212
1659514878.61495,16147
1659514878.654592,16075
1659514878.694234,16042
1659514878.735755,16026
1659514878.777277,16010
1659514878.815893,15984
1659514878.85451,15968
1659514878.893127,15958
1659514878.932427,15967
1659514878.971727,15968
1659514879.011028,15983
1659514879.053574,15992
1659514879.096121,15992
1659514879.134738,16010
1659514879.173354,16034
1659514879.211971,16022
1659514879.254005,15953
1659514879.296039,15843
1659514879.334998,15768
1659514879.373956,15720
1659514879.412915,15678
1659514879.453924,15656
1659514879.494932,15673
1659514879.535941,15668
1659514879.57695,15665
1659514879.618472,15670
1659514879.659993,15670
1659514879.69861,15686
1659514879.737227,15712
1659514879.775843,15737
1659514879.814802,15763
1659514879.85376,15777
1659514879.892719,15803
1659514879.93424,15825
1659514879.975762,15854
1659514880.014379,15855
1659514880.052995,15810
1659514880.091612,15698
1659514880.130229,15618
1659514880.168845,15593
1659514880.207462,15557
1659514880.249496,15545
1659514880.29153,15563
1659514880.330489,15599
1659514880.369447,15584
1659514880.408406,15584
1659514880.449415,15604
1659514880.490424,15612
1659514880.52904,15627
1659514880.567657,15646
1659514880.606274,15672
1659514880.648308,15685
1659514880.690342,15704
1659514880.734426,15724
1659514880.778511,15753
1659514880.822596,15777
1659514880.861554,15776
1659514880.900512,15759
1659514880.939471,15682
1659514880.981505,15575
1659514881.023539,15517
1659514881.062156,15487
1659514881.100773,15457
1659514881.13939,15466
1659514881.180911,15505
1659514881.222432,15529
1659514881.261733,15530
1659514881.301033,15539
1659514881.340333,15560
1659514881.379633,15584
1659514881.418933,15595
1659514881.458234,15616
1659514881.49873,15635
1659514881.539226,15656
1659514881.578185,15673
1659514881.617143,15711
1659514881.656101,15714
1659514881.694718,15726
1659514881.733335,15757
1659514881.771952,15770
1659514881.813986,15793
1659514881.85602,15779
1659514881.894978,15694
1659514881.933937,15612
1659514881.972895,15568
1659514882.014417,15547
1659514882.055938,15511
1659514882.094213,15512
1659514882.132488,15532
1659514882.170763,15539
1659514882.21331,15534
1659514882.255857,15524
1659514882.300625,15529
1659514882.345393,15549
1659514882.390161,15560
1659514882.422968,15574
1659514882.455775,15587
1659514882.500201,15598
1659514882.544628,15594
1659514882.589054,15587
1659514882.628012,15572
1659514882.666971,15587
1659514882.705929,15601
1659514882.747451,15615
1659514882.788972,15639
1659514882.827247,15624
1659514882.865522,15555
1659514882.903797,15442
1659514882.945319,15383
1659514882.98684,15366
1659514883.025115,15337
1659514883.06339,15345
1659514883.101665,15379
1659514883.140965,15400
1659514883.180266,15411
1659514883.219566,15399
1659514883.2616,15423
1659514883.303634,15450
1659514883.341909,15463
1659514883.380184,15474
1659514883.418459,15496
1659514883.457417,15512
1659514883.496376,15536
1659514883.535334,15536
1659514883.577368,15556
1659514883.619403,15584
1659514883.660924,15592
1659514883.702446,15617
1659514883.740721,15598
1659514883.778996,15525
1659514883.817271,15454
1659514883.858792,15434
1659514883.900314,15456
1659514883.939272,15486
1659514883.97823,15532
1659514884.017189,15573
1659514884.060932,15585
1659514884.104675,15591
1659514884.148417,15581
1659514884.181737,15577
1659514884.215057,15599
1659514884.259483,15627
1659514884.30391,15652
1659514884.348336,15686
1659514884.387294,15717
1659514884.426253,15741
1659514884.465211,15781
1659514884.507758,15793
1659514884.550305,15817
1659514884.589263,15837
1659514884.628222,15865
1659514884.66718,15879
1659514884.706138,15891
1659514884.745097,15854
1659514884.784055,15810
1659514884.823014,15815
1659514884.861972,15816
1659514884.900931,15812
1659514884.94194,15839
1659514884.982949,15864
1659514885.021565,15879
1659514885.060182,15893
1659514885.098799,15909
1659514885.143567,15934
1659514885.188335,15948
1659514885.233103,15964
1659514885.274624,15982
1659514885.316146,15998
1659514885.354421,16017
1659514885.392696,16028
1659514885.430971,16034
1659514885.473005,16056
1659514885.515039,16075
1659514885.553656,16085
1659514885.592273,16098
1659514885.630889,16064
1659514885.670189,16029
1659514885.70949,16012
1659514885.74879,16033
1659514885.790311,16031
1659514885.831833,16037
1659514885.870791,16065
1659514885.90975,16076
1659514885.948708,16082
1659514885.986983,16092
1659514886.025258,16094
1659514886.063533,16108
1659514886.105567,16127
1659514886.147601,16136
1659514886.18656,16140
1659514886.225518,16155
1659514886.264477,16159
1659514886.304973,16171
1659514886.345469,16176
1659514886.383744,16188
1659514886.422019,16194
1659514886.460294,16216
1659514886.502841,16199
1659514886.545388,16150
1659514886.589472,16116
1659514886.633557,16107
1659514886.677641,16108
1659514886.710449,16098
1659514886.743256,16117
1659514886.788023,16131
1659514886.832792,16142
1659514886.87756,16149
1659514886.916518,16145
1659514886.955477,16158
1659514886.994435,16174
1659514887.035957,16187
1659514887.077478,16189
1659514887.116778,16200
1659514887.156079,16215
1659514887.195379,16237
1659514887.233654,16233
1659514887.271929,16223
1659514887.310204,16230
1659514887.351213,16203
1659514887.392221,16158
1659514887.431522,16085
1659514887.470822,15985
1659514887.510122,15857
1659514887.548397,15772
1659514887.586672,15733
1659514887.624947,15650
1659514887.666981,15597
1659514887.709015,15562
1659514887.748657,15541
1659514887.788299,15453
1659514887.827941,15376
1659514887.869462,15321
1659514887.910984,15258
1659514887.949942,15201
1659514887.988901,15128
1659514888.027859,15088
1659514888.070406,15080
1659514888.112953,15094
1659514888.157379,15138
1659514888.201805,15187
1659514888.246232,15271
1659514888.278014,15336
1659514888.309796,15331
1659514888.354563,15231
1659514888.399332,15159
1659514888.4441,15165
1659514888.482716,15191
1659514888.521333,15219
1659514888.55995,15226
1659514888.601471,15194
1659514888.642993,15090
1659514888.681951,15016
1659514888.72091,14986
1659514888.759868,14940
1659514888.801902,14896
1659514888.843936,14881
1659514888.882211,14898
1659514888.920486,14907
1659514888.958761,14893
1659514888.998403,14833
1659514889.038045,14753
1659514889.077687,14561
1659514889.119209,14223
1659514889.16073,13919
1659514889.199347,13740
1659514889.237964,13671
1659514889.27658,13695
1659514889.317589,13744
1659514889.358598,13769
1659514889.397898,13807
1659514889.437198,13873
1659514889.476499,13948
1659514889.514774,14031
1659514889.553049,14118
1659514889.591324,14170
1659514889.632333,14218
1659514889.673342,14206
1659514889.714863,14225
1659514889.756384,14252
1659514889.795343,14275
1659514889.834301,14271
1659514889.87326,14167
1659514889.914781,13974
1659514889.956303,13853
1659514889.997824,13801
1659514890.039346,13731
1659514890.08138,13706
1659514890.123414,13757
1659514890.162031,13805
1659514890.200648,13849
1659514890.239264,13889
1659514890.278564,13939
1659514890.317865,14001
1659514890.357165,14069
1659514890.398174,14135
1659514890.439183,14180
1659514890.478141,14230
1659514890.5171,14266
1659514890.556058,14310
1659514890.597579,14347
1659514890.639101,14376
1659514890.678401,14393
1659514890.717701,14420
1659514890.757002,14400
1659514890.798011,14315
1659514890.839019,14256
1659514890.877636,14219
1659514890.916253,14190
1659514890.95487,14158
1659514890.999638,14161
1659514891.044406,14199
1659514891.089174,14219
1659514891.13172,14238
1659514891.174267,14244
1659514891.212884,14278
1659514891.251501,14300
1659514891.290117,14335
1659514891.332151,14348
1659514891.374186,14363
1659514891.413144,14391
1659514891.452102,14407
1659514891.491061,14431
1659514891.533095,14437
1659514891.575129,14460
1659514891.613746,14460
1659514891.652363,14436
1659514891.690979,14359
1659514891.729596,14306
1659514891.768213,14307
1659514891.806829,14287
1659514891.844763,14291
1659514891.882696,14310
1659514891.920629,14334
1659514891.963688,14350
1659514892.006748,14371
