LocalTimestamp,PG
1659515306.746153,8628
1659515306.787162,8820
1659515306.825779,9040
1659515306.864396,9244
1659515306.903013,9391
1659515306.941971,9553
1659515306.980929,9765
1659515307.019888,9996
1659515307.061922,10222
1659515307.103956,10455
1659515307.142573,10650
1659515307.18119,10835
1659515307.219806,11012
1659515307.261328,11168
1659515307.302849,11307
1659515307.342149,11429
1659515307.38145,11540
1659515307.42075,11593
1659515307.461759,11644
1659515307.502768,11684
1659515307.54651,11694
1659515307.590253,11708
1659515307.633996,11740
1659515307.672955,11795
1659515307.711913,11830
1659515307.750871,11889
1659515307.79188,11915
1659515307.832889,11951
1659515307.871848,11993
1659515307.910806,12148
1659515307.949764,12299
1659515307.990773,12381
1659515308.031782,12424
1659515308.071083,12443
1659515308.110383,12478
1659515308.149683,12521
1659515308.1883,12560
1659515308.226916,12614
1659515308.265533,12658
1659515308.30808,12704
1659515308.350626,12735
1659515308.389585,12748
1659515308.428544,12744
1659515308.467502,12693
1659515308.509023,12664
1659515308.550545,12633
1659515308.589162,12542
1659515308.627778,12458
1659515308.666395,12422
1659515308.705695,12405
1659515308.744996,12378
1659515308.784296,12368
1659515308.825817,12353
1659515308.867339,12365
1659515308.908348,12399
1659515308.949357,12395
1659515308.988315,12340
1659515309.027273,12332
1659515309.066232,12344
1659515309.111,12363
1659515309.155768,12371
1659515309.200536,12350
1659515309.233856,12332
1659515309.267175,12344
1659515309.311944,12342
1659515309.356712,12335
1659515309.40148,12303
1659515309.435312,12274
1659515309.469144,12238
1659515309.513229,12197
1659515309.557313,12168
1659515309.601398,12125
1659515309.640015,12101
1659515309.678632,12071
1659515309.717248,12025
1659515309.759795,11975
1659515309.802342,11920
1659515309.840617,11885
1659515309.878891,11841
1659515309.917166,11797
1659515309.958175,11739
1659515309.999184,11622
1659515310.038143,11465
1659515310.077101,11341
1659515310.11606,11252
1659515310.154335,11204
1659515310.19261,11188
1659515310.230885,11195
1659515310.272919,11223
1659515310.314953,11277
1659515310.354253,11316
1659515310.393553,11372
1659515310.432853,11435
1659515310.473862,11485
1659515310.514871,11529
1659515310.55383,11575
1659515310.592788,11620
1659515310.631747,11642
1659515310.674293,11689
1659515310.71684,11709
1659515310.754773,11742
1659515310.792706,11788
1659515310.83064,11834
1659515310.874724,11860
1659515310.918809,11890
1659515310.962893,11936
1659515310.995701,11991
1659515311.028508,12023
1659515311.072592,12036
1659515311.116677,12056
1659515311.160761,12092
1659515311.200403,12116
1659515311.240045,12140
1659515311.279687,12167
1659515311.321209,12208
1659515311.36273,12231
1659515311.401347,12240
1659515311.439964,12245
1659515311.47858,12237
1659515311.519589,12229
1659515311.560598,12239
1659515311.600582,12240
1659515311.640566,12245
1659515311.680549,12229
1659515311.719166,12226
1659515311.757783,12218
1659515311.796399,12197
1659515311.838434,12152
1659515311.880468,12091
1659515311.919426,12043
1659515311.958385,12001
1659515311.997343,11961
1659515312.039377,11909
1659515312.081411,11870
1659515312.119686,11835
1659515312.157961,11803
1659515312.196236,11764
1659515312.237758,11748
1659515312.279279,11737
1659515312.317896,11730
1659515312.356513,11736
1659515312.395129,11727
1659515312.437163,11715
1659515312.479198,11728
1659515312.518156,11714
1659515312.557114,11717
1659515312.596073,11716
1659515312.640499,11702
1659515312.684926,11669
1659515312.729352,11605
1659515312.770361,11540
1659515312.81137,11475
1659515312.85067,11434
1659515312.88997,11382
1659515312.92927,11351
1659515312.967545,11327
1659515313.00582,11303
1659515313.044095,11281
1659515313.085617,11275
1659515313.127138,11270
1659515313.16866,11267
1659515313.210181,11241
1659515313.248798,11229
1659515313.287415,11226
1659515313.326031,11233
1659515313.364306,11231
1659515313.402581,11226
1659515313.440856,11237
1659515313.48289,11248
1659515313.524925,11253
1659515313.563883,11245
1659515313.602841,11206
1659515313.6418,11150
1659515313.683321,11091
1659515313.724843,11052
1659515313.76346,10998
1659515313.802076,10975
1659515313.840693,10953
1659515313.880335,10940
1659515313.919977,10915
1659515313.959619,10886
1659515314.001653,10850
1659515314.043687,10767
1659515314.08162,10693
1659515314.119554,10644
1659515314.157487,10591
1659515314.199008,10542
1659515314.24053,10499
1659515314.284614,10446
1659515314.328699,10370
1659515314.372783,10293
1659515314.406103,10230
1659515314.439423,10151
1659515314.483849,10124
1659515314.528275,10137
1659515314.572702,10244
1659515314.61166,10376
1659515314.650619,10525
1659515314.689577,10637
1659515314.730586,10699
1659515314.771595,10692
1659515314.810895,10623
1659515314.850195,10601
1659515314.889496,10586
1659515314.932042,10571
1659515314.974589,10565
1659515315.013206,10550
1659515315.051822,10510
1659515315.090439,10500
1659515315.131961,10514
1659515315.173482,10509
1659515315.212782,10475
1659515315.252083,10408
1659515315.291383,10314
1659515315.329999,10272
1659515315.368616,10231
1659515315.407233,10193
1659515315.448242,10127
1659515315.489251,10077
1659515315.528551,10026
1659515315.567851,9989
1659515315.607151,9956
1659515315.645085,9935
1659515315.683018,9902
1659515315.720951,9881
1659515315.763498,9824
1659515315.806045,9762
1659515315.848079,9801
1659515315.890113,9937
1659515315.928388,10133
1659515315.966663,10342
1659515316.004938,10526
1659515316.049364,10714
1659515316.09379,10890
1659515316.138217,11022
1659515316.172049,11128
1659515316.205881,11145
1659515316.250308,11069
1659515316.294734,10956
1659515316.33916,10835
1659515316.377777,10739
1659515316.416394,10634
1659515316.45501,10559
1659515316.496532,10505
1659515316.538054,10444
1659515316.575987,10393
1659515316.61392,10340
1659515316.651853,10304
1659515316.690128,10263
1659515316.728403,10232
1659515316.766678,10191
1659515316.808712,10163
1659515316.850746,10132
1659515316.889363,10106
1659515316.92798,10099
1659515316.966596,10079
1659515317.008118,10058
1659515317.049639,10029
1659515317.08894,9940
1659515317.12824,9863
1659515317.16754,9790
1659515317.206498,9735
1659515317.245457,9672
1659515317.284415,9629
1659515317.325937,9599
1659515317.367458,9562
1659515317.40898,9499
1659515317.450501,9458
1659515317.489118,9415
1659515317.527735,9393
1659515317.566352,9370
1659515317.610778,9357
1659515317.655204,9354
1659515317.69963,9354
1659515317.733463,9343
1659515317.767295,9345
1659515317.811722,9349
1659515317.856148,9341
1659515317.900574,9301
1659515317.932868,9239
1659515317.965163,9190
1659515318.009931,9138
1659515318.054699,9109
1659515318.099467,9082
1659515318.138426,9063
1659515318.177384,9048
1659515318.216343,9028
1659515318.258377,9010
1659515318.300411,8998
1659515318.339369,8987
1659515318.378328,8982
1659515318.417286,8994
1659515318.458808,8989
1659515318.500329,8990
1659515318.538604,9000
1659515318.576879,8998
1659515318.615154,9008
1659515318.654454,8985
1659515318.693754,8957
1659515318.733055,8913
1659515318.774576,8867
1659515318.816098,8837
1659515318.854714,8799
1659515318.893331,8783
1659515318.931948,8766
1659515318.972957,8758
1659515319.013966,8742
1659515319.053608,8726
1659515319.09325,8717
1659515319.132891,8712
1659515319.174413,8702
1659515319.215935,8701
1659515319.25421,8690
1659515319.292485,8684
1659515319.33076,8659
1659515319.372794,8656
1659515319.414828,8649
1659515319.454128,8647
1659515319.493428,8632
1659515319.532728,8584
1659515319.576813,8547
1659515319.620898,8506
1659515319.664982,8484
1659515319.705991,8468
1659515319.747,8443
1659515319.785958,8424
1659515319.824917,8419
1659515319.863875,8394
1659515319.901809,8377
1659515319.939742,8382
1659515319.977675,8361
1659515320.020221,8354
1659515320.062768,8359
1659515320.101385,8348
1659515320.140002,8350
1659515320.178618,8345
1659515320.219627,8352
1659515320.260636,8350
1659515320.299937,8361
1659515320.339237,8365
1659515320.378537,8352
1659515320.417495,8337
1659515320.456454,8310
1659515320.495412,8265
1659515320.536934,8238
1659515320.578455,8223
1659515320.618097,8205
1659515320.657739,8198
1659515320.697381,8191
1659515320.73839,8185
1659515320.779399,8184
1659515320.817674,8178
1659515320.855949,8174
1659515320.894224,8178
1659515320.93677,8183
1659515320.979317,8194
1659515321.024085,8194
1659515321.068853,8203
1659515321.113621,8208
1659515321.151555,8224
1659515321.189488,8227
1659515321.227421,8226
1659515321.26638,8213
1659515321.305338,8170
1659515321.344296,8150
1659515321.386331,8147
1659515321.428365,8125
1659515321.466981,8124
1659515321.505598,8123
1659515321.544215,8126
1659515321.586761,8126
1659515321.629308,8138
1659515321.668608,8134
1659515321.707909,8140
1659515321.747209,8148
1659515321.785825,8154
1659515321.824442,8176
1659515321.863059,8172
1659515321.904068,8181
1659515321.945077,8199
1659515321.984719,8202
1659515322.024361,8221
1659515322.064003,8226
1659515322.104499,8232
1659515322.144995,8224
1659515322.183612,8212
1659515322.222229,8162
1659515322.260845,8134
1659515322.302367,8127
1659515322.343888,8104
1659515322.382847,8090
1659515322.421805,8096
1659515322.460764,8094
1659515322.504848,8086
1659515322.548933,8085
1659515322.593017,8086
1659515322.634539,8081
1659515322.67606,8098
1659515322.714677,8100
1659515322.753294,8115
1659515322.791911,8123
1659515322.833432,8122
1659515322.874954,8136
1659515322.914596,8145
1659515322.954237,8156
1659515322.993879,8158
1659515323.032496,8160
1659515323.071113,8158
1659515323.10973,8131
1659515323.150226,8099
1659515323.190722,8062
1659515323.229681,8054
1659515323.268639,8035
1659515323.307597,8024
1659515323.349632,8030
1659515323.391666,8026
1659515323.430282,8020
1659515323.468899,8020
1659515323.507516,8026
1659515323.546474,8022
1659515323.585433,8037
1659515323.624391,8047
1659515323.666425,8052
1659515323.70846,8070
1659515323.747076,8070
1659515323.785693,8079
1659515323.82431,8086
1659515323.866344,8100
1659515323.908378,8109
1659515323.94802,8108
1659515323.987662,8091
1659515324.027304,8055
1659515324.0678,8053
1659515324.108296,8033
1659515324.152381,8014
1659515324.196465,8021
1659515324.24055,8022
1659515324.279508,8029
1659515324.318467,8023
1659515324.357425,8029
1659515324.398947,8041
1659515324.440468,8060
1659515324.479085,8064
1659515324.517702,8073
1659515324.556319,8100
1659515324.59784,8103
1659515324.639362,8114
1659515324.67832,8127
1659515324.717278,8143
1659515324.756237,8153
1659515324.794854,8167
1659515324.83347,8182
1659515324.872087,8193
1659515324.915146,8183
1659515324.958206,8146
1659515324.996822,8126
1659515325.035439,8123
1659515325.074056,8097
1659515325.115065,8090
1659515325.156074,8090
1659515325.195374,8094
1659515325.234674,8087
1659515325.273974,8085
1659515325.312591,8094
1659515325.351208,8094
1659515325.389824,8106
1659515325.430321,8109
1659515325.470817,8113
1659515325.512338,8121
1659515325.55386,8125
1659515325.592477,8141
1659515325.631094,8136
1659515325.66971,8150
1659515325.713795,8152
1659515325.757879,8158
1659515325.801964,8167
1659515325.835796,8174
1659515325.869628,8172
1659515325.914055,8136
1659515325.958481,8114
1659515326.002908,8082
1659515326.041183,8069
1659515326.079457,8055
1659515326.117732,8054
1659515326.159766,8051
1659515326.201801,8037
1659515326.241101,8046
1659515326.280401,8044
1659515326.319701,8048
1659515326.357976,8051
1659515326.396251,8064
1659515326.434526,8074
1659515326.473485,8083
1659515326.512443,8097
1659515326.551401,8106
1659515326.59241,8116
1659515326.633419,8130
1659515326.671694,8137
1659515326.709969,8155
1659515326.748244,8165
1659515326.793354,8154
1659515326.838464,8126
1659515326.883574,8109
1659515326.916893,8097
1659515326.950213,8091
1659515326.994981,8087
1659515327.039749,8094
1659515327.084517,8098
1659515327.126039,8098
1659515327.16756,8097
1659515327.20686,8105
1659515327.246161,8107
1659515327.285461,8126
1659515327.323736,8126
1659515327.362011,8129
1659515327.400286,8153
1659515327.442832,8158
1659515327.485379,8172
1659515327.523996,8179
1659515327.562613,8198
1659515327.601229,8206
1659515327.642238,8223
1659515327.683247,8232
1659515327.721864,8239
1659515327.76048,8239
1659515327.799097,8199
1659515327.838739,8177
1659515327.878381,8154
1659515327.918023,8141
1659515327.958519,8130
1659515327.999016,8127
1659515328.037974,8120
1659515328.076932,8115
1659515328.115891,8117
1659515328.157925,8114
1659515328.199959,8113
1659515328.239259,8117
1659515328.27856,8112
1659515328.31786,8114
1659515328.358869,8128
1659515328.399878,8130
1659515328.439178,8131
1659515328.478478,8127
1659515328.517778,8133
1659515328.558787,8128
1659515328.599796,8121
1659515328.643539,8117
1659515328.687282,8115
1659515328.731025,8104
1659515328.769983,8079
1659515328.808941,8046
1659515328.8479,8028
1659515328.889421,8015
1659515328.930943,8010
1659515328.969218,8015
1659515329.007493,8026
1659515329.045768,8022
1659515329.085068,8018
1659515329.124368,8017
1659515329.163668,8028
1659515329.205703,8022
1659515329.247737,8020
1659515329.286012,8025
1659515329.324286,8024
1659515329.362561,8041
1659515329.404596,8052
1659515329.44663,8073
1659515329.48593,8088
1659515329.52523,8108
1659515329.56453,8123
1659515329.602463,8110
1659515329.640397,8097
1659515329.67833,8077
1659515329.721389,8061
1659515329.764449,8036
1659515329.803066,8013
1659515329.841682,8000
1659515329.880299,8001
1659515329.920795,8002
1659515329.961292,7984
1659515330.00025,7966
1659515330.039208,7954
1659515330.078167,7945
1659515330.120201,7960
1659515330.162235,7959
1659515330.206661,7956
1659515330.251088,7975
1659515330.295514,8008
1659515330.328834,8037
1659515330.362154,8046
1659515330.407263,8036
1659515330.452373,8052
1659515330.497483,8065
1659515330.535758,8040
1659515330.574033,8002
1659515330.612308,7981
1659515330.654342,7968
1659515330.696376,7951
1659515330.735676,7925
1659515330.774976,7915
1659515330.814277,7911
1659515330.855285,7906
1659515330.896294,7889
1659515330.934911,7896
1659515330.973528,7918
1659515331.012145,7935
1659515331.051103,7933
1659515331.090061,7942
1659515331.12902,7937
1659515331.170541,7950
1659515331.212063,7962
1659515331.250338,7973
1659515331.288613,7977
1659515331.326888,7999
1659515331.368922,8002
1659515331.410956,8000
1659515331.449573,7965
1659515331.488189,7931
1659515331.526806,7915
1659515331.571574,7887
1659515331.616342,7872
1659515331.66111,7869
1659515331.700069,7878
1659515331.739027,7870
1659515331.777986,7880
1659515331.818995,7886
1659515331.860003,7892
1659515331.898278,7891
1659515331.936553,7890
1659515331.974828,7882
1659515332.013787,7884
1659515332.052745,7881
1659515332.091704,7873
1659515332.133225,7872
1659515332.174747,7881
1659515332.213364,7888
1659515332.25198,7880
1659515332.290597,7863
1659515332.329214,7827
1659515332.367831,7812
1659515332.406447,7777
1659515332.448481,7758
1659515332.490515,7742
1659515332.529132,7744
1659515332.567749,7746
1659515332.606365,7734
1659515332.648912,7737
1659515332.691459,7732
1659515332.730759,7737
1659515332.770059,7729
1659515332.80936,7734
1659515332.850368,7756
1659515332.891377,7763
1659515332.929994,7770
1659515332.968611,7770
1659515333.007227,7786
1659515333.050287,7793
1659515333.093346,7808
1659515333.137089,7812
1659515333.180832,7825
1659515333.224575,7831
1659515333.263533,7803
1659515333.302492,7772
1659515333.34145,7759
1659515333.382459,7732
1659515333.423468,7716
1659515333.462426,7710
1659515333.501385,7726
1659515333.540343,7745
1659515333.579302,7772
1659515333.61826,7751
1659515333.657218,7695
1659515333.700278,7686
1659515333.743337,7671
1659515333.781954,7666
1659515333.820571,7678
1659515333.859187,7682
1659515333.900709,7674
1659515333.94223,7686
1659515333.981531,7692
1659515334.020831,7702
1659515334.060131,7723
1659515334.101652,7716
1659515334.143174,7702
1659515334.181107,7683
1659515334.21904,7643
1659515334.256974,7632
1659515334.296274,7617
1659515334.335574,7612
1659515334.374874,7608
1659515334.41537,7608
1659515334.455867,7593
1659515334.495167,7589
1659515334.534467,7592
1659515334.573767,7588
1659515334.614776,7580
1659515334.655785,7568
1659515334.700212,7558
1659515334.744638,7553
1659515334.789064,7557
1659515334.821359,7563
1659515334.853653,7576
1659515334.898763,7588
1659515334.943873,7586
1659515334.988983,7581
1659515335.027941,7581
1659515335.0669,7583
1659515335.105858,7586
1659515335.146867,7605
1659515335.187876,7624
1659515335.227176,7650
1659515335.266476,7648
1659515335.305776,7663
1659515335.346785,7704
1659515335.387794,7755
1659515335.426411,7822
1659515335.465028,7882
1659515335.503644,7920
1659515335.542603,7922
1659515335.581561,7932
1659515335.62052,7936
1659515335.661529,7936
1659515335.702538,7924
1659515335.741154,7891
1659515335.779771,7865
1659515335.818388,7847
1659515335.857346,7808
1659515335.896304,7766
1659515335.935263,7734
1659515335.977297,7719
1659515336.019331,7695
1659515336.057948,7674
1659515336.096565,7666
1659515336.135181,7666
1659515336.177215,7668
1659515336.219249,7652
1659515336.261796,7646
1659515336.304343,7663
1659515336.34296,7663
1659515336.381577,7665
1659515336.420193,7673
1659515336.464619,7682
1659515336.509046,7689
1659515336.553472,7685
1659515336.586279,7659
1659515336.619086,7623
1659515336.663171,7627
1659515336.707255,7609
1659515336.75134,7601
1659515336.785172,7592
1659515336.819005,7602
1659515336.864115,7598
1659515336.909224,7603
1659515336.954334,7607
1659515336.992951,7606
1659515337.031568,7615
1659515337.070184,7619
1659515337.111193,7633
1659515337.152202,7652
1659515337.191502,7653
1659515337.230802,7663
1659515337.270103,7685
1659515337.308378,7691
1659515337.346653,7695
1659515337.384928,7705
1659515337.426962,7709
1659515337.468996,7694
1659515337.507271,7688
1659515337.545546,7666
1659515337.583821,7646
1659515337.62483,7641
1659515337.665838,7642
1659515337.704113,7643
1659515337.742388,7645
1659515337.780663,7662
1659515337.822698,7654
1659515337.864732,7644
1659515337.90369,7645
1659515337.942649,7650
1659515337.981607,7670
1659515338.022616,7671
1659515338.063625,7688
1659515338.102242,7687
1659515338.140858,7699
1659515338.179475,7717
1659515338.224243,7731
1659515338.269011,7735
1659515338.313779,7750
1659515338.347099,7757
1659515338.380419,7766
1659515338.424845,7754
1659515338.469271,7744
1659515338.513697,7723
1659515338.554706,7721
1659515338.595715,7720
1659515338.634332,7715
1659515338.672949,7718
1659515338.711565,7732
1659515338.750524,7731
1659515338.789482,7736
1659515338.828441,7747
1659515338.870475,7750
1659515338.912509,7764
1659515338.950784,7778
1659515338.989059,7787
1659515339.027334,7810
1659515339.066634,7810
1659515339.105934,7826
1659515339.145235,7847
1659515339.187781,7854
1659515339.230328,7863
1659515339.268603,7869
1659515339.306878,7872
1659515339.345153,7864
1659515339.386674,7873
1659515339.428196,7864
1659515339.467838,7866
1659515339.50748,7872
1659515339.547122,7880
1659515339.591206,7885
1659515339.635291,7896
1659515339.679375,7899
1659515339.713208,7904
1659515339.74704,7906
1659515339.791808,7919
1659515339.836576,7934
1659515339.881344,7950
1659515339.913126,7964
1659515339.944908,7965
1659515339.988651,7986
1659515340.032394,7992
1659515340.076137,8000
1659515340.115778,8012
1659515340.155421,8020
1659515340.195062,8031
1659515340.237097,8037
1659515340.279131,8048
1659515340.318089,8031
1659515340.357048,8042
1659515340.396006,8029
1659515340.437527,8024
1659515340.479049,8027
1659515340.518008,8026
1659515340.556966,8026
1659515340.595924,8023
1659515340.634199,8031
1659515340.672474,8028
1659515340.710749,8032
1659515340.753296,8039
1659515340.795843,8040
1659515340.834118,8054
1659515340.872393,8048
1659515340.910668,8053
1659515340.951677,8056
1659515340.992686,8061
1659515341.031302,8064
1659515341.069919,8067
1659515341.108536,8074
1659515341.15057,8073
1659515341.192604,8077
1659515341.230879,8067
1659515341.269154,8054
1659515341.307429,8063
1659515341.352197,8059
1659515341.396965,8067
1659515341.441733,8075
1659515341.483254,8080
1659515341.524776,8091
1659515341.563393,8098
1659515341.602009,8104
1659515341.640626,8108
1659515341.68266,8112
1659515341.724694,8125
1659515341.763653,8131
1659515341.802611,8146
1659515341.84157,8164
1659515341.879845,8180
1659515341.91812,8183
1659515341.956395,8188
1659515341.997916,8194
1659515342.039438,8205
1659515342.079626,8201
1659515342.119815,8197
1659515342.160004,8197
1659515342.200192,8192
1659515342.240381,8197
1659515342.28139,8212
1659515342.322399,8229
1659515342.361699,8250
1659515342.401,8258
1659515342.4403,8258
1659515342.479942,8247
1659515342.519583,8237
1659515342.559225,8229
1659515342.600234,8230
1659515342.641243,8230
1659515342.680543,8236
1659515342.719844,8259
1659515342.759144,8283
1659515342.801178,8298
1659515342.843212,8307
1659515342.88217,8295
1659515342.921129,8297
1659515342.960088,8298
1659515343.001096,8294
1659515343.042105,8303
1659515343.081405,8304
1659515343.120706,8311
1659515343.160006,8304
1659515343.200502,8301
1659515343.240999,8287
1659515343.279957,8276
1659515343.318915,8274
1659515343.357874,8261
1659515343.4023,8259
1659515343.446726,8250
1659515343.491153,8257
1659515343.52396,8255
1659515343.556767,8261
1659515343.601193,8255
1659515343.64562,8254
1659515343.690046,8264
1659515343.724391,8256
1659515343.758736,8262
1659515343.80282,8277
1659515343.846905,8275
1659515343.89099,8284
1659515343.929606,8295
1659515343.968223,8300
1659515344.00684,8301
1659515344.048874,8294
1659515344.090908,8284
1659515344.129183,8279
1659515344.167458,8292
1659515344.205733,8274
1659515344.244349,8273
1659515344.282966,8284
1659515344.321583,8282
1659515344.36413,8291
1659515344.406676,8282
1659515344.44461,8287
1659515344.482543,8286
1659515344.520476,8287
1659515344.560972,8291
1659515344.601469,8285
1659515344.641111,8292
1659515344.680753,8283
1659515344.720394,8289
1659515344.762429,8294
1659515344.804463,8291
1659515344.843079,8299
1659515344.881696,8302
1659515344.920313,8292
1659515344.962347,8288
1659515345.004381,8295
1659515345.042998,8291
1659515345.081614,8266
1659515345.120231,8255
1659515345.163974,8241
1659515345.207717,8260
1659515345.25146,8275
1659515345.294519,8263
1659515345.337578,8267
1659515345.376195,8284
1659515345.414812,8307
1659515345.453429,8317
1659515345.493925,8346
1659515345.534421,8377
1659515345.573721,8388
1659515345.613022,8408
1659515345.652322,8421
1659515345.69128,8443
1659515345.730239,8434
1659515345.769197,8447
1659515345.810719,8447
1659515345.85224,8456
1659515345.89154,8450
1659515345.93084,8434
1659515345.970141,8429
1659515346.012175,8423
1659515346.054209,8416
1659515346.092826,8396
1659515346.131442,8392
1659515346.170059,8393
1659515346.209359,8384
1659515346.248659,8376
1659515346.28796,8355
1659515346.329481,8361
1659515346.371003,8368
1659515346.409278,8372
1659515346.447553,8390
1659515346.485828,8398
1659515346.526836,8426
1659515346.567845,8429
1659515346.607146,8436
1659515346.646446,8438
1659515346.685746,8443
1659515346.726755,8435
1659515346.767764,8439
1659515346.81219,8424
1659515346.856616,8409
1659515346.901043,8392
1659515346.93385,8389
1659515346.966657,8372
1659515347.011083,8370
1659515347.05551,8351
1659515347.099936,8343
1659515347.139236,8340
1659515347.178536,8327
1659515347.217836,8323
1659515347.259871,8308
1659515347.301905,8318
1659515347.34018,8302
1659515347.378455,8316
1659515347.41673,8304
1659515347.455004,8300
1659515347.493279,8310
1659515347.531554,8302
1659515347.573076,8301
1659515347.614598,8307
1659515347.653556,8305
1659515347.692514,8304
1659515347.731473,8300
1659515347.769406,8278
1659515347.807339,8263
1659515347.845273,8269
1659515347.886794,8253
1659515347.928316,8237
1659515347.967616,8250
1659515348.006916,8243
1659515348.046216,8231
1659515348.087738,8235
1659515348.129259,8228
1659515348.170781,8222
1659515348.212302,8220
1659515348.251944,8211
1659515348.291586,8212
1659515348.331228,8215
1659515348.37275,8217
1659515348.414271,8213
1659515348.453229,8218
1659515348.492188,8226
1659515348.531147,8222
1659515348.573181,8223
1659515348.615215,8221
1659515348.65349,8213
1659515348.691765,8196
1659515348.73004,8180
1659515348.774124,8167
1659515348.818209,8170
1659515348.862293,8150
1659515348.896638,8158
1659515348.930983,8147
1659515348.975068,8139
1659515349.019152,8138
1659515349.063237,8135
1659515349.104759,8128
1659515349.14628,8118
1659515349.18558,8127
1659515349.22488,8129
1659515349.26418,8131
1659515349.302455,8134
1659515349.34073,8137
1659515349.379005,8138
1659515349.420527,8145
1659515349.462049,8140
1659515349.50169,8153
1659515349.541332,8147
1659515349.580974,8144
1659515349.618907,8135
1659515349.656841,8131
1659515349.694774,8101
1659515349.735783,8079
1659515349.776792,8067
1659515349.81575,8049
1659515349.854709,8038
1659515349.893667,8021
1659515349.935701,8013
1659515349.977735,8008
1659515350.01601,7993
1659515350.054285,7991
1659515350.09256,7981
1659515350.134594,7980
1659515350.176629,7975
1659515350.215245,7990
1659515350.253862,7979
1659515350.292479,7982
1659515350.336563,7991
1659515350.380648,7995
1659515350.424732,8000
1659515350.458565,7996
1659515350.492397,8006
1659515350.537165,7999
1659515350.581933,7978
1659515350.626701,7969
1659515350.667197,7951
1659515350.707694,7949
1659515350.746652,7951
1659515350.785611,7937
1659515350.824569,7944
1659515350.863528,7932
1659515350.902486,7925
1659515350.941445,7927
1659515350.981941,7924
1659515351.022437,7924
1659515351.061396,7927
1659515351.100354,7932
1659515351.139313,7941
1659515351.177929,7944
1659515351.216546,7940
1659515351.255163,7943
1659515351.297197,7952
1659515351.339231,7953
1659515351.378531,7956
1659515351.417831,7953
1659515351.457131,7964
1659515351.498653,7941
1659515351.540174,7930
1659515351.579133,7919
1659515351.618091,7905
1659515351.65705,7902
1659515351.699084,7887
1659515351.741118,7886
1659515351.780418,7882
1659515351.819718,7880
1659515351.859019,7873
1659515351.900028,7868
1659515351.941036,7871
1659515351.979653,7867
1659515352.01827,7865
1659515352.056887,7868
1659515352.101313,7869
1659515352.145739,7862
1659515352.190166,7864
1659515352.2322,7869
1659515352.274234,7865
1659515352.31285,7870
1659515352.351467,7866
1659515352.390084,7869
1659515352.432118,7854
1659515352.474152,7837
1659515352.513111,7820
1659515352.552069,7811
1659515352.591027,7799
1659515352.629986,7790
1659515352.668944,7776
1659515352.707903,7785
1659515352.747203,7767
1659515352.786503,7764
1659515352.825804,7771
1659515352.867838,7770
1659515352.909872,7779
1659515352.947805,7767
1659515352.985738,7787
1659515353.023671,7787
1659515353.065193,7810
1659515353.106714,7810
1659515353.145331,7807
1659515353.183948,7825
1659515353.222564,7825
1659515353.264086,7821
1659515353.305608,7820
1659515353.344224,7800
1659515353.382841,7803
1659515353.421458,7802
1659515353.465884,7797
1659515353.51031,7785
1659515353.554737,7781
1659515353.587031,7782
1659515353.619326,7777
1659515353.664094,7788
1659515353.708862,7790
1659515353.75363,7802
1659515353.796176,7806
1659515353.838723,7818
1659515353.87734,7828
1659515353.915957,7835
1659515353.954573,7845
1659515353.993532,7850
1659515354.03249,7874
1659515354.071449,7867
1659515354.11297,7883
1659515354.154492,7901
1659515354.193109,7898
1659515354.231725,7898
1659515354.270342,7878
1659515354.311863,7872
1659515354.353385,7850
1659515354.392344,7845
1659515354.431302,7840
1659515354.47026,7828
1659515354.508535,7830
1659515354.54681,7828
1659515354.585085,7825
1659515354.627632,7821
1659515354.670179,7812
1659515354.709479,7819
1659515354.748779,7825
1659515354.788079,7834
1659515354.829088,7843
1659515354.870097,7852
1659515354.909055,7855
1659515354.948014,7862
1659515354.986973,7865
1659515355.029519,7861
1659515355.072066,7870
1659515355.116492,7865
1659515355.160918,7868
1659515355.205345,7845
1659515355.237639,7828
1659515355.269934,7814
1659515355.314702,7798
1659515355.35947,7788
1659515355.404238,7781
1659515355.442513,7781
1659515355.480788,7774
1659515355.519063,7767
1659515355.561097,7773
1659515355.603131,7762
1659515355.64209,7763
1659515355.681048,7763
1659515355.720006,7774
1659515355.761528,7773
1659515355.80305,7775
1659515355.841666,7791
1659515355.880283,7792
1659515355.9189,7806
1659515355.9582,7805
1659515355.9975,7803
1659515356.0368,7812
1659515356.078322,7806
1659515356.119843,7786
1659515356.15846,7774
1659515356.197077,7771
1659515356.235693,7759
1659515356.27431,7763
1659515356.312927,7758
1659515356.351544,7753
1659515356.392553,7761
1659515356.433561,7748
1659515356.472178,7749
1659515356.510795,7756
1659515356.549412,7753
1659515356.591446,7760
1659515356.63348,7768
1659515356.677564,7771
1659515356.721649,7772
1659515356.765733,7780
1659515356.799053,7782
1659515356.832373,7797
1659515356.876457,7803
1659515356.920542,7803
1659515356.964627,7801
1659515357.003585,7793
1659515357.042544,7776
1659515357.081502,7766
1659515357.123536,7757
1659515357.16557,7744
1659515357.204529,7743
1659515357.243487,7750
1659515357.282446,7742
1659515357.323455,7739
1659515357.364463,7742
1659515357.403422,7734
1659515357.44238,7731
1659515357.481339,7734
1659515357.520297,7725
1659515357.559256,7728
1659515357.598214,7734
1659515357.639736,7736
1659515357.681257,7728
1659515357.719874,7734
1659515357.758491,7732
1659515357.797107,7742
1659515357.838116,7757
1659515357.879125,7789
1659515357.918767,7793
1659515357.958409,7794
1659515357.998051,7783
1659515358.037009,7781
1659515358.075968,7779
1659515358.114926,7778
1659515358.155935,7790
1659515358.196944,7788
1659515358.242054,7788
1659515358.287164,7798
1659515358.332273,7808
1659515358.366106,7801
1659515358.399938,7815
1659515358.444365,7820
1659515358.488791,7826
1659515358.533217,7838
1659515358.566024,7853
1659515358.598831,7862
1659515358.643258,7872
1659515358.687684,7886
1659515358.73211,7898
1659515358.770043,7911
1659515358.807977,7911
1659515358.84591,7893
1659515358.888457,7889
1659515358.931003,7872
1659515358.96962,7871
1659515359.008237,7869
1659515359.046854,7878
1659515359.085129,7894
1659515359.123404,7899
1659515359.161679,7896
1659515359.203712,7910
1659515359.245747,7931
1659515359.284364,7944
1659515359.32298,7954
1659515359.361597,7950
1659515359.403118,7958
1659515359.44464,7958
1659515359.483598,7963
1659515359.522557,7955
1659515359.561515,7955
1659515359.600132,7968
1659515359.638749,7976
1659515359.677365,7985
1659515359.717862,7989
1659515359.758358,7980
1659515359.800392,7954
1659515359.842426,7928
1659515359.881385,7911
1659515359.920343,7888
1659515359.959301,7875
1659515360.003044,7868
1659515360.046787,7857
1659515360.09053,7868
1659515360.12385,7860
1659515360.15717,7863
1659515360.201937,7860
1659515360.246706,7864
1659515360.291474,7873
1659515360.325306,7878
1659515360.359138,7888
1659515360.403565,7888
1659515360.447991,7896
1659515360.492417,7903
1659515360.531718,7889
1659515360.571018,7903
1659515360.610318,7901
1659515360.650814,7900
1659515360.69131,7881
1659515360.729927,7875
1659515360.768544,7874
1659515360.807161,7855
1659515360.849707,7832
1659515360.892254,7814
1659515360.930529,7816
1659515360.968804,7804
1659515361.007079,7799
1659515361.045696,7813
1659515361.084312,7823
1659515361.122929,7845
1659515361.164451,7851
1659515361.205972,7868
1659515361.245272,7877
1659515361.284573,7879
1659515361.323873,7886
1659515361.365394,7883
1659515361.406916,7894
1659515361.445874,7911
1659515361.484833,7918
1659515361.523791,7923
1659515361.565825,7898
1659515361.607859,7884
1659515361.646818,7865
1659515361.685776,7848
1659515361.724735,7833
1659515361.766256,7827
1659515361.807778,7827
1659515361.847078,7828
1659515361.886378,7826
1659515361.925678,7830
1659515361.969079,7841
1659515362.01248,7831
1659515362.055882,7828
1659515362.09689,7824
1659515362.137899,7823
1659515362.1772,7824
1659515362.2165,7820
1659515362.2558,7828
1659515362.294417,7820
1659515362.333033,7833
1659515362.37165,7832
1659515362.413172,7827
1659515362.454693,7825
1659515362.493652,7793
1659515362.53261,7772
1659515362.571568,7755
1659515362.61309,7745
1659515362.654612,7732
1659515362.692886,7731
1659515362.731161,7727
1659515362.769436,7730
1659515362.809078,7733
1659515362.84872,7726
1659515362.888362,7725
1659515362.928859,7733
1659515362.969355,7726
1659515363.00763,7722
1659515363.045905,7735
1659515363.08418,7727
1659515363.127239,7738
1659515363.170298,7741
1659515363.208573,7756
1659515363.246848,7759
1659515363.285123,7773
1659515363.329208,7758
1659515363.373292,7729
1659515363.417377,7722
1659515363.457019,7709
1659515363.496661,7702
1659515363.536303,7686
1659515363.577312,7692
1659515363.618321,7687
1659515363.656937,7696
1659515363.695554,7694
1659515363.734171,7691
1659515363.77723,7709
1659515363.820289,7710
1659515363.859248,7719
1659515363.898206,7726
1659515363.937165,7725
1659515363.975781,7732
1659515364.014398,7738
1659515364.053015,7741
1659515364.094537,7743
1659515364.136058,7752
1659515364.175016,7761
1659515364.213975,7758
1659515364.252933,7778
1659515364.293942,7772
1659515364.334951,7777
1659515364.37391,7781
1659515364.412868,7776
1659515364.451827,7761
1659515364.493348,7750
1659515364.534869,7747
1659515364.573828,7740
1659515364.612787,7733
1659515364.651745,7720
1659515364.696855,7715
1659515364.741965,7736
1659515364.787074,7747
1659515364.819881,7766
1659515364.852689,7780
1659515364.896773,7802
1659515364.940858,7814
1659515364.984942,7827
1659515365.026976,7839
1659515365.06901,7839
1659515365.108311,7849
1659515365.147611,7855
1659515365.186911,7867
1659515365.225186,7841
1659515365.263461,7807
1659515365.301736,7794
1659515365.342745,7769
1659515365.383754,7752
1659515365.42237,7741
1659515365.460987,7728
1659515365.499604,7723
1659515365.537879,7717
1659515365.576154,7716
1659515365.614429,7715
1659515365.656463,7727
1659515365.698497,7729
1659515365.737456,7725
1659515365.776414,7730
1659515365.815372,7726
1659515365.856894,7721
1659515365.898415,7725
1659515365.937374,7727
1659515365.976332,7735
1659515366.015291,7731
1659515366.057325,7731
1659515366.099359,7722
1659515366.138659,7717
1659515366.177959,7687
1659515366.21726,7684
1659515366.257756,7683
1659515366.298252,7682
1659515366.337211,7679
1659515366.376169,7686
1659515366.415128,7694
1659515366.459212,7692
1659515366.503297,7685
1659515366.547381,7686
1659515366.588903,7681
1659515366.630424,7699
1659515366.669041,7705
1659515366.707658,7714
1659515366.746274,7720
1659515366.787796,7726
1659515366.829318,7725
1659515366.868276,7739
1659515366.907234,7743
1659515366.946193,7744
1659515366.985493,7745
1659515367.024793,7734
1659515367.064093,7704
1659515367.10664,7697
1659515367.149187,7674
1659515367.188145,7666
1659515367.227104,7670
1659515367.266062,7664
1659515367.307071,7667
1659515367.34808,7678
1659515367.38738,7691
1659515367.42668,7684
1659515367.465981,7692
1659515367.504597,7693
1659515367.543214,7704
1659515367.581831,7729
1659515367.623352,7727
1659515367.664874,7754
1659515367.703832,7766
1659515367.742791,7789
1659515367.781749,7800
1659515367.822245,7824
1659515367.862742,7844
1659515367.902042,7841
1659515367.941342,7837
1659515367.980642,7807
1659515368.022676,7796
1659515368.064711,7771
1659515368.108795,7760
1659515368.15288,7768
1659515368.196964,7770
1659515368.230284,7779
1659515368.263604,7783
1659515368.30803,7790
1659515368.352456,7785
1659515368.396883,7783
1659515368.433534,7787
1659515368.470186,7775
1659515368.506838,7782
1659515368.543489,7777
1659515368.586036,7781
1659515368.628583,7784
1659515368.6672,7784
1659515368.705816,7783
1659515368.744433,7785
1659515368.784929,7784
1659515368.825426,7792
1659515368.864042,7792
1659515368.902659,7788
1659515368.941276,7766
1659515368.98331,7766
1659515369.025344,7746
1659515369.063961,7738
1659515369.102577,7735
1659515369.141194,7734
1659515369.182716,7726
1659515369.224237,7731
1659515369.263537,7742
1659515369.302838,7731
1659515369.342138,7755
1659515369.386222,7751
1659515369.430307,7762
1659515369.474391,7762
1659515369.515913,7773
1659515369.557435,7782
1659515369.596735,7782
1659515369.636035,7799
1659515369.675335,7801
1659515369.71361,7802
1659515369.751885,7795
1659515369.79016,7771
1659515369.831681,7767
1659515369.873203,7764
1659515369.912162,7755
1659515369.95112,7747
1659515369.990078,7753
1659515370.0316,7760
1659515370.073121,7758
1659515370.11208,7760
1659515370.151038,7763
1659515370.189997,7766
1659515370.229297,7777
1659515370.268597,7784
1659515370.307897,7789
1659515370.349419,7791
1659515370.39094,7802
1659515370.430241,7803
1659515370.469541,7806
1659515370.508841,7811
1659515370.550875,7815
1659515370.592909,7796
1659515370.631526,7771
1659515370.670143,7762
1659515370.708759,7757
1659515370.749256,7749
1659515370.789752,7749
1659515370.829052,7740
1659515370.868352,7746
1659515370.907653,7745
1659515370.948661,7738
1659515370.98967,7750
1659515371.033755,7742
1659515371.077839,7748
1659515371.121924,7756
1659515371.160541,7759
1659515371.199157,7768
1659515371.237774,7790
1659515371.279808,7788
1659515371.321842,7786
1659515371.360801,7795
1659515371.399759,7794
1659515371.438718,7777
1659515371.480239,7746
1659515371.521761,7717
1659515371.560719,7699
1659515371.599678,7691
1659515371.638636,7668
1659515371.677595,7660
1659515371.716553,7665
1659515371.755512,7646
1659515371.797546,7636
1659515371.83958,7628
1659515371.878196,7622
1659515371.916813,7617
1659515371.95543,7607
1659515371.993705,7615
1659515372.03198,7625
1659515372.070255,7646
1659515372.110751,7655
1659515372.151248,7659
1659515372.190548,7672
1659515372.229848,7664
1659515372.269148,7657
1659515372.310669,7636
1659515372.352191,7588
1659515372.390466,7548
1659515372.428741,7533
1659515372.467016,7525
1659515372.509563,7507
1659515372.552109,7504
1659515372.596536,7509
1659515372.640962,7500
1659515372.685388,7488
1659515372.718195,7477
1659515372.751003,7472
1659515372.796112,7471
1659515372.841222,7470
1659515372.886332,7474
1659515372.919139,7477
1659515372.951946,7479
1659515372.996372,7464
1659515373.040799,7462
1659515373.085225,7433
1659515373.124184,7415
1659515373.163142,7380
1659515373.202101,7333
1659515373.244647,7309
1659515373.287194,7290
1659515373.325127,7301
1659515373.36306,7405
1659515373.400994,7625
1659515373.440636,7845
1659515373.480278,7950
1659515373.519919,7934
1659515373.561441,7877
1659515373.602962,7843
1659515373.644484,7815
1659515373.686006,7781
1659515373.727527,7767
1659515373.769048,7733
1659515373.803393,7701
1659515373.837739,7686
1659515373.882506,7679
1659515373.927274,7678
1659515373.972043,7668
1659515374.010659,7653
1659515374.049276,7633
1659515374.087893,7623
1659515374.128901,7610
1659515374.16991,7601
1659515374.208185,7603
1659515374.24646,7603
1659515374.284735,7593
1659515374.32301,7562
1659515374.361285,7564
1659515374.39956,7551
1659515374.442107,7554
1659515374.484654,7536
1659515374.522929,7537
1659515374.561204,7563
1659515374.599479,7587
1659515374.641,7602
1659515374.682522,7617
1659515374.72148,7615
1659515374.760439,7609
1659515374.799397,7600
1659515374.841431,7583
1659515374.883465,7573
1659515374.922082,7575
1659515374.960699,7589
1659515374.999316,7584
1659515375.040837,7588
1659515375.082359,7574
1659515375.120975,7578
1659515375.159592,7599
1659515375.198209,7595
1659515375.242293,7585
1659515375.286378,7576
1659515375.330462,7575
1659515375.363782,7557
1659515375.397102,7557
1659515375.44187,7543
1659515375.486638,7531
1659515375.531406,7529
1659515375.569681,7530
1659515375.607956,7532
1659515375.646231,7536
1659515375.688265,7541
1659515375.730299,7534
1659515375.769258,7542
1659515375.808216,7541
1659515375.847174,7542
1659515375.889209,7557
1659515375.931243,7569
1659515375.969859,7575
1659515376.008476,7581
1659515376.047093,7554
1659515376.086735,7553
1659515376.126377,7547
1659515376.166019,7543
1659515376.207028,7536
1659515376.248036,7534
1659515376.286995,7533
1659515376.325953,7529
1659515376.364912,7536
1659515376.406433,7535
1659515376.447955,7550
1659515376.486913,7559
1659515376.525872,7558
1659515376.56483,7561
1659515376.605326,7564
1659515376.645823,7556
1659515376.685465,7557
1659515376.725107,7568
1659515376.764749,7572
1659515376.806783,7568
1659515376.848817,7569
1659515376.887092,7562
1659515376.925367,7548
1659515376.963642,7518
1659515377.005163,7509
1659515377.046685,7519
1659515377.091794,7519
1659515377.136904,7517
1659515377.182014,7521
1659515377.220973,7519
1659515377.259931,7524
1659515377.29889,7530
1659515377.339898,7530
1659515377.380907,7539
1659515377.419866,7544
1659515377.458824,7554
1659515377.497783,7563
1659515377.535716,7563
1659515377.573649,7572
1659515377.611583,7566
1659515377.653616,7573
1659515377.695651,7558
1659515377.734609,7549
1659515377.773567,7550
1659515377.812526,7529
1659515377.850459,7526
1659515377.888392,7535
1659515377.926326,7531
1659515377.96836,7521
1659515378.010394,7525
1659515378.049352,7527
1659515378.088311,7519
1659515378.127269,7514
1659515378.168791,7501
1659515378.210312,7497
1659515378.248929,7519
1659515378.287546,7520
1659515378.326163,7525
1659515378.367684,7531
1659515378.409205,7527
1659515378.44748,7522
1659515378.485755,7525
1659515378.52403,7529
1659515378.566065,7551
1659515378.608099,7567
1659515378.652867,7566
1659515378.697635,7569
1659515378.742403,7558
1659515378.780678,7532
1659515378.818953,7507
1659515378.857228,7482
1659515378.897724,7473
1659515378.93822,7461
1659515378.97641,7466
1659515379.014599,7477
1659515379.052789,7497
1659515379.090978,7525
1659515379.131987,7531
1659515379.172996,7550
1659515379.212638,7544
1659515379.25228,7544
1659515379.291922,7552
1659515379.333956,7526
1659515379.37599,7516
1659515379.414949,7503
1659515379.453907,7511
1659515379.492866,7504
1659515379.533362,7509
1659515379.573858,7485
1659515379.6135,7453
1659515379.653142,7440
1659515379.692784,7433
1659515379.736869,7434
1659515379.780953,7427
1659515379.825038,7428
1659515379.857845,7434
1659515379.890652,7443
1659515379.935078,7436
1659515379.979505,7418
1659515380.023931,7414
1659515380.062206,7424
1659515380.100481,7431
1659515380.138756,7433
1659515380.18079,7433
1659515380.222824,7448
1659515380.262124,7463
1659515380.301425,7457
1659515380.340725,7460
1659515380.381734,7475
1659515380.422742,7500
1659515380.461701,7505
1659515380.500659,7498
1659515380.539618,7447
1659515380.578234,7411
1659515380.616851,7406
1659515380.655468,7415
1659515380.698015,7442
1659515380.740561,7469
1659515380.778836,7480
1659515380.817111,7473
1659515380.855386,7490
1659515380.896395,7512
1659515380.937404,7528
1659515380.976363,7541
1659515381.015321,7537
1659515381.05428,7518
1659515381.095801,7516
1659515381.137323,7508
1659515381.175256,7509
1659515381.213189,7503
1659515381.251122,7505
1659515381.293669,7514
1659515381.336216,7518
1659515381.374832,7497
1659515381.413449,7465
1659515381.452066,7449
1659515381.496492,7432
1659515381.540918,7418
1659515381.585345,7404
1659515381.627379,7395
1659515381.669413,7391
1659515381.708371,7377
1659515381.74733,7375
1659515381.786288,7370
1659515381.824563,7366
1659515381.862838,7367
1659515381.901113,7375
1659515381.943147,7388
1659515381.985182,7392
1659515382.023457,7397
1659515382.061732,7399
1659515382.100007,7401
1659515382.14204,7395
1659515382.184075,7371
1659515382.223375,7352
1659515382.262675,7352
1659515382.301975,7372
1659515382.340592,7374
1659515382.379209,7360
1659515382.417825,7357
1659515382.458834,7373
1659515382.499843,7404
1659515382.539827,7409
1659515382.579811,7402
1659515382.619794,7391
1659515382.661316,7389
1659515382.702837,7388
1659515382.741796,7396
1659515382.780754,7392
1659515382.819713,7386
1659515382.859696,7407
1659515382.89968,7398
1659515382.939664,7379
1659515382.979647,7368
1659515383.019631,7367
1659515383.060127,7361
1659515383.100624,7363
1659515383.145392,7367
1659515383.19016,7372
1659515383.234928,7382
1659515383.273545,7385
1659515383.312161,7397
1659515383.350778,7417
1659515383.391787,7406
1659515383.432796,7394
1659515383.472438,7396
1659515383.512079,7394
1659515383.551722,7407
1659515383.593756,7416
1659515383.63579,7425
1659515383.674065,7384
1659515383.71234,7351
1659515383.750615,7301
1659515383.789915,7286
1659515383.829215,7275
1659515383.868515,7276
1659515383.910549,7298
1659515383.952584,7309
1659515383.990859,7312
1659515384.029134,7304
1659515384.067408,7322
1659515384.105683,7315
1659515384.143958,7307
1659515384.182233,7314
1659515384.223242,7315
1659515384.264251,7320
1659515384.302526,7314
1659515384.340801,7331
1659515384.379076,7336
1659515384.42111,7342
1659515384.463144,7340
1659515384.501761,7322
1659515384.540378,7327
1659515384.578995,7332
1659515384.623421,7338
1659515384.667847,7350
1659515384.712273,7363
1659515384.754308,7385
1659515384.796342,7389
1659515384.835642,7398
1659515384.874942,7397
1659515384.914242,7411
1659515384.952859,7419
1659515384.991476,7442
1659515385.030092,7461
1659515385.072639,7472
1659515385.115186,7480
1659515385.153803,7493
1659515385.192419,7505
1659515385.231036,7529
1659515385.272557,7543
1659515385.314079,7555
1659515385.352354,7568
1659515385.390629,7556
1659515385.428904,7542
1659515385.468546,7522
1659515385.508188,7530
1659515385.54783,7523
1659515385.589351,7528
1659515385.630873,7513
1659515385.669489,7505
1659515385.708106,7503
1659515385.746723,7496
1659515385.788244,7500
1659515385.829766,7507
1659515385.869408,7526
1659515385.90905,7531
1659515385.948692,7556
1659515385.989701,7550
1659515386.03071,7557
1659515386.07001,7571
1659515386.10931,7582
1659515386.14861,7591
1659515386.190132,7606
1659515386.231653,7624
1659515386.275396,7615
1659515386.319139,7610
1659515386.362882,7608
1659515386.402182,7609
1659515386.441482,7605
1659515386.480782,7611
1659515386.522304,7607
1659515386.563825,7627
1659515386.6021,7622
1659515386.640375,7621
1659515386.67865,7636
1659515386.720172,7647
1659515386.761693,7656
1659515386.801335,7664
1659515386.840977,7684
1659515386.880619,7688
1659515386.918894,7703
1659515386.957169,7714
1659515386.995444,7723
1659515387.036453,7740
1659515387.077462,7747
1659515387.117104,7747
1659515387.156745,7734
1659515387.196388,7706
1659515387.234321,7692
1659515387.272254,7685
1659515387.310187,7673
1659515387.352734,7669
1659515387.395281,7676
1659515387.433897,7672
1659515387.472514,7675
1659515387.511131,7668
1659515387.551627,7658
1659515387.592123,7664
1659515387.636208,7644
1659515387.680292,7633
1659515387.724377,7621
1659515387.758722,7613
1659515387.793067,7609
1659515387.837152,7606
1659515387.881236,7607
1659515387.925321,7604
1659515387.963937,7597
1659515388.002554,7569
1659515388.041171,7552
1659515388.083718,7542
1659515388.126264,7526
1659515388.164881,7521
1659515388.203498,7513
1659515388.242114,7519
1659515388.283636,7514
1659515388.325157,7499
1659515388.364799,7510
1659515388.404441,7497
1659515388.444083,7502
1659515388.482358,7498
1659515388.520633,7497
1659515388.558908,7498
1659515388.60043,7498
1659515388.641951,7499
1659515388.680568,7506
1659515388.719185,7503
1659515388.757801,7483
1659515388.800348,7469
1659515388.842895,7443
1659515388.88117,7439
1659515388.919445,7432
1659515388.95772,7432
1659515388.99702,7422
1659515389.03632,7416
1659515389.07562,7404
1659515389.117142,7393
1659515389.158663,7384
1659515389.200697,7376
1659515389.242732,7369
1659515389.28169,7374
1659515389.320648,7391
1659515389.359607,7404
1659515389.401385,7426
1659515389.443162,7421
1659515389.48494,7424
1659515389.526718,7400
1659515389.565335,7373
1659515389.603952,7348
1659515389.642568,7333
1659515389.681185,7313
1659515389.719802,7311
1659515389.758419,7328
1659515389.799427,7328
1659515389.840436,7332
1659515389.884179,7346
1659515389.927922,7341
1659515389.971665,7348
1659515390.004984,7347
1659515390.038304,7354
1659515390.082731,7348
1659515390.127157,7360
1659515390.171583,7365
1659515390.204903,7363
1659515390.238223,7369
1659515390.282649,7347
1659515390.327075,7342
1659515390.371501,7315
1659515390.41046,7307
1659515390.449419,7289
1659515390.488377,7289
1659515390.529898,7292
1659515390.57142,7286
1659515390.610037,7292
1659515390.648653,7289
1659515390.68727,7291
1659515390.726228,7295
1659515390.765187,7296
1659515390.804145,7311
1659515390.844642,7311
1659515390.885138,7332
1659515390.924438,7342
1659515390.963738,7364
1659515391.003039,7369
1659515391.04456,7377
1659515391.086082,7375
1659515391.124357,7352
1659515391.162632,7334
1659515391.200907,7332
1659515391.240207,7321
1659515391.279507,7330
1659515391.318807,7314
1659515391.361354,7314
1659515391.403901,7318
1659515391.44491,7313
1659515391.485918,7313
1659515391.524535,7319
1659515391.563152,7343
1659515391.601768,7340
1659515391.646878,7362
1659515391.691988,7348
1659515391.737098,7354
1659515391.770418,7360
1659515391.803737,7367
1659515391.847822,7371
1659515391.891906,7373
1659515391.935991,7363
1659515391.969311,7357
1659515392.00263,7330
1659515392.046715,7320
1659515392.0908,7312
1659515392.134884,7299
1659515392.173159,7292
1659515392.211434,7294
1659515392.249709,7315
1659515392.292768,7306
1659515392.335828,7302
1659515392.374444,7310
1659515392.413061,7314
1659515392.451678,7324
1659515392.492687,7324
1659515392.533696,7333
1659515392.573338,7333
1659515392.61298,7347
1659515392.652622,7342
1659515392.691238,7349
1659515392.729855,7359
1659515392.768472,7367
1659515392.809993,7361
1659515392.851515,7335
1659515392.890473,7319
1659515392.929432,7317
1659515392.96839,7313
1659515393.009399,7306
1659515393.050408,7292
1659515393.088683,7308
1659515393.126958,7303
1659515393.165233,7302
1659515393.207267,7309
1659515393.249301,7304
1659515393.287576,7309
1659515393.325851,7318
1659515393.364126,7331
1659515393.408211,7336
1659515393.452295,7344
1659515393.49638,7353
1659515393.529699,7361
1659515393.563019,7378
1659515393.607787,7379
1659515393.652555,7391
1659515393.697323,7395
1659515393.738845,7399
1659515393.780366,7377
1659515393.819666,7351
1659515393.858967,7344
1659515393.898267,7330
1659515393.936884,7323
1659515393.9755,7323
1659515394.014117,7313
1659515394.054613,7325
1659515394.09511,7322
1659515394.134068,7326
1659515394.173027,7324
1659515394.211985,7321
1659515394.254532,7330
1659515394.297078,7338
1659515394.335353,7343
1659515394.373628,7345
1659515394.411903,7357
1659515394.45052,7360
1659515394.489137,7367
1659515394.527754,7365
1659515394.569788,7370
1659515394.611822,7386
1659515394.651122,7388
1659515394.690422,7388
1659515394.729722,7365
1659515394.77449,7325
1659515394.819258,7287
1659515394.864027,7274
1659515394.902985,7257
1659515394.941943,7240
1659515394.980902,7238
1659515395.022423,7237
1659515395.063945,7225
1659515395.102561,7235
1659515395.141178,7236
1659515395.179795,7236
1659515395.219095,7251
1659515395.258395,7250
1659515395.297696,7258
1659515395.339217,7263
1659515395.380738,7262
1659515395.419355,7248
1659515395.457972,7247
1659515395.496589,7239
1659515395.53811,7229
1659515395.579632,7246
1659515395.61859,7239
1659515395.657549,7233
1659515395.696507,7223
1659515395.734782,7222
1659515395.773057,7215
1659515395.811332,7225
1659515395.854391,7225
1659515395.897451,7219
1659515395.936067,7229
1659515395.974684,7213
1659515396.013301,7203
1659515396.05431,7196
1659515396.095319,7180
1659515396.139403,7157
1659515396.183488,7148
1659515396.227572,7150
1659515396.261917,7154
1659515396.296262,7168
1659515396.340005,7187
1659515396.383748,7196
1659515396.427491,7227
1659515396.460298,7230
1659515396.493105,7234
1659515396.537531,7245
1659515396.581958,7227
1659515396.626384,7204
1659515396.664659,7186
1659515396.702934,7168
1659515396.741209,7155
1659515396.783756,7151
1659515396.826302,7154
1659515396.865602,7143
1659515396.904903,7158
1659515396.944203,7151
1659515396.982478,7146
1659515397.020753,7158
1659515397.059028,7148
1659515397.101575,7162
1659515397.144121,7162
1659515397.183421,7171
1659515397.222722,7178
1659515397.262022,7186
1659515397.302518,7194
1659515397.343014,7192
1659515397.381973,7199
1659515397.420931,7200
1659515397.45989,7208
1659515397.500899,7209
1659515397.541908,7191
1659515397.580866,7166
1659515397.619825,7154
1659515397.658783,7141
1659515397.700305,7128
1659515397.741826,7121
1659515397.780784,7122
1659515397.819743,7118
1659515397.858701,7122
1659515397.900223,7116
1659515397.941744,7132
1659515397.981045,7122
1659515398.020345,7129
1659515398.059645,7133
1659515398.104755,7142
1659515398.149865,7145
1659515398.194974,7154
1659515398.227782,7166
1659515398.260589,7167
1659515398.305357,7174
1659515398.350125,7169
1659515398.394893,7146
1659515398.436414,7135
1659515398.477936,7102
1659515398.516894,7090
1659515398.555853,7081
1659515398.594811,7090
1659515398.633086,7091
1659515398.671361,7098
1659515398.709636,7094
1659515398.751158,7089
1659515398.792679,7104
1659515398.830954,7104
1659515398.869229,7124
1659515398.907504,7146
1659515398.946462,7154
1659515398.985421,7169
1659515399.024379,7187
1659515399.066413,7204
1659515399.108448,7211
1659515399.147064,7219
1659515399.185681,7233
1659515399.224298,7224
1659515399.265307,7207
1659515399.306315,7164
1659515399.345274,7141
1659515399.384233,7133
1659515399.423191,7119
1659515399.465225,7112
1659515399.507259,7107
1659515399.545876,7102
1659515399.584493,7098
1659515399.623109,7107
1659515399.664118,7088
1659515399.705127,7083
1659515399.749553,7087
1659515399.79398,7107
1659515399.838406,7126
1659515399.876681,7122
1659515399.914956,7125
1659515399.953231,7117
1659515399.992189,7122
1659515400.031148,7117
1659515400.070106,7101
1659515400.109748,7083
1659515400.14939,7061
1659515400.189032,7068
1659515400.230041,7049
1659515400.27105,7045
1659515400.309667,7065
1659515400.348283,7066
1659515400.3869,7075
1659515400.429447,7074
1659515400.471993,7089
1659515400.510952,7087
1659515400.54991,7090
1659515400.588869,7093
1659515400.629878,7085
1659515400.670887,7088
1659515400.710187,7085
1659515400.749487,7091
1659515400.788787,7103
1659515400.829283,7090
1659515400.86978,7068
1659515400.908738,7054
1659515400.947697,7053
1659515400.986655,7044
1659515401.031765,7036
1659515401.076875,7047
1659515401.121984,7040
1659515401.154279,7050
1659515401.186574,7041
1659515401.231,7047
1659515401.275426,7050
1659515401.319853,7059
1659515401.361887,7063
1659515401.403921,7065
1659515401.443221,7085
1659515401.482521,7091
1659515401.521821,7106
1659515401.560096,7110
1659515401.598371,7108
1659515401.636646,7118
1659515401.679193,7096
1659515401.72174,7069
1659515401.760015,7060
1659515401.79829,7056
1659515401.836565,7061
1659515401.875181,7061
1659515401.913798,7077
1659515401.952415,7078
1659515401.994449,7074
1659515402.036483,7077
1659515402.074758,7079
1659515402.113033,7096
1659515402.151308,7088
1659515402.191804,7101
1659515402.232301,7109
1659515402.271601,7110
1659515402.310901,7107
1659515402.350201,7111
1659515402.392235,7113
1659515402.434269,7123
1659515402.472886,7152
1659515402.511503,7151
1659515402.550119,7153
1659515402.591641,7162
1659515402.633162,7153
1659515402.672121,7136
1659515402.711079,7101
1659515402.750038,7072
1659515402.793781,7058
1659515402.837523,7043
1659515402.881266,7038
1659515402.923813,7027
1659515402.96636,7030
1659515403.004977,7027
1659515403.043593,7032
1659515403.08221,7025
1659515403.120485,6998
1659515403.15876,6982
1659515403.197035,6972
1659515403.238044,6988
1659515403.279053,7006
1659515403.318011,7005
1659515403.35697,7002
1659515403.395928,7004
1659515403.434886,7019
1659515403.473845,7020
1659515403.512803,7030
1659515403.554837,7030
1659515403.596872,7005
1659515403.63583,6977
1659515403.674788,6970
1659515403.713747,6955
1659515403.755781,6937
1659515403.797815,6944
1659515403.837116,6944
1659515403.876416,6949
1659515403.915716,6954
1659515403.957237,6964
1659515403.998759,6976
1659515404.037376,6971
1659515404.075992,6970
1659515404.114609,6978
1659515404.155618,6979
1659515404.196627,6996
1659515404.236269,7009
1659515404.275911,7030
1659515404.315553,7036
1659515404.356561,7047
1659515404.39757,7046
1659515404.441313,7052
1659515404.485056,7072
1659515404.528799,7074
1659515404.568099,7076
1659515404.607399,7049
1659515404.646699,7034
1659515404.687708,7004
1659515404.728717,6997
1659515404.768018,6994
1659515404.807318,6978
1659515404.846618,6975
1659515404.885576,6959
1659515404.924535,6954
1659515404.963493,6963
1659515405.005015,6970
1659515405.046536,6978
1659515405.084811,6962
1659515405.123086,6972
1659515405.161361,6975
1659515405.20155,6974
1659515405.241739,6986
1659515405.281927,6976
1659515405.322116,6993
1659515405.362305,6996
1659515405.400238,7010
1659515405.438171,7034
1659515405.476104,7029
1659515405.520189,7024
1659515405.564274,6997
1659515405.608358,6978
1659515405.647658,6984
1659515405.686959,7009
1659515405.726259,7010
1659515405.767268,7016
1659515405.808277,7017
1659515405.847235,7009
1659515405.886194,7014
1659515405.925152,7015
1659515405.967699,7016
1659515406.010245,7011
1659515406.04852,7015
1659515406.086795,7017
1659515406.12507,7019
1659515406.164029,7033
1659515406.202987,7050
1659515406.241946,7065
1659515406.283467,7077
1659515406.324989,7080
1659515406.363605,7096
1659515406.402222,7093
1659515406.440839,7069
1659515406.482873,7056
1659515406.524907,7054
1659515406.563524,7050
1659515406.60214,7046
1659515406.640757,7048
1659515406.681766,7056
1659515406.722775,7056
1659515406.762417,7059
1659515406.802059,7063
1659515406.841701,7068
1659515406.883735,7084
1659515406.925769,7092
1659515406.964386,7102
1659515407.003002,7114
1659515407.041619,7121
1659515407.086387,7138
1659515407.131155,7153
1659515407.175923,7153
1659515407.210268,7168
1659515407.244613,7176
1659515407.288698,7171
1659515407.332783,7176
1659515407.376867,7153
1659515407.417363,7133
1659515407.45786,7116
1659515407.49716,7119
1659515407.53646,7110
1659515407.57576,7113
1659515407.614035,7100
1659515407.65231,7099
1659515407.690585,7100
1659515407.733132,7096
1659515407.775679,7094
1659515407.814295,7090
1659515407.852912,7096
1659515407.891529,7101
1659515407.93305,7107
1659515407.974572,7104
1659515408.013188,7112
1659515408.051805,7124
1659515408.090422,7124
1659515408.129722,7132
1659515408.169022,7125
1659515408.208323,7139
1659515408.249844,7141
1659515408.291365,7145
1659515408.330324,7127
1659515408.369282,7099
1659515408.408241,7084
1659515408.44925,7072
1659515408.490259,7059
1659515408.528875,7054
1659515408.567492,7045
1659515408.606109,7051
1659515408.64763,7046
1659515408.689152,7048
1659515408.727768,7045
1659515408.766385,7055
1659515408.805002,7063
1659515408.849087,7064
1659515408.893171,7072
1659515408.937256,7082
1659515408.978777,7088
1659515409.020299,7096
1659515409.059257,7109
1659515409.098216,7129
1659515409.137174,7145
1659515409.179208,7154
1659515409.221242,7157
1659515409.259859,7153
1659515409.298476,7134
1659515409.337092,7126
1659515409.376051,7126
1659515409.415009,7117
1659515409.453968,7119
1659515409.494977,7125
1659515409.535985,7124
1659515409.574944,7125
1659515409.613903,7128
1659515409.652861,7129
1659515409.694382,7134
1659515409.735904,7149
1659515409.775204,7141
1659515409.814504,7148
1659515409.853805,7155
1659515409.89208,7156
1659515409.930354,7173
1659515409.968629,7168
1659515410.010151,7172
1659515410.051672,7176
1659515410.091656,7179
1659515410.13164,7185
1659515410.171623,7190
1659515410.213145,7184
1659515410.254667,7167
1659515410.292942,7155
1659515410.331217,7145
1659515410.369491,7130
1659515410.412961,7130
1659515410.45643,7123
1659515410.4999,7127
1659515410.543369,7124
1659515410.586838,7122
1659515410.624003,7126
1659515410.661167,7124
1659515410.698332,7136
1659515410.735496,7130
1659515410.778555,7153
1659515410.821615,7152
1659515410.859548,7155
1659515410.897481,7166
1659515410.935414,7170
1659515410.974031,7178
1659515411.012648,7178
1659515411.051264,7193
1659515411.092786,7193
1659515411.134307,7184
1659515411.175829,7165
1659515411.21735,7152
1659515411.255967,7157
1659515411.294584,7143
1659515411.3332,7145
1659515411.375235,7141
1659515411.417269,7138
1659515411.455885,7137
1659515411.494502,7156
1659515411.533119,7161
1659515411.577204,7164
1659515411.621288,7168
1659515411.665373,7175
1659515411.699718,7169
1659515411.734063,7189
1659515411.778147,7190
1659515411.822232,7199
1659515411.866316,7215
1659515411.904249,7214
1659515411.942183,7224
1659515411.980116,7223
1659515412.021637,7240
1659515412.063159,7238
1659515412.101776,7222
1659515412.140392,7200
1659515412.179009,7189
1659515412.220531,7184
1659515412.262052,7170
1659515412.301352,7180
1659515412.340652,7168
1659515412.379953,7165
1659515412.41857,7152
1659515412.457186,7152
1659515412.495803,7153
1659515412.536812,7153
1659515412.577821,7158
1659515412.617463,7157
1659515412.657104,7167
1659515412.696747,7161
1659515412.73878,7159
1659515412.780815,7166
1659515412.81909,7171
1659515412.857365,7174
1659515412.89564,7173
1659515412.937161,7185
1659515412.978683,7175
1659515413.017983,7157
1659515413.057283,7131
1659515413.096583,7115
1659515413.138105,7121
1659515413.179626,7110
1659515413.217901,7101
1659515413.256176,7103
1659515413.294451,7116
1659515413.339561,7133
1659515413.384671,7144
1659515413.42978,7154
1659515413.468397,7149
1659515413.507014,7152
1659515413.545631,7152
1659515413.587665,7160
1659515413.629699,7171
1659515413.668999,7171
1659515413.708299,7183
1659515413.7476,7195
1659515413.788609,7211
1659515413.829617,7217
1659515413.868234,7226
1659515413.906851,7222
1659515413.945467,7191
1659515413.984426,7175
1659515414.023384,7144
1659515414.062343,7126
1659515414.104377,7108
1659515414.146411,7092
1659515414.185028,7091
1659515414.223644,7088
1659515414.262261,7100
1659515414.30327,7132
1659515414.344279,7200
1659515414.383238,7254
1659515414.422196,7275
1659515414.461154,7298
1659515414.502676,7311
1659515414.544197,7318
1659515414.583156,7298
1659515414.622114,7288
1659515414.661073,7301
1659515414.703107,7304
1659515414.745141,7318
1659515414.783416,7316
1659515414.821691,7335
1659515414.859966,7337
1659515414.904051,7341
1659515414.948135,7306
1659515414.99222,7274
1659515415.034254,7275
1659515415.076288,7255
1659515415.114905,7237
1659515415.153521,7223
1659515415.192138,7242
1659515415.233147,7239
1659515415.274156,7225
1659515415.313114,7225
1659515415.352073,7222
1659515415.391031,7220
1659515415.429306,7205
1659515415.467581,7191
1659515415.505856,7191
1659515415.54789,7190
1659515415.589924,7187
1659515415.629566,7198
1659515415.669208,7185
1659515415.70885,7172
1659515415.748629,7169
1659515415.788407,7180
1659515415.828186,7195
1659515415.867965,7218
1659515415.907743,7193
1659515415.950803,7162
1659515415.993862,7141
1659515416.032479,7129
1659515416.071095,7117
1659515416.109712,7113
1659515416.148329,7118
1659515416.186946,7105
1659515416.225562,7110
1659515416.267084,7075
1659515416.308605,7073
1659515416.350639,7079
1659515416.392673,7086
1659515416.43129,7118
1659515416.469907,7139
1659515416.508524,7204
1659515416.55295,7273
1659515416.597376,7350
1659515416.641803,7402
1659515416.67461,7431
1659515416.707417,7454
1659515416.751501,7441
1659515416.795586,7422
1659515416.839671,7383
1659515416.874016,7349
1659515416.90836,7332
1659515416.953129,7338
1659515416.997897,7348
1659515417.042665,7358
1659515417.081281,7354
1659515417.119898,7359
1659515417.158515,7353
1659515417.200036,7348
1659515417.241558,7364
1659515417.280858,7377
1659515417.320158,7391
1659515417.359458,7398
1659515417.397733,7393
1659515417.436008,7388
1659515417.474283,7378
1659515417.515805,7373
1659515417.557326,7389
1659515417.595601,7390
1659515417.633876,7374
1659515417.672151,7347
1659515417.710426,7327
1659515417.748701,7333
1659515417.786976,7316
1659515417.82901,7303
1659515417.871044,7307
1659515417.915812,7305
1659515417.960581,7301
1659515418.005348,7300
1659515418.038156,7305
1659515418.070963,7307
1659515418.115731,7328
1659515418.160499,7326
1659515418.205267,7329
1659515418.243884,7333
1659515418.2825,7318
1659515418.321117,7311
1659515418.362638,7308
1659515418.40416,7330
1659515418.443119,7354
1659515418.482077,7372
1659515418.521035,7352
1659515418.559652,7320
1659515418.598269,7306
1659515418.636886,7281
1659515418.677895,7272
1659515418.718903,7276
1659515418.757862,7280
1659515418.79682,7292
1659515418.835779,7298
1659515418.877813,7297
1659515418.919847,7305
1659515418.959147,7333
1659515418.998447,7360
1659515419.037748,7395
1659515419.076364,7434
1659515419.114981,7449
1659515419.153598,7444
1659515419.195632,7449
1659515419.237666,7449
1659515419.276966,7440
1659515419.316266,7415
1659515419.355567,7376
1659515419.397088,7348
1659515419.43861,7329
1659515419.479619,7325
1659515419.520627,7342
1659515419.559927,7374
1659515419.599228,7407
1659515419.638528,7424
1659515419.682271,7412
1659515419.726014,7382
1659515419.769757,7368
1659515419.804101,7398
1659515419.838446,7410
1659515419.882531,7399
1659515419.926615,7413
1659515419.9707,7433
1659515420.003507,7450
1659515420.036314,7450
1659515420.081082,7455
1659515420.12585,7439
1659515420.170619,7398
1659515420.21026,7360
1659515420.249902,7341
1659515420.289544,7338
1659515420.330553,7331
1659515420.371562,7339
1659515420.410521,7316
1659515420.449479,7295
1659515420.488437,7304
1659515420.527054,7300
1659515420.565671,7307
1659515420.604288,7315
1659515420.645809,7338
1659515420.68733,7348
1659515420.725947,7368
1659515420.764564,7393
1659515420.803181,7399
1659515420.84419,7435
1659515420.885199,7451
1659515420.926378,7449
1659515420.967558,7446
1659515421.008738,7420
1659515421.049918,7399
1659515421.091097,7389
1659515421.132277,7386
1659515421.171577,7387
1659515421.210877,7402
1659515421.250178,7407
1659515421.291699,7397
1659515421.333221,7414
1659515421.372179,7408
1659515421.411138,7422
1659515421.450096,7423
1659515421.49213,7421
1659515421.534164,7424
1659515421.572439,7432
1659515421.610714,7439
1659515421.648989,7452
1659515421.687948,7468
1659515421.726906,7479
1659515421.765865,7493
1659515421.807899,7507
1659515421.849933,7519
1659515421.888208,7516
1659515421.926483,7495
1659515421.964758,7464
1659515422.003716,7439
1659515422.042675,7439
1659515422.081633,7427
1659515422.123155,7427
1659515422.164676,7432
1659515422.203635,7428
1659515422.242593,7438
1659515422.281552,7429
1659515422.323073,7417
1659515422.364594,7424
1659515422.409363,7426
1659515422.454131,7432
1659515422.498899,7433
1659515422.537515,7447
1659515422.576132,7458
1659515422.614749,7462
1659515422.656783,7467
1659515422.698817,7464
1659515422.738459,7478
1659515422.778101,7486
1659515422.817743,7483
1659515422.858239,7454
1659515422.898736,7426
1659515422.937352,7403
1659515422.975969,7394
1659515423.014586,7371
1659515423.053544,7361
1659515423.092503,7387
1659515423.131461,7392
1659515423.172982,7393
1659515423.214504,7395
1659515423.253121,7413
1659515423.291738,7431
1659515423.330354,7433
1659515423.369313,7435
1659515423.408271,7436
1659515423.44723,7443
1659515423.488751,7461
1659515423.530272,7473
1659515423.568889,7505
1659515423.607506,7507
1659515423.646123,7515
1659515423.688157,7528
1659515423.730191,7527
1659515423.769491,7500
1659515423.808791,7495
1659515423.848092,7503
1659515423.888588,7483
1659515423.929084,7497
1659515423.973169,7494
1659515424.017253,7501
1659515424.061338,7494
1659515424.099613,7482
1659515424.137888,7479
1659515424.176163,7483
1659515424.217684,7484
1659515424.259206,7496
1659515424.297822,7511
1659515424.336439,7532
1659515424.375056,7536
1659515424.416065,7558
1659515424.457074,7542
1659515424.494494,7541
1659515424.531915,7532
1659515424.569335,7532
1659515424.606756,7524
1659515424.64879,7517
1659515424.690825,7496
1659515424.730466,7459
1659515424.770108,7441
1659515424.80975,7416
1659515424.850759,7404
1659515424.891768,7381
1659515424.931068,7361
1659515424.970368,7363
1659515425.009669,7347
1659515425.054095,7338
1659515425.098521,7334
1659515425.142947,7327
1659515425.175755,7319
1659515425.208562,7301
1659515425.252988,7297
1659515425.297414,7294
1659515425.341841,7279
1659515425.37516,7266
1659515425.40848,7273
1659515425.452565,7285
1659515425.496649,7287
1659515425.540734,7286
1659515425.580034,7273
1659515425.619334,7250
1659515425.658634,7241
1659515425.701181,7244
1659515425.743728,7246
1659515425.782003,7233
1659515425.820278,7236
1659515425.858553,7226
1659515425.900074,7228
1659515425.941596,7243
1659515425.981238,7242
1659515426.02088,7241
1659515426.060522,7239
1659515426.098797,7231
1659515426.137072,7223
1659515426.175347,7232
1659515426.21574,7238
1659515426.256134,7241
1659515426.296528,7251
1659515426.336922,7247
1659515426.377316,7253
1659515426.417812,7255
1659515426.458308,7226
1659515426.496583,7206
1659515426.534858,7196
1659515426.573133,7184
1659515426.61568,7166
1659515426.658226,7169
1659515426.696843,7172
1659515426.73546,7166
1659515426.774076,7174
1659515426.815598,7160
1659515426.85712,7152
1659515426.901888,7160
1659515426.946656,7159
1659515426.991424,7151
1659515427.024743,7151
1659515427.058063,7159
1659515427.102148,7160
1659515427.146232,7170
1659515427.190317,7177
1659515427.229275,7181
1659515427.268234,7184
1659515427.307192,7173
1659515427.345467,7151
1659515427.383742,7121
1659515427.422017,7115
1659515427.463026,7102
1659515427.504035,7102
1659515427.542993,7104
1659515427.581952,7090
1659515427.62091,7083
1659515427.662944,7081
1659515427.704978,7085
1659515427.743253,7077
1659515427.781528,7075
1659515427.819803,7089
1659515427.859104,7085
1659515427.898404,7089
1659515427.937704,7091
1659515427.979226,7103
1659515428.020747,7106
1659515428.060047,7121
1659515428.099347,7118
1659515428.138648,7110
1659515428.180169,7079
1659515428.221691,7064
1659515428.260991,7048
1659515428.300291,7027
1659515428.339591,7020
1659515428.3806,7020
1659515428.421609,7025
1659515428.465694,7017
1659515428.509778,7029
1659515428.553863,7038
1659515428.587695,7045
1659515428.621527,7055
1659515428.665954,7077
1659515428.71038,7073
1659515428.754806,7075
1659515428.793423,7075
1659515428.83204,7077
1659515428.870656,7083
1659515428.912691,7099
1659515428.954725,7101
1659515428.992402,7068
1659515429.030079,7041
1659515429.067755,7016
1659515429.105433,7004
1659515429.147467,6997
1659515429.189501,6982
1659515429.229143,6988
1659515429.268785,6988
1659515429.308427,6999
1659515429.352169,6993
1659515429.395912,7002
1659515429.439655,7007
1659515429.47195,7005
1659515429.504244,7018
1659515429.54867,7026
1659515429.593097,7041
1659515429.637523,7047
1659515429.67614,7045
1659515429.714756,7036
1659515429.753373,7043
1659515429.795407,7043
1659515429.837441,7018
1659515429.876058,7003
1659515429.914675,6977
1659515429.953291,6975
1659515429.9943,6958
1659515430.035309,6948
1659515430.073584,6957
1659515430.111859,6950
1659515430.150134,6954
1659515430.190118,6953
1659515430.230102,6957
1659515430.270085,6957
1659515430.311094,6960
1659515430.352103,6967
1659515430.39072,6967
1659515430.429336,6980
1659515430.467953,6979
1659515430.506912,6981
1659515430.54587,6995
1659515430.584829,6998
1659515430.626863,7007
1659515430.668897,7006
1659515430.71264,7013
1659515430.756382,6988
1659515430.800125,6972
1659515430.833445,6961
1659515430.866765,6957
1659515430.910849,6954
1659515430.954934,6955
1659515430.999018,6954
1659515431.036952,6970
1659515431.074885,6964
1659515431.112818,6961
1659515431.155877,6952
1659515431.198937,6971
1659515431.236101,6979
1659515431.273265,7001
1659515431.31043,6993
1659515431.347594,6996
1659515431.390141,7009
1659515431.432688,7011
1659515431.474722,7022
1659515431.516756,7026
1659515431.55879,7032
1659515431.600824,7033
1659515431.639441,7017
1659515431.678057,7005
1659515431.716674,6995
1659515431.755633,6987
1659515431.794591,6981
1659515431.833549,6984
1659515431.875071,6978
1659515431.916593,6974
1659515431.954868,6969
1659515431.993142,6979
1659515432.031417,6978
1659515432.070376,6980
1659515432.109334,6993
1659515432.148293,6993
1659515432.190327,7016
1659515432.232361,7004
1659515432.273883,7005
1659515432.315404,7023
1659515432.354021,7026
1659515432.392637,7035
1659515432.431254,7040
1659515432.476022,7052
1659515432.52079,7066
1659515432.565558,7066
1659515432.598878,7025
1659515432.632198,7005
1659515432.676624,7001
1659515432.721051,6987
1659515432.765477,6977
1659515432.797771,6978
1659515432.830066,6981
1659515432.87415,6978
1659515432.918235,6984
1659515432.962319,6985
1659515433.000936,6985
1659515433.039553,7002
1659515433.07817,6997
1659515433.120716,7003
1659515433.163263,7011
1659515433.201538,7010
1659515433.239813,7016
1659515433.278088,7025
1659515433.317046,7024
1659515433.356005,7031
1659515433.394963,7040
1659515433.435972,7041
1659515433.476981,7043
1659515433.516623,7043
1659515433.556265,7012
1659515433.595907,6996
1659515433.636184,6989
1659515433.67646,6988
1659515433.716737,6981
1659515433.757013,6977
1659515433.79729,6982
1659515433.837567,6973
1659515433.877843,6979
1659515433.919194,6979
1659515433.960544,6977
1659515434.001895,6990
1659515434.043246,7000
1659515434.084596,7012
1659515434.125947,7016
1659515434.164906,7017
1659515434.203864,7010
1659515434.242822,7020
1659515434.280243,7029
1659515434.317664,7041
1659515434.355084,7067
1659515434.392505,7071
1659515434.434026,7063
1659515434.475548,7035
1659515434.517069,7019
1659515434.558591,7021
1659515434.597208,7007
1659515434.635824,7000
1659515434.674441,6997
1659515434.7175,7004
1659515434.76056,7007
1659515434.799518,7016
1659515434.838477,7017
1659515434.877435,7025
1659515434.921861,7037
1659515434.966288,7041
1659515435.010714,7030
1659515435.044034,7025
1659515435.077353,7025
1659515435.121438,7026
1659515435.165523,7024
1659515435.209607,7050
1659515435.248224,7078
1659515435.286841,7085
1659515435.325457,7084
1659515435.367491,7041
1659515435.409526,6999
1659515435.447801,6951
1659515435.486075,6944
1659515435.52435,6949
1659515435.565359,6933
1659515435.606368,6925
1659515435.64601,6918
1659515435.685652,6924
1659515435.725294,6908
1659515435.763911,6928
1659515435.802527,6910
1659515435.841144,6899
1659515435.882153,6898
1659515435.923162,6966
1659515435.962462,7342
1659515436.001762,7914
1659515438.132516,7857
1659515438.176601,7801
1659515438.220686,7755
1659515438.254005,7708
1659515438.287325,7676
1659515438.331751,7642
1659515438.376178,7620
1659515438.420604,7596
1659515438.459221,7561
1659515438.497838,7550
1659515438.536454,7530
1659515438.578488,7525
1659515438.620522,7501
1659515438.659481,7491
1659515438.698439,7486
1659515438.737398,7488
1659515438.775673,7483
1659515438.813948,7474
1659515438.852223,7471
1659515438.893744,7462
1659515438.935266,7450
1659515438.974908,7443
1659515439.014549,7429
1659515439.054192,7426
1659515439.0952,7386
1659515439.136209,7344
1659515439.174826,7325
1659515439.213443,7308
1659515439.252059,7289
1659515439.29136,7277
1659515439.33066,7280
1659515439.36996,7271
1659515439.411482,7263
1659515439.453003,7266
1659515439.49162,7257
1659515439.530236,7266
1659515439.568853,7257
1659515439.610375,7265
1659515439.651896,7271
1659515439.695639,7271
1659515439.739382,7274
1659515439.783125,7282
1659515439.815932,7292
1659515439.848739,7297
1659515439.893507,7304
1659515439.938275,7306
1659515439.983043,7304
1659515440.01585,7294
1659515440.048657,7266
1659515440.092742,7244
1659515440.136827,7229
1659515440.180911,7224
1659515440.220553,7213
1659515440.260195,7225
1659515440.299837,7216
1659515440.341871,7211
1659515440.383905,7219
1659515440.42218,7220
1659515440.460455,7244
1659515440.49873,7228
1659515440.540764,7218
1659515440.582798,7211
1659515440.621415,7230
1659515440.660032,7241
1659515440.698648,7251
1659515440.737265,7285
1659515440.775882,7324
1659515440.814498,7375
1659515440.853457,7436
1659515440.892416,7487
1659515440.931374,7534
1659515440.973408,7553
1659515441.015442,7546
1659515441.053717,7539
1659515441.091992,7545
1659515441.130267,7524
1659515441.172301,7527
1659515441.214335,7523
1659515441.259103,7534
1659515441.303871,7544
1659515441.348639,7537
1659515441.381959,7543
1659515441.415279,7551
1659515441.460047,7563
1659515441.504815,7564
1659515441.549583,7571
1659515441.58239,7576
1659515441.615197,7592
1659515441.65894,7605
1659515441.702683,7608
1659515441.746426,7608
1659515441.785384,7614
1659515441.824343,7605
1659515441.863301,7596
1659515441.90226,7572
1659515441.941218,7549
1659515441.980176,7532
1659515442.021185,7528
1659515442.062194,7525
1659515442.103203,7517
1659515442.144212,7524
1659515442.181889,7500
1659515442.219566,7486
1659515442.257243,7486
1659515442.29492,7490
1659515442.336441,7502
1659515442.377963,7515
1659515442.416921,7529
1659515442.45588,7544
1659515442.494838,7572
1659515442.53636,7559
1659515442.577881,7554
1659515442.622308,7566
1659515442.666734,7574
1659515442.71116,7576
1659515442.74448,7571
1659515442.7778,7546
1659515442.822226,7517
1659515442.866652,7501
1659515442.911078,7491
1659515442.949353,7473
1659515442.987628,7485
1659515443.025903,7469
1659515443.066912,7480
1659515443.107921,7466
1659515443.146538,7457
1659515443.185155,7460
1659515443.223771,7470
1659515443.265805,7473
1659515443.30784,7475
1659515443.346456,7489
1659515443.385073,7493
1659515443.42369,7508
1659515443.463332,7509
1659515443.502974,7516
1659515443.542616,7529
1659515443.584137,7537
1659515443.625659,7540
1659515443.664275,7548
1659515443.702892,7532
1659515443.741509,7498
1659515443.784055,7469
1659515443.826602,7462
1659515443.865561,7462
1659515443.904519,7456
1659515443.943478,7459
1659515443.981411,7461
1659515444.019344,7471
1659515444.057277,7472
1659515444.099311,7469
1659515444.141346,7467
1659515444.183892,7480
1659515444.226439,7493
1659515444.264372,7512
1659515444.302305,7524
1659515444.340239,7531
1659515444.384665,7540
1659515444.429091,7544
1659515444.473518,7538
1659515444.50735,7566
1659515444.541182,7561
1659515444.585267,7535
1659515444.629351,7509
1659515444.673436,7488
1659515444.707268,7479
1659515444.741101,7470
1659515444.785869,7461
1659515444.830637,7473
1659515444.875405,7486
1659515444.91368,7476
1659515444.951955,7479
1659515444.99023,7483
1659515445.031239,7494
1659515445.072248,7494
1659515445.111548,7509
1659515445.150848,7519
1659515445.190148,7526
1659515445.23167,7543
1659515445.273191,7548
1659515445.311808,7571
1659515445.350425,7575
1659515445.389041,7581
1659515445.427658,7592
1659515445.466275,7610
1659515445.504891,7604
1659515445.5459,7572
1659515445.586909,7558
1659515445.625868,7541
1659515445.664826,7539
1659515445.703784,7524
1659515445.745306,7519
1659515445.786828,7532
1659515445.825444,7535
1659515445.864061,7537
1659515445.902678,7538
1659515445.944199,7548
1659515445.985721,7554
1659515446.025363,7557
1659515446.065005,7534
1659515446.104647,7515
1659515446.148731,7531
1659515446.192816,7554
1659515446.2369,7569
1659515446.269195,7574
1659515446.301489,7590
1659515446.346257,7600
1659515446.391025,7608
1659515446.435793,7621
1659515446.476802,7623
1659515446.517811,7611
1659515446.557112,7569
1659515446.596412,7537
1659515446.635712,7529
1659515446.675012,7524
1659515446.714312,7518
1659515446.753613,7520
1659515446.795134,7524
1659515446.836655,7524
1659515446.875272,7526
1659515446.913889,7518
1659515446.952506,7517
1659515446.991806,7534
1659515447.031106,7525
1659515447.070406,7536
1659515447.11244,7543
1659515447.154474,7541
1659515447.194048,7543
1659515447.233622,7547
1659515447.273195,7556
1659515447.312769,7561
1659515447.352342,7569
1659515447.391301,7561
1659515447.430259,7540
1659515447.469218,7510
1659515447.51296,7488
1659515447.556703,7494
1659515447.600446,7472
1659515447.634279,7469
1659515447.668111,7463
1659515447.712537,7461
1659515447.756963,7462
1659515447.80139,7462
1659515447.83471,7471
1659515447.868029,7473
1659515447.912456,7485
1659515447.956882,7488
1659515448.001308,7496
1659515448.040608,7500
1659515448.079909,7514
1659515448.119209,7516
1659515448.16073,7520
1659515448.202252,7530
1659515448.24121,7532
1659515448.280169,7553
1659515448.319127,7550
1659515448.360136,7529
1659515448.401145,7505
1659515448.439762,7476
1659515448.478378,7463
1659515448.516995,7439
1659515448.555612,7434
1659515448.594229,7427
1659515448.632845,7431
1659515448.674879,7427
1659515448.716913,7420
1659515448.755188,7424
1659515448.793463,7424
1659515448.831738,7425
1659515448.872747,7428
1659515448.913756,7429
1659515448.95374,7432
1659515448.993724,7445
1659515449.033707,7443
1659515449.074716,7449
1659515449.115725,7465
1659515449.154,7470
1659515449.192275,7469
1659515449.23055,7484
1659515449.273097,7473
1659515449.315643,7458
1659515449.36007,7425
1659515449.404496,7412
1659515449.448922,7405
1659515449.487881,7397
1659515449.526839,7401
1659515449.565798,7405
1659515449.607319,7401
1659515449.648841,7399
1659515449.687799,7408
1659515449.726758,7420
1659515449.765716,7420
1659515449.803649,7433
1659515449.841583,7435
1659515449.879516,7443
1659515449.922575,7440
1659515449.965635,7461
1659515450.004593,7468
1659515450.043551,7483
1659515450.08251,7484
1659515450.123519,7495
1659515450.164528,7516
1659515450.203828,7515
1659515450.243128,7489
1659515450.282428,7466
1659515450.324975,7449
1659515450.367522,7443
1659515450.406138,7427
1659515450.444755,7427
1659515450.483372,7423
1659515450.52233,7441
1659515450.561289,7428
1659515450.600247,7426
1659515450.641769,7444
1659515450.68329,7444
1659515450.721565,7447
1659515450.75984,7454
1659515450.798115,7464
1659515450.840149,7462
1659515450.882183,7474
1659515450.926951,7480
1659515450.97172,7480
1659515451.016488,7488
1659515451.04827,7491
1659515451.080051,7496
1659515451.124819,7513
1659515451.169587,7502
1659515451.214355,7508
1659515451.248188,7513
1659515451.28202,7476
1659515451.326105,7446
1659515451.370189,7434
1659515451.414274,7422
1659515451.452891,7405
1659515451.491507,7408
1659515451.530124,7402
1659515451.571645,7394
1659515451.613167,7402
1659515451.651442,7386
1659515451.689717,7389
1659515451.727992,7395
1659515451.766609,7401
1659515451.805225,7400
1659515451.843842,7412
1659515451.886389,7415
1659515451.928936,7414
1659515451.967552,7431
1659515452.006169,7439
1659515452.044786,7450
1659515452.085282,7447
1659515452.125778,7448
1659515452.164737,7426
1659515452.203695,7402
1659515452.242654,7397
1659515452.282295,7383
1659515452.321938,7386
1659515452.361579,7378
1659515452.402588,7391
1659515452.443597,7382
1659515452.485375,7377
1659515452.527153,7385
1659515452.568931,7388
1659515452.610708,7393
1659515452.650009,7394
1659515452.689309,7403
1659515452.728609,7412
1659515452.766884,7425
1659515452.805159,7434
1659515452.843434,7434
1659515452.884955,7452
1659515452.926477,7458
1659515452.965094,7460
1659515453.003711,7478
1659515453.042327,7477
1659515453.084361,7488
1659515453.126395,7488
1659515453.17048,7465
1659515453.214565,7435
1659515453.258649,7411
1659515453.292481,7403
1659515453.326314,7386
1659515453.370398,7387
1659515453.414483,7371
1659515453.458567,7361
1659515453.492913,7366
1659515453.527257,7355
1659515453.571684,7347
1659515453.61611,7346
1659515453.660536,7351
1659515453.699495,7341
1659515453.738453,7359
1659515453.777412,7356
1659515453.818421,7365
1659515453.85943,7366
1659515453.898388,7370
1659515453.937346,7370
1659515453.976305,7374
1659515454.014922,7388
1659515454.053538,7376
1659515454.092155,7372
1659515454.133677,7352
1659515454.175198,7331
1659515454.21672,7327
1659515454.258241,7307
1659515454.296174,7305
1659515454.334107,7296
1659515454.372041,7301
1659515454.413562,7304
1659515454.455084,7315
1659515454.494726,7317
1659515454.534368,7314
1659515454.57401,7331
1659515454.612285,7341
1659515454.650559,7359
1659515454.688834,7358
1659515454.730869,7359
1659515454.772903,7372
1659515454.811861,7379
1659515454.85082,7389
1659515454.889778,7395
1659515454.930787,7402
1659515454.971796,7402
1659515455.010071,7390
1659515455.048346,7361
1659515455.086621,7350
1659515455.128142,7344
1659515455.169664,7331
1659515455.208622,7325
1659515455.247581,7337
1659515455.286539,7326
1659515455.330624,7323
1659515455.374708,7334
1659515455.418793,7327
1659515455.460827,7335
1659515455.502861,7339
1659515455.541478,7348
1659515455.580095,7362
1659515455.618711,7375
1659515455.65972,7371
1659515455.700729,7378
1659515455.740713,7385
1659515455.780696,7392
1659515455.82068,7398
1659515455.859297,7402
1659515455.897913,7419
1659515455.93653,7420
1659515455.978565,7416
1659515456.020598,7372
1659515456.059215,7344
1659515456.097832,7330
1659515456.136449,7318
1659515456.178995,7305
1659515456.221542,7294
1659515456.259817,7303
1659515456.298092,7292
1659515456.336367,7296
1659515456.375325,7294
1659515456.414284,7284
1659515456.453242,7292
1659515456.497327,7298
1659515456.541412,7303
1659515456.585496,7311
1659515456.624454,7311
1659515456.663413,7324
1659515456.702371,7332
1659515456.741672,7335
1659515456.780972,7340
1659515456.820272,7351
1659515456.861794,7361
1659515456.903315,7374
1659515456.942615,7353
1659515456.981915,7324
1659515457.021216,7316
1659515457.06325,7313
1659515457.105284,7303
1659515457.143901,7295
1659515457.182517,7298
1659515457.221134,7308
1659515457.259409,7302
1659515457.297684,7317
1659515457.335959,7319
1659515457.377993,7321
1659515457.420027,7335
1659515457.458986,7349
1659515457.497944,7359
1659515457.536903,7359
1659515457.577399,7366
1659515457.617895,7383
1659515457.659417,7382
1659515457.700938,7399
1659515457.74246,7405
1659515457.783981,7421
1659515457.825503,7428
1659515457.867024,7447
1659515457.905641,7429
1659515457.944258,7398
1659515457.982874,7382
1659515458.024909,7358
1659515458.066943,7349
1659515458.106243,7337
1659515458.145543,7336
1659515458.184843,7334
1659515458.223118,7343
1659515458.261393,7334
1659515458.299668,7330
1659515458.34119,7328
1659515458.382711,7337
1659515458.421669,7342
1659515458.460628,7337
1659515458.499587,7334
1659515458.541108,7328
1659515458.582629,7330
1659515458.621588,7327
1659515458.660546,7325
1659515458.699505,7332
1659515458.741026,7333
1659515458.782548,7344
1659515458.824069,7347
1659515458.865591,7341
1659515458.904208,7312
1659515458.942824,7291
1659515458.981441,7271
1659515459.023988,7262
1659515459.066535,7267
1659515459.105151,7263
1659515459.143768,7275
1659515459.182385,7280
1659515459.223906,7287
1659515459.265428,7307
1659515459.30507,7309
1659515459.344712,7319
1659515459.384353,7321
1659515459.425362,7317
1659515459.466371,7321
1659515459.504988,7326
1659515459.543605,7337
1659515459.582222,7346
1659515459.62699,7366
1659515459.671757,7389
1659515459.716526,7399
1659515459.750358,7417
1659515459.78419,7399
1659515459.827933,7363
1659515459.871676,7327
1659515459.915419,7306
1659515459.955061,7290
1659515459.994703,7285
1659515460.034345,7300
1659515460.075866,7291
1659515460.117388,7300
1659515460.155663,7291
1659515460.193938,7294
1659515460.232213,7300
1659515460.274759,7289
1659515460.317306,7288
1659515460.356264,7297
1659515460.395223,7304
1659515460.434181,7304
1659515460.472456,7318
1659515460.510731,7318
1659515460.549006,7320
1659515460.590015,7335
1659515460.631024,7337
1659515460.669982,7333
1659515460.708941,7306
1659515460.747899,7278
1659515460.788396,7250
1659515460.828892,7232
1659515460.867509,7225
1659515460.906125,7216
1659515460.944742,7216
1659515460.986264,7214
1659515461.027785,7213
1659515461.069307,7207
1659515461.110828,7189
1659515461.15235,7194
1659515461.193871,7196
1659515461.233171,7220
1659515461.272472,7237
1659515461.311772,7254
1659515461.353806,7264
1659515461.39584,7263
1659515461.434457,7271
1659515461.473073,7277
1659515461.51169,7294
1659515461.553212,7292
1659515461.594733,7263
1659515461.63335,7237
1659515461.671967,7225
1659515461.710583,7226
1659515461.7492,7213
1659515461.787817,7227
1659515461.826433,7230
1659515461.867955,7242
1659515461.909477,7241
1659515461.948777,7257
1659515461.988077,7273
1659515462.027377,7280
1659515462.068386,7287
1659515462.109395,7305
1659515462.153821,7320
1659515462.198247,7329
1659515462.242674,7343
1659515462.276506,7353
1659515462.310338,7361
1659515462.354765,7379
1659515462.399191,7393
1659515462.443617,7403
1659515462.482576,7395
1659515462.521534,7360
1659515462.560493,7329
1659515462.602527,7319
1659515462.644561,7321
1659515462.683178,7322
1659515462.721794,7340
1659515462.760411,7337
1659515462.802445,7345
1659515462.844479,7356
1659515462.883438,7341
1659515462.922396,7346
1659515462.961355,7351
1659515463.000723,7358
1659515463.040092,7362
1659515463.07946,7379
1659515463.118829,7384
1659515463.158197,7391
1659515463.197839,7414
1659515463.237481,7418
1659515463.277123,7436
1659515463.318388,7446
1659515463.359654,7454
1659515463.400919,7468
1659515463.442184,7466
1659515463.480801,7441
1659515463.519418,7413
1659515463.558034,7404
1659515463.600581,7399
1659515463.643128,7395
1659515463.681744,7379
1659515463.720361,7376
1659515463.758978,7386
1659515463.797595,7381
1659515463.836211,7381
1659515463.874828,7381
1659515463.916349,7388
1659515463.957871,7387
1659515463.996488,7389
1659515464.035105,7403
1659515464.073721,7402
1659515464.11473,7407
1659515464.155739,7412
1659515464.194356,7413
1659515464.232972,7426
1659515464.271589,7426
1659515464.312598,7432
1659515464.353607,7435
1659515464.397691,7408
1659515464.441776,7371
1659515464.485861,7357
1659515464.520205,7336
1659515464.55455,7323
1659515464.598977,7331
1659515464.643403,7325
1659515464.687829,7328
1659515464.726104,7330
1659515464.76438,7324
1659515464.802654,7330
1659515464.845201,7336
1659515464.887748,7336
1659515464.926706,7335
1659515464.965665,7362
1659515465.004623,7360
1659515465.04324,7361
1659515465.081857,7381
1659515465.120473,7381
1659515465.161995,7389
1659515465.203516,7390
1659515465.242133,7386
1659515465.28075,7357
1659515465.319366,7351
1659515465.361401,7352
1659515465.403435,7343
1659515465.442393,7355
1659515465.481352,7364
1659515465.52031,7364
1659515465.559268,7372
1659515465.598227,7368
1659515465.637186,7376
1659515465.679219,7387
1659515465.721254,7399
1659515465.763288,7404
1659515465.805322,7422
1659515465.847356,7430
1659515465.88939,7443
1659515465.928007,7457
1659515465.966624,7464
1659515466.00524,7486
1659515466.045737,7488
1659515466.086233,7476
1659515466.125875,7446
1659515466.165517,7433
1659515466.205159,7417
1659515466.243434,7413
1659515466.281709,7418
1659515466.319984,7415
1659515466.360992,7428
1659515466.402001,7426
1659515466.440618,7423
1659515466.479235,7436
1659515466.517852,7436
1659515466.559886,7441
1659515466.60192,7455
1659515466.646004,7460
1659515466.690089,7475
1659515466.734174,7478
1659515466.767493,7487
1659515466.800813,7506
1659515466.845239,7532
1659515466.889666,7543
1659515466.934092,7541
1659515466.97305,7518
1659515467.012009,7490
1659515467.050967,7466
1659515467.093001,7451
1659515467.135036,7442
1659515467.173652,7446
1659515467.212269,7462
1659515467.250886,7454
1659515467.289161,7451
1659515467.327436,7463
1659515467.36571,7460
1659515467.406719,7459
1659515467.447728,7459
1659515467.486687,7454
1659515467.525645,7450
1659515467.564604,7457
1659515467.602537,7451
1659515467.64047,7453
1659515467.678403,7470
1659515467.720438,7478
1659515467.762472,7494
1659515467.802114,7481
1659515467.841756,7448
1659515467.881397,7435
1659515467.925482,7423
1659515467.969567,7416
1659515468.013651,7409
1659515468.047483,7423
1659515468.081316,7422
1659515468.126084,7420
1659515468.170852,7418
1659515468.21562,7419
1659515468.255399,7434
1659515468.295177,7435
1659515468.334956,7438
1659515468.374735,7444
1659515468.414513,7445
1659515468.453813,7466
1659515468.493114,7476
1659515468.532414,7497
1659515468.57291,7523
1659515468.613406,7524
1659515468.652707,7515
1659515468.692007,7499
1659515468.731307,7501
1659515468.770265,7476
1659515468.809224,7459
1659515468.848182,7470
1659515468.889704,7470
1659515468.931225,7460
1659515468.970184,7444
1659515469.009142,7442
1659515469.048101,7442
1659515469.090647,7469
1659515469.133194,7488
1659515469.171811,7515
1659515469.210428,7543
1659515469.249044,7562
1659515469.291078,7584
1659515469.333112,7593
1659515469.371729,7607
1659515469.410346,7627
1659515469.448963,7655
1659515469.490997,7651
1659515469.533031,7626
1659515469.571306,7605
1659515469.609581,7581
1659515469.647856,7570
1659515469.689377,7564
1659515469.730899,7560
1659515469.774983,7553
1659515469.819068,7540
1659515469.863153,7534
1659515469.901769,7527
1659515469.940386,7532
1659515469.979003,7526
1659515470.021549,7519
1659515470.064096,7531
1659515470.102713,7546
1659515470.14133,7558
1659515470.179946,7569
1659515470.219289,7576
1659515470.258632,7582
1659515470.297975,7580
1659515470.337318,7586
1659515470.376661,7584
1659515470.416004,7574
1659515470.455347,7546
1659515470.49469,7531
1659515470.534673,7529
1659515470.574657,7508
1659515470.614641,7510
1659515470.654624,7505
1659515470.694608,7505
1659515470.735873,7511
1659515470.777138,7523
1659515470.818404,7539
1659515470.859669,7552
1659515470.896577,7558
1659515470.933485,7561
1659515470.970393,7581
1659515471.007301,7573
1659515471.049335,7584
1659515471.091369,7610
1659515471.133403,7605
1659515471.175437,7616
1659515471.214054,7618
1659515471.252671,7624
1659515471.291287,7601
1659515471.333834,7577
1659515471.376381,7564
1659515471.415681,7553
1659515471.454981,7553
1659515471.494282,7557
1659515471.538708,7548
1659515471.583134,7561
1659515471.62756,7580
1659515471.660367,7593
1659515471.693175,7602
1659515471.737601,7596
1659515471.782027,7600
1659515471.826454,7611
1659515471.859773,7627
1659515471.893093,7639
1659515471.937519,7658
1659515471.981946,7651
1659515472.026372,7665
1659515472.064989,7669
1659515472.103606,7683
1659515472.142222,7690
1659515472.183744,7687
1659515472.225265,7665
1659515472.264224,7647
1659515472.303182,7634
1659515472.342141,7622
1659515472.384175,7614
1659515472.426209,7609
1659515472.464826,7618
1659515472.503442,7613
1659515472.542059,7619
1659515472.581359,7614
1659515472.620659,7612
1659515472.65996,7609
1659515472.700969,7623
1659515472.741977,7636
1659515472.780594,7638
1659515472.819211,7648
1659515472.857827,7643
1659515472.898836,7654
1659515472.939845,7653
1659515472.978804,7659
1659515473.017762,7677
1659515473.056721,7673
1659515473.100463,7659
1659515473.144206,7631
1659515473.187949,7621
1659515473.221781,7609
1659515473.255614,7611
1659515473.300382,7601
1659515473.34515,7605
1659515473.389918,7617
1659515473.428193,7606
1659515473.466468,7614
1659515473.504743,7638
1659515473.543701,7654
1659515473.58266,7672
1659515473.621618,7686
1659515473.660577,7694
1659515473.699535,7711
1659515473.738494,7726
1659515473.782236,7741
1659515473.825979,7757
1659515473.869722,7786
1659515473.903042,7789
1659515473.936362,7763
1659515473.980446,7750
1659515474.024531,7738
1659515474.068615,7737
1659515474.107232,7733
1659515474.145849,7739
1659515474.184465,7750
1659515474.2265,7761
1659515474.268534,7770
1659515474.30715,7773
1659515474.345767,7791
1659515474.384384,7795
1659515474.425393,7810
1659515474.466402,7828
1659515474.506385,7836
1659515474.546369,7848
1659515474.586353,7865
1659515474.627874,7875
1659515474.669396,7890
1659515474.708012,7898
1659515474.746629,7880
1659515474.785246,7851
1659515474.824546,7838
1659515474.863846,7830
1659515474.903146,7839
1659515474.945693,7836
1659515474.98824,7840
1659515475.026515,7840
1659515475.06479,7834
1659515475.103065,7841
1659515475.144074,7845
1659515475.185082,7855
1659515475.224041,7849
1659515475.263,7865
1659515475.301958,7880
1659515475.343479,7881
1659515475.385001,7890
1659515475.423618,7891
1659515475.462234,7894
1659515475.500851,7902
1659515475.542885,7904
1659515475.584919,7873
1659515475.623878,7840
1659515475.662836,7843
1659515475.701795,7824
1659515475.746221,7824
1659515475.790647,7815
1659515475.835073,7810
1659515475.87762,7811
1659515475.920167,7805
1659515475.958784,7809
1659515475.997401,7811
1659515476.036017,7818
1659515476.074634,7821
1659515476.113251,7829
1659515476.151867,7833
1659515476.193389,7833
1659515476.23491,7852
1659515476.273185,7850
1659515476.31146,7858
1659515476.349735,7851
1659515476.38801,7816
1659515476.426285,7795
1659515476.46456,7783
1659515476.506082,7764
1659515476.547603,7757
1659515476.586903,7758
1659515476.626204,7763
1659515476.665504,7752
1659515476.706513,7767
1659515476.747522,7762
1659515476.78648,7763
1659515476.825438,7776
1659515476.864397,7789
1659515476.906944,7800
1659515476.949491,7808
1659515476.988107,7815
1659515477.026724,7821
1659515477.065341,7847
1659515477.106349,7852
1659515477.147358,7856
1659515477.191785,7870
1659515477.236211,7854
1659515477.280637,7824
1659515477.319254,7792
1659515477.357871,7784
1659515477.396487,7766
1659515477.439034,7749
1659515477.481581,7751
1659515477.520539,7738
1659515477.559498,7750
1659515477.598456,7738
1659515477.638952,7730
1659515477.679449,7733
1659515477.718407,7726
1659515477.757366,7736
1659515477.796324,7738
1659515477.836308,7743
1659515477.876292,7745
1659515477.916275,7750
1659515477.957284,7760
1659515477.998293,7764
1659515478.03691,7778
1659515478.075526,7773
1659515478.114143,7766
1659515478.15669,7742
1659515478.199237,7714
1659515478.238195,7698
1659515478.277153,7690
1659515478.316112,7675
1659515478.354729,7680
1659515478.393345,7688
1659515478.431962,7688
1659515478.473484,7689
1659515478.515005,7693
1659515478.55328,7695
1659515478.591555,7706
1659515478.62983,7706
1659515478.671864,7705
1659515478.713898,7716
1659515478.753882,7724
1659515478.793866,7727
1659515478.833849,7724
1659515478.873833,7739
1659515478.913817,7742
1659515478.954826,7728
1659515478.995835,7693
1659515479.035476,7660
1659515479.075118,7650
1659515479.11476,7645
1659515479.156282,7647
1659515479.197803,7652
1659515479.23642,7665
1659515479.275037,7666
1659515479.313653,7678
1659515479.357738,7679
1659515479.401823,7684
1659515479.445907,7686
1659515479.479739,7709
1659515479.513572,7726
1659515479.557315,7740
1659515479.601058,7744
1659515479.6448,7751
1659515479.686322,7766
1659515479.727843,7770
1659515479.76646,7775
1659515479.805077,7771
1659515479.843693,7779
1659515479.881968,7758
1659515479.920244,7740
1659515479.958519,7695
1659515480.001065,7665
1659515480.043612,7666
1659515480.082912,7656
1659515480.122212,7654
1659515480.161513,7648
1659515480.202521,7650
1659515480.24353,7653
1659515480.282489,7650
1659515480.321447,7664
1659515480.360406,7657
1659515480.399022,7671
1659515480.437639,7675
1659515480.476256,7687
1659515480.518803,7692
1659515480.561349,7688
1659515480.599624,7686
1659515480.637899,7694
1659515480.676174,7700
1659515480.717696,7707
1659515480.759217,7717
1659515480.798176,7718
1659515480.837134,7714
1659515480.876093,7707
1659515480.917614,7661
1659515480.959136,7642
1659515481.003562,7629
1659515481.047988,7620
1659515481.092415,7616
1659515481.126247,7615
1659515481.160079,7615
1659515481.204164,7606
1659515481.248248,7608
1659515481.292333,7608
1659515481.331633,7611
1659515481.370933,7615
1659515481.410233,7619
1659515481.452268,7628
1659515481.494302,7635
1659515481.53326,7638
1659515481.572219,7636
1659515481.611177,7654
1659515481.652186,7649
1659515481.693195,7646
1659515481.732153,7650
1659515481.771112,7630
1659515481.81007,7605
1659515481.848345,7586
1659515481.88662,7580
1659515481.924895,7580
1659515481.966929,7560
1659515482.008963,7558
1659515482.047922,7550
1659515482.08688,7548
1659515482.125839,7554
1659515482.164114,7562
1659515482.202389,7573
1659515482.240664,7586
1659515482.281673,7614
1659515482.322681,7631
1659515482.362324,7643
1659515482.401965,7667
1659515482.441607,7669
1659515482.482616,7674
1659515482.523625,7676
1659515482.568051,7680
1659515482.612478,7660
1659515482.656904,7640
1659515482.689711,7638
1659515482.722518,7633
1659515482.766603,7645
1659515482.810687,7630
1659515482.854772,7624
1659515482.887579,7625
1659515482.920386,7626
1659515482.965154,7616
1659515483.009922,7614
1659515483.05469,7603
1659515483.092965,7576
1659515483.13124,7597
1659515483.169515,7585
1659515483.210524,7578
1659515483.251533,7578
1659515483.291517,7567
1659515483.331501,7568
1659515483.371484,7568
1659515483.413006,7579
1659515483.454527,7597
1659515483.492802,7620
1659515483.531077,7625
1659515483.569352,7619
1659515483.608994,7596
1659515483.648636,7570
1659515483.688278,7552
1659515483.730312,7546
1659515483.772346,7537
1659515483.810963,7545
1659515483.84958,7554
1659515483.888196,7553
1659515483.926813,7542
1659515483.96543,7556
1659515484.004046,7560
1659515484.045312,7566
1659515484.086577,7573
1659515484.127842,7583
1659515484.169107,7596
1659515484.208066,7612
1659515484.247024,7610
1659515484.285983,7607
1659515484.327504,7599
1659515484.369026,7608
1659515484.407642,7597
1659515484.446259,7592
1659515484.484876,7556
1659515484.529644,7528
1659515484.574412,7525
1659515484.61918,7524
1659515484.653012,7532
1659515484.686845,7526
1659515484.730929,7522
1659515484.775014,7532
1659515484.819098,7530
1659515484.861132,7530
1659515484.903167,7539
1659515484.942125,7555
1659515484.981083,7558
1659515485.020042,7568
1659515485.058317,7567
1659515485.096592,7570
1659515485.134867,7583
1659515485.176388,7586
1659515485.21791,7589
1659515485.256868,7591
1659515485.295827,7577
1659515485.334785,7536
1659515485.375282,7506
1659515485.415778,7496
1659515485.454736,7486
1659515485.493695,7482
1659515485.532653,7484
1659515485.57127,7483
1659515485.609887,7486
1659515485.648503,7485
1659515485.690537,7483
1659515485.732572,7494
1659515485.771188,7495
1659515485.809805,7504
1659515485.848422,7510
1659515485.889943,7521
1659515485.931465,7533
1659515485.970423,7547
1659515486.009382,7526
1659515486.04834,7479
1659515486.089862,7411
1659515486.131383,7343
1659515486.17,7272
1659515486.208616,7175
1659515486.247233,7053
