LocalTimestamp,PG
1659513705.45012,10375
1659513705.45012,10401
1659513705.45012,10304
1659513705.45012,10276
1659513705.481645,10284
1659513705.513171,10322
1659513705.544696,10331
1659513705.576222,10336
1659513705.61518,10334
1659513705.654139,10365
1659513705.693097,10399
1659513705.735644,10439
1659513705.778191,10475
1659513705.816808,10512
1659513705.855424,10555
1659513705.894041,10586
1659513705.932316,10624
1659513705.970591,10660
1659513706.008866,10693
1659513706.0509,10725
1659513706.092934,10752
1659513706.134968,10694
1659513706.177002,10542
1659513706.214936,10420
1659513706.252869,10370
1659513706.290802,10335
1659513706.33557,10331
1659513706.380338,10358
1659513706.425106,10400
1659513706.458426,10426
1659513706.491746,10444
1659513706.53583,10466
1659513706.579915,10516
1659513706.623999,10551
1659513706.657832,10592
1659513706.691664,10633
1659513706.736432,10668
1659513706.7812,10708
1659513706.825968,10735
1659513706.863132,10775
1659513706.900297,10812
1659513706.937461,10850
1659513706.974626,10871
1659513707.019052,10854
1659513707.063478,10722
1659513707.107904,10626
1659513707.145838,10588
1659513707.183771,10575
1659513707.221704,10580
1659513707.262713,10615
1659513707.303722,10643
1659513707.343022,10649
1659513707.382322,10667
1659513707.421623,10689
1659513707.459898,10705
1659513707.498173,10751
1659513707.536448,10776
1659513707.578994,10811
1659513707.621541,10834
1659513707.660841,10880
1659513707.700141,10913
1659513707.739441,10942
1659513707.778058,10973
1659513707.816675,11007
1659513707.855292,10991
1659513707.900401,10881
1659513707.945511,10754
1659513707.990621,10691
1659513708.024453,10656
1659513708.058286,10647
1659513708.102028,10663
1659513708.145771,10698
1659513708.189514,10714
1659513708.222321,10727
1659513708.255128,10747
1659513708.299896,10772
1659513708.344665,10804
1659513708.389432,10833
1659513708.427707,10878
1659513708.465982,10905
1659513708.504257,10940
1659513708.546804,10977
1659513708.589351,11007
1659513708.628651,11037
1659513708.667951,11082
1659513708.707252,11103
1659513708.74826,11053
1659513708.789269,10934
1659513708.828228,10811
1659513708.867186,10764
1659513708.906145,10734
1659513708.945445,10721
1659513708.984745,10735
1659513709.024045,10771
1659513709.065567,10781
1659513709.107088,10783
1659513709.145705,10801
1659513709.184322,10832
1659513709.222938,10866
1659513709.26446,10893
1659513709.305981,10931
1659513709.344256,10960
1659513709.382531,10997
1659513709.420806,11023
1659513709.462328,11061
1659513709.503849,11100
1659513709.542124,11108
1659513709.580399,11050
1659513709.618674,10915
1659513709.6631,10807
1659513709.707527,10741
1659513709.751953,10669
1659513709.793475,10605
1659513709.834996,10586
1659513709.874296,10570
1659513709.913597,10530
1659513709.952897,10488
1659513709.994931,10441
1659513710.036965,10429
1659513710.075582,10422
1659513710.114198,10411
1659513710.152815,10408
1659513710.191774,10405
1659513710.230732,10402
1659513710.269691,10404
1659513710.310699,10428
1659513710.351708,10429
1659513710.390325,10428
1659513710.428942,10350
1659513710.467559,10130
1659513710.510105,9905
1659513710.552652,9744
1659513710.59161,9630
1659513710.630569,9536
1659513710.669527,9509
1659513710.707802,9509
1659513710.746077,9510
1659513710.784352,9510
1659513710.825874,9523
1659513710.867395,9570
1659513710.907379,9606
1659513710.947363,9658
1659513710.987346,9705
1659513711.028355,9768
1659513711.069364,9832
1659513711.107981,9873
1659513711.146598,9925
1659513711.185214,9961
1659513711.227761,9943
1659513711.270308,9730
1659513711.31405,9474
1659513711.357793,9338
1659513711.401536,9269
1659513711.434856,9266
1659513711.468176,9297
1659513711.512944,9338
1659513711.557712,9348
1659513711.60248,9402
1659513711.641097,9446
1659513711.679713,9503
1659513711.71833,9562
1659513711.759339,9606
1659513711.800348,9654
1659513711.83999,9716
1659513711.879632,9782
1659513711.919274,9846
1659513711.95789,9893
1659513711.996507,9851
1659513712.035124,9722
1659513712.076133,9606
1659513712.117141,9576
1659513712.156783,9579
1659513712.196425,9620
1659513712.236067,9645
1659513712.277589,9647
1659513712.31911,9666
1659513712.357385,9677
1659513712.39566,9714
1659513712.433935,9754
1659513712.472894,9796
1659513712.511852,9860
1659513712.550811,9893
1659513712.59182,9941
1659513712.632828,9992
1659513712.67435,10034
1659513712.715871,9992
1659513712.75483,9805
1659513712.793788,9624
1659513712.832747,9516
1659513712.876831,9468
1659513712.920916,9412
1659513712.965,9422
1659513712.997295,9475
1659513713.029589,9504
1659513713.074699,9522
1659513713.119809,9542
1659513713.164919,9589
1659513713.203877,9633
1659513713.242836,9693
1659513713.281794,9736
1659513713.323316,9784
1659513713.364837,9843
1659513713.404137,9893
1659513713.443438,9953
1659513713.482738,9976
1659513713.523747,9890
1659513713.564756,9713
1659513713.603031,9591
1659513713.641306,9526
1659513713.679581,9476
1659513713.718539,9455
1659513713.757498,9486
1659513713.796456,9519
1659513713.839003,9536
1659513713.881549,9551
1659513713.919824,9580
1659513713.958099,9645
1659513713.996374,9707
1659513714.037383,9779
1659513714.078392,9820
1659513714.117692,9871
1659513714.156992,9928
1659513714.196293,9979
1659513714.238327,10025
1659513714.280361,10082
1659513714.319319,10122
1659513714.358278,10153
1659513714.397236,10107
1659513714.43927,9952
1659513714.481305,9833
1659513714.520263,9753
1659513714.559222,9691
1659513714.59818,9644
1659513714.642265,9642
1659513714.686349,9652
1659513714.730434,9653
1659513714.764266,9659
1659513714.798098,9666
1659513714.842183,9687
1659513714.886267,9721
1659513714.930352,9745
1659513714.971361,9793
1659513715.01237,9835
1659513715.051328,9878
1659513715.090287,9922
1659513715.129245,9961
1659513715.168204,10011
1659513715.207162,10064
1659513715.24612,10107
1659513715.287129,10116
1659513715.328138,10070
1659513715.366755,9962
1659513715.405372,9895
1659513715.443989,9856
1659513715.48551,9832
1659513715.527031,9828
1659513715.566332,9847
1659513715.605632,9868
1659513715.644932,9876
1659513715.683891,9896
1659513715.722849,9900
1659513715.761807,9922
1659513715.803329,9947
1659513715.844851,9970
1659513715.883126,10004
1659513715.9214,10047
1659513715.959675,10077
1659513716.001197,10106
1659513716.042718,10152
1659513716.082019,10174
1659513716.121319,10224
1659513716.160619,10250
1659513716.201115,10265
1659513716.241611,10240
1659513716.286038,10176
1659513716.330464,10115
1659513716.374891,10096
1659513716.409235,10091
1659513716.44358,10088
1659513716.488007,10111
1659513716.532433,10113
1659513716.576859,10120
1659513716.615476,10131
1659513716.654093,10143
1659513716.692709,10163
1659513716.734744,10177
1659513716.776778,10207
1659513716.815394,10234
1659513716.854011,10273
1659513716.892628,10293
1659513716.930903,10311
1659513716.969178,10358
1659513717.007453,10380
1659513717.050512,10404
1659513717.093571,10413
1659513717.131846,10376
1659513717.170121,10303
1659513717.208396,10263
1659513717.248893,10251
1659513717.289389,10240
1659513717.328689,10260
1659513717.367989,10268
1659513717.40729,10289
1659513717.448811,10282
1659513717.490333,10300
1659513717.531854,10314
1659513717.573376,10344
1659513717.614897,10364
1659513717.656419,10397
1659513717.696402,10418
1659513717.736386,10442
1659513717.77637,10470
1659513717.817379,10484
1659513717.858387,10514
1659513717.897346,10525
1659513717.936304,10484
1659513717.975263,10413
1659513718.01388,10356
1659513718.052496,10336
1659513718.091113,10315
1659513718.132634,10323
1659513718.174156,10323
1659513718.212431,10335
1659513718.250706,10338
1659513718.288981,10347
1659513718.330503,10356
1659513718.372024,10373
1659513718.410299,10393
1659513718.448574,10415
1659513718.486849,10442
1659513718.528883,10459
1659513718.570917,10480
1659513718.609875,10500
1659513718.648834,10532
1659513718.687793,10545
1659513718.728801,10528
1659513718.76981,10466
1659513718.808427,10377
1659513718.847044,10335
1659513718.88566,10308
1659513718.930429,10289
1659513718.975196,10297
1659513719.019964,10308
1659513719.053284,10314
1659513719.086604,10322
1659513719.130689,10326
1659513719.174773,10343
1659513719.218858,10364
1659513719.260379,10383
1659513719.301901,10411
1659513719.340518,10423
1659513719.379134,10451
1659513719.417751,10479
1659513719.456026,10493
1659513719.494301,10516
1659513719.532576,10523
1659513719.575123,10449
1659513719.617669,10349
1659513719.656628,10287
1659513719.695586,10240
1659513719.734545,10218
1659513719.773503,10210
1659513719.812462,10217
1659513719.85142,10227
1659513719.892941,10225
1659513719.934463,10225
1659513719.974105,10239
1659513720.013747,10264
1659513720.053389,10282
1659513720.09491,10310
1659513720.136432,10331
1659513720.175049,10350
1659513720.213665,10382
1659513720.252282,10408
1659513720.293803,10433
1659513720.335325,10426
1659513720.373942,10351
1659513720.412558,10223
1659513720.451175,10150
1659513720.493209,10096
1659513720.535243,10055
1659513720.57967,10048
1659513720.624096,10063
1659513720.668522,10073
1659513720.706797,10072
1659513720.745072,10078
1659513720.783347,10085
1659513720.824869,10117
1659513720.86639,10142
1659513720.905349,10171
1659513720.944307,10206
1659513720.983266,10232
1659513721.0253,10267
1659513721.067334,10292
1659513721.105951,10319
1659513721.144567,10352
1659513721.183184,10373
1659513721.222142,10340
1659513721.261101,10212
1659513721.300059,10090
1659513721.341068,10007
1659513721.382077,9965
1659513721.420694,9928
1659513721.459311,9918
1659513721.497927,9944
1659513721.538936,9940
1659513721.579945,9939
1659513721.618904,9943
1659513721.657862,9972
1659513721.69682,9988
1659513721.734754,10032
1659513721.772687,10048
1659513721.81062,10081
1659513721.853167,10116
1659513721.895714,10147
1659513721.934672,10177
1659513721.97363,10216
1659513722.012589,10245
1659513722.053598,10181
1659513722.094607,10043
1659513722.139375,9923
1659513722.184143,9872
1659513722.228911,9835
1659513722.268211,9820
1659513722.307511,9845
1659513722.346812,9859
1659513722.388333,9862
1659513722.429855,9871
1659513722.468813,9893
1659513722.507771,9922
1659513722.54673,9961
1659513722.585347,9999
1659513722.623963,10034
1659513722.66258,10072
1659513722.701197,10110
1659513722.739814,10145
1659513722.77843,10186
1659513722.819439,10228
1659513722.860448,10259
1659513722.899406,10296
1659513722.938365,10241
1659513722.977323,10089
1659513723.018845,9954
1659513723.060366,9880
1659513723.099667,9841
1659513723.138967,9818
1659513723.178267,9833
1659513723.220301,9857
1659513723.262335,9870
1659513723.300952,9877
1659513723.339569,9904
1659513723.378185,9929
1659513723.422953,9954
1659513723.467721,10006
1659513723.51249,10041
1659513723.555036,10079
1659513723.597583,10108
1659513723.635516,10162
1659513723.67345,10199
1659513723.711383,10256
1659513723.752904,10279
1659513723.794426,10243
1659513723.833384,10128
1659513723.872343,10006
1659513723.911301,9970
1659513723.950259,9945
1659513723.989218,9966
1659513724.028176,9991
1659513724.068673,10031
1659513724.109169,10033
1659513724.148469,10029
1659513724.187769,10062
1659513724.22707,10096
1659513724.265686,10129
1659513724.304303,10155
1659513724.34292,10187
1659513724.384954,10213
1659513724.426988,10242
1659513724.465605,10275
1659513724.504221,10310
1659513724.542838,10335
1659513724.58436,10300
1659513724.625881,10130
1659513724.664156,9899
1659513724.702431,9763
1659513724.740706,9677
1659513724.78274,9615
1659513724.824774,9589
1659513724.863733,9591
1659513724.902691,9595
1659513724.94165,9575
1659513724.982146,9579
1659513725.022642,9574
1659513725.067069,9602
1659513725.111495,9633
1659513725.155921,9662
1659513725.19488,9690
1659513725.233838,9733
1659513725.272796,9768
1659513725.314318,9812
1659513725.355839,9866
1659513725.39514,9916
1659513725.43444,9958
1659513725.47374,9963
1659513725.515262,9808
1659513725.556783,9594
1659513725.595742,9479
1659513725.6347,9422
1659513725.673659,9373
1659513725.712275,9354
1659513725.750892,9384
1659513725.789509,9409
1659513725.832568,9406
1659513725.875627,9403
1659513725.913902,9418
1659513725.952177,9460
1659513725.990452,9501
1659513726.031461,9544
1659513726.07247,9597
1659513726.11177,9645
1659513726.15107,9694
1659513726.190371,9739
1659513726.228646,9780
1659513726.266921,9835
1659513726.305196,9876
1659513726.34723,9929
1659513726.389264,9979
1659513726.431811,9946
1659513726.474357,9765
1659513726.513316,9592
1659513726.552274,9509
1659513726.591233,9468
1659513726.635659,9433
1659513726.680085,9448
1659513726.724512,9489
1659513726.758857,9523
1659513726.793201,9543
1659513726.837286,9560
1659513726.881371,9606
1659513726.925455,9654
1659513726.957237,9717
1659513726.989019,9760
1659513727.033787,9810
1659513727.078555,9876
1659513727.123323,9921
1659513727.161598,9968
1659513727.199873,10009
1659513727.238148,10073
1659513727.27967,10121
1659513727.321191,10156
1659513727.360149,10084
1659513727.399108,9907
1659513727.438066,9791
1659513727.476683,9751
1659513727.5153,9748
1659513727.553916,9768
1659513727.594925,9817
1659513727.635934,9855
1659513727.675576,9886
1659513727.715218,9914
1659513727.75486,9943
1659513727.796382,9990
1659513727.837903,10045
1659513727.879425,10087
1659513727.920946,10140
1659513727.962468,10185
1659513728.003989,10229
1659513728.046023,10282
1659513728.088058,10320
1659513728.126333,10352
1659513728.164607,10413
1659513728.202882,10444
1659513728.244404,10421
1659513728.285925,10258
1659513728.325226,10115
1659513728.364526,10061
1659513728.403826,10075
1659513728.442101,10080
1659513728.480376,10130
1659513728.518651,10158
1659513728.560685,10159
1659513728.602719,10163
1659513728.641678,10180
1659513728.680636,10215
1659513728.719594,10262
1659513728.761629,10299
1659513728.803663,10335
1659513728.842279,10381
1659513728.880896,10417
1659513728.919513,10459
1659513728.958813,10517
1659513728.998113,10551
1659513729.037414,10555
1659513729.078422,10444
1659513729.119431,10243
1659513729.15839,10115
1659513729.197348,10081
1659513729.236307,10050
1659513729.278341,10052
1659513729.320375,10083
1659513729.365143,10113
1659513729.409911,10132
1659513729.454679,10148
1659513729.486974,10182
1659513729.519268,10215
1659513729.564036,10251
1659513729.608804,10303
1659513729.653572,10347
1659513729.687405,10385
1659513729.721237,10420
1659513729.765663,10462
1659513729.81009,10489
1659513729.854516,10510
1659513729.893132,10506
1659513729.931749,10374
1659513729.970366,10148
1659513730.0124,9999
1659513730.054434,9932
1659513730.093051,9888
1659513730.131668,9878
1659513730.170284,9894
1659513730.212318,9904
1659513730.254353,9905
1659513730.292628,9898
1659513730.330903,9917
1659513730.369178,9944
1659513730.407794,9972
1659513730.446411,10001
1659513730.485028,10052
1659513730.525524,10082
1659513730.56602,10138
1659513730.605662,10174
1659513730.645304,10225
1659513730.684946,10287
1659513730.725955,10314
1659513730.766964,10230
1659513730.805239,10055
1659513730.843514,9934
1659513730.881789,9897
1659513730.923823,9891
1659513730.965857,9897
1659513731.005499,9937
1659513731.045141,9983
1659513731.084783,9996
1659513731.125792,10016
1659513731.1668,10044
1659513731.206101,10091
1659513731.245401,10138
1659513731.284701,10191
1659513731.329128,10228
1659513731.373554,10271
1659513731.41798,10318
1659513731.455913,10357
1659513731.493847,10409
1659513731.53178,10441
1659513731.573814,10426
1659513731.615848,10289
1659513731.655148,10145
1659513731.694448,10084
1659513731.733749,10074
1659513731.774245,10094
1659513731.814741,10126
1659513731.854041,10155
1659513731.893342,10157
1659513731.932642,10159
1659513731.9716,10188
1659513732.010559,10226
1659513732.049517,10275
1659513732.091039,10309
1659513732.13256,10364
1659513732.17186,10396
1659513732.211161,10454
1659513732.250461,10486
1659513732.292495,10512
1659513732.334529,10448
1659513732.372804,10301
1659513732.411079,10190
1659513732.449354,10147
1659513732.491901,10145
1659513732.534447,10157
1659513732.573406,10204
1659513732.612364,10228
1659513732.651323,10241
1659513732.691819,10267
1659513732.732315,10287
1659513732.77059,10322
1659513732.808865,10361
1659513732.84714,10405
1659513732.89225,10432
1659513732.93736,10471
1659513732.98247,10523
1659513733.023991,10556
1659513733.065513,10587
1659513733.104471,10490
1659513733.14343,10315
1659513733.182388,10194
1659513733.219809,10139
1659513733.257229,10102
1659513733.29465,10091
1659513733.332071,10125
1659513733.373079,10139
1659513733.414088,10163
1659513733.452705,10170
1659513733.491322,10212
1659513733.529938,10233
1659513733.572485,10280
1659513733.615032,10328
1659513733.658775,10365
1659513733.702518,10402
1659513733.74626,10445
1659513733.779068,10485
1659513733.811875,10525
1659513733.856301,10499
1659513733.900727,10331
1659513733.945153,10140
1659513733.983428,10047
1659513734.021703,9974
1659513734.059978,9930
1659513734.102013,9927
1659513734.144047,9959
1659513734.183347,9968
1659513734.222647,9973
1659513734.261947,9981
1659513734.302956,10012
1659513734.343965,10059
1659513734.382582,10094
1659513734.421199,10137
1659513734.459815,10175
1659513734.498774,10213
1659513734.537732,10261
1659513734.576691,10299
1659513734.618725,10348
1659513734.660759,10321
1659513734.699376,10195
1659513734.737992,10016
1659513734.776609,9929
1659513734.81813,9866
1659513734.859652,9832
1659513734.89861,9841
1659513734.937569,9874
1659513734.976527,9872
1659513735.015144,9871
1659513735.053761,9896
1659513735.092377,9919
1659513735.134412,9966
1659513735.176446,9995
1659513735.218992,10033
1659513735.261539,10069
1659513735.300156,10106
1659513735.338773,10143
1659513735.377389,10178
1659513735.422158,10220
1659513735.466925,10165
1659513735.511693,9992
1659513735.546038,9786
1659513735.580384,9682
1659513735.624126,9610
1659513735.667869,9559
1659513735.711612,9579
1659513735.743906,9645
1659513735.776201,9692
1659513735.820627,9737
1659513735.865053,9792
1659513735.90948,9851
1659513735.948097,9898
1659513735.986713,9956
1659513736.02533,10002
1659513736.067364,10048
1659513736.109398,10087
1659513736.148015,10117
1659513736.186632,10150
1659513736.225248,10195
1659513736.263523,10233
1659513736.301798,10256
1659513736.340073,10219
1659513736.381082,10036
1659513736.422091,9846
1659513736.462075,9728
1659513736.502059,9637
1659513736.542042,9577
1659513736.583051,9570
1659513736.62406,9585
1659513736.662677,9581
1659513736.701293,9586
1659513736.73991,9597
1659513736.781432,9630
1659513736.822953,9654
1659513736.861912,9693
1659513736.90087,9747
1659513736.939828,9796
1659513736.980325,9839
1659513737.020821,9881
1659513737.059779,9936
1659513737.098738,9979
1659513737.137697,10035
1659513737.181781,10016
1659513737.225866,9884
1659513737.26995,9707
1659513737.310446,9609
1659513737.350943,9573
1659513737.390585,9549
1659513737.430227,9579
1659513737.469868,9606
1659513737.511903,9628
1659513737.553937,9643
1659513737.592212,9676
1659513737.630487,9720
1659513737.668762,9765
1659513737.708404,9819
1659513737.748045,9865
1659513737.787688,9908
1659513737.829721,9956
1659513737.871756,10001
1659513737.910372,10040
1659513737.948989,10101
1659513737.987606,10138
1659513738.029127,10104
1659513738.070649,9934
1659513738.109607,9751
1659513738.148566,9664
1659513738.187524,9635
1659513738.225799,9610
1659513738.264074,9622
1659513738.302349,9671
1659513738.344896,9684
1659513738.387443,9713
1659513738.428708,9735
1659513738.469973,9782
1659513738.511238,9839
1659513738.552503,9888
1659513738.594025,9943
1659513738.635546,9976
1659513738.674847,10038
1659513738.714147,10088
1659513738.753447,10147
1659513738.792064,10179
1659513738.83068,10227
1659513738.869297,10248
1659513738.910819,10151
1659513738.95234,9958
1659513738.99164,9820
1659513739.030941,9756
1659513739.070241,9701
1659513739.11125,9703
1659513739.152259,9721
1659513739.190534,9752
1659513739.228809,9780
1659513739.267083,9808
1659513739.3057,9858
1659513739.344317,9908
1659513739.382934,9945
1659513739.424968,9988
1659513739.467002,10038
1659513739.508011,10086
1659513739.54902,10128
1659513739.587978,10174
1659513739.626937,10229
1659513739.665895,10272
1659513739.710321,10309
1659513739.754748,10243
1659513739.799174,10075
1659513739.833006,9939
1659513739.866839,9898
1659513739.910923,9869
1659513739.955008,9884
1659513739.999092,9913
1659513740.032412,9941
1659513740.065732,9949
1659513740.109816,9962
1659513740.153901,9990
1659513740.197985,10022
1659513740.23626,10057
1659513740.274535,10104
1659513740.31281,10154
1659513740.354845,10199
1659513740.396879,10251
1659513740.435837,10284
1659513740.474796,10328
1659513740.513754,10375
1659513740.552029,10347
1659513740.590304,10192
1659513740.628579,10006
1659513740.6701,9927
1659513740.711622,9881
1659513740.750922,9857
1659513740.790222,9858
1659513740.829523,9893
1659513740.871557,9922
1659513740.913591,9940
1659513740.952891,9955
1659513740.992191,9990
1659513741.031492,10026
1659513741.073525,10070
1659513741.11556,10111
1659513741.153835,10151
1659513741.19211,10192
1659513741.230385,10240
1659513741.272931,10267
1659513741.315478,10315
1659513741.354436,10343
1659513741.393395,10307
1659513741.432353,10133
1659513741.47285,9936
1659513741.513346,9843
1659513741.551963,9785
1659513741.59058,9755
1659513741.629196,9754
1659513741.673622,9790
1659513741.718049,9794
1659513741.762475,9800
1659513741.803997,9817
1659513741.845518,9839
1659513741.884135,9869
1659513741.922751,9910
1659513741.961368,9956
1659513742.000668,9988
1659513742.039968,10050
1659513742.079269,10077
1659513742.120278,10114
1659513742.161287,10159
1659513742.200245,10189
1659513742.239203,10136
1659513742.278162,9962
1659513742.320709,9818
1659513742.363256,9760
1659513742.401189,9732
1659513742.439122,9730
1659513742.477055,9745
1659513742.515672,9783
1659513742.554289,9791
1659513742.592905,9803
1659513742.633914,9834
1659513742.674923,9871
1659513742.713881,9926
1659513742.75284,9973
1659513742.791798,10021
1659513742.832807,10068
1659513742.873816,10122
1659513742.913116,10169
1659513742.952417,10220
1659513742.991717,10251
1659513743.032726,10190
1659513743.073735,10025
1659513743.117819,9866
1659513743.161904,9797
1659513743.205988,9761
1659513743.240333,9742
1659513743.274678,9761
1659513743.319446,9805
1659513743.364214,9815
1659513743.408982,9845
1659513743.447599,9867
1659513743.486216,9912
1659513743.524832,9957
1659513743.566354,9998
1659513743.607876,10051
1659513743.646663,10089
1659513743.685451,10155
1659513743.724238,10191
1659513743.763026,10229
1659513743.801813,10283
1659513743.840601,10313
1659513743.87956,10229
1659513743.918518,10048
1659513743.957476,9922
1659513744.001561,9863
1659513744.045645,9831
1659513744.08973,9809
1659513744.12903,9829
1659513744.16833,9870
1659513744.207631,9869
1659513744.249665,9887
1659513744.291699,9893
1659513744.330316,9924
1659513744.368932,9965
1659513744.407549,9999
1659513744.449071,10052
1659513744.490592,10090
1659513744.529892,10141
1659513744.569192,10197
1659513744.608493,10246
1659513744.64711,10283
1659513744.685726,10242
1659513744.724343,10094
1659513744.765352,9930
1659513744.806361,9853
1659513744.845661,9813
1659513744.884961,9796
1659513744.924261,9815
1659513744.965783,9856
1659513745.007304,9860
1659513745.045579,9861
1659513745.083854,9891
1659513745.122129,9919
1659513745.161429,9967
1659513745.20073,9996
1659513745.24003,10045
1659513745.282064,10081
1659513745.324098,10142
1659513745.365107,10177
1659513745.406116,10235
1659513745.444732,10272
1659513745.483349,10230
1659513745.521966,10067
1659513745.566734,9921
1659513745.611502,9847
1659513745.65627,9801
1659513745.68959,9790
1659513745.722909,9808
1659513745.766994,9858
1659513745.811079,9884
1659513745.855163,9904
1659513745.888483,9947
1659513745.921803,9972
1659513745.965545,10022
1659513746.009288,10074
1659513746.053031,10125
1659513746.091306,10170
1659513746.129581,10216
1659513746.167856,10259
1659513746.210403,10308
1659513746.252949,10369
1659513746.291566,10380
1659513746.330183,10295
1659513746.3688,10124
1659513746.4081,10002
1659513746.4474,9942
1659513746.4867,9902
1659513746.528734,9892
1659513746.570769,9921
1659513746.609385,9955
1659513746.648002,9963
1659513746.686619,9974
1659513746.728653,10005
1659513746.770687,10040
1659513746.809987,10080
1659513746.849287,10129
1659513746.888587,10173
1659513746.929596,10218
1659513746.970605,10256
1659513747.009222,10309
1659513747.047839,10351
1659513747.086455,10375
1659513747.129002,10297
1659513747.171549,10144
1659513747.210166,10030
1659513747.248782,9975
1659513747.287399,9942
1659513747.331142,9933
1659513747.374885,9960
1659513747.418628,9961
1659513747.461174,9958
1659513747.503721,9962
1659513747.54268,9988
1659513747.581638,10020
1659513747.620596,10051
1659513747.662118,10088
1659513747.703639,10130
1659513747.742939,10166
1659513747.78224,10219
1659513747.82154,10256
1659513747.860157,10299
1659513747.898773,10326
1659513747.93739,10238
1659513747.977886,10081
1659513748.018383,9964
1659513748.057341,9911
1659513748.0963,9877
1659513748.135258,9871
1659513748.177292,9910
1659513748.219326,9935
1659513748.260592,9960
1659513748.301857,9976
1659513748.343122,10012
1659513748.384387,10043
1659513748.417194,10091
1659513748.450001,10126
1659513748.494428,10181
1659513748.538854,10224
1659513748.58328,10272
1659513748.6166,10316
1659513748.64992,10365
1659513748.694688,10403
1659513748.739456,10376
1659513748.784224,10247
1659513748.822841,10113
1659513748.861457,10047
1659513748.900074,10009
1659513748.938691,9994
1659513748.977308,10013
1659513749.015924,10039
1659513749.054883,10059
1659513749.093841,10066
1659513749.1328,10087
1659513749.173808,10123
1659513749.214817,10149
1659513749.253434,10187
1659513749.292051,10226
1659513749.330667,10266
1659513749.373214,10300
1659513749.415761,10341
1659513749.454719,10381
1659513749.493678,10411
1659513749.532636,10384
1659513749.573645,10241
1659513749.614654,10100
1659513749.659081,10023
1659513749.703507,9991
1659513749.747933,9971
1659513749.782278,9996
1659513749.816623,10024
1659513749.860708,10028
1659513749.904792,10051
1659513749.948877,10056
1659513749.988177,10098
1659513750.027477,10135
1659513750.066777,10169
1659513750.107786,10224
1659513750.148795,10256
1659513750.187412,10300
1659513750.226028,10336
1659513750.264645,10370
1659513750.306679,10416
1659513750.348713,10454
1659513750.387672,10452
1659513750.42663,10333
1659513750.465589,10184
1659513750.504205,10083
1659513750.542822,10043
1659513750.581439,10015
1659513750.619714,10025
1659513750.657989,10051
1659513750.696264,10080
1659513750.741374,10087
1659513750.786484,10102
1659513750.831593,10140
1659513750.87021,10170
1659513750.908827,10209
1659513750.947443,10256
1659513750.989477,10298
1659513751.031512,10334
1659513751.070812,10377
1659513751.110112,10410
1659513751.149412,10454
1659513751.187687,10489
1659513751.225962,10458
1659513751.264237,10319
1659513751.305246,10168
1659513751.346255,10095
1659513751.385213,10048
1659513751.424172,10035
1659513751.46313,10055
1659513751.504652,10082
1659513751.546173,10103
1659513751.58479,10102
1659513751.623407,10128
1659513751.662023,10154
1659513751.70064,10192
1659513751.739257,10236
1659513751.777874,10268
1659513751.818882,10306
1659513751.859891,10342
1659513751.901413,10384
1659513751.942934,10427
1659513751.982234,10464
1659513752.021535,10411
1659513752.060835,10257
1659513752.105261,10144
1659513752.149688,10069
1659513752.194114,10031
1659513752.226921,10021
1659513752.259728,10047
1659513752.304496,10062
1659513752.349264,10080
1659513752.394032,10091
1659513752.427352,10121
1659513752.460672,10144
1659513752.504415,10176
1659513752.548157,10224
1659513752.5919,10263
1659513752.6312,10303
1659513752.670501,10341
1659513752.709801,10379
1659513752.75081,10428
1659513752.791819,10471
1659513752.831119,10498
1659513752.870419,10429
1659513752.909719,10277
1659513752.951753,10127
1659513752.993788,10050
1659513753.032746,10001
1659513753.071704,9985
1659513753.110663,10008
1659513753.14928,10040
1659513753.187896,10051
1659513753.226513,10047
1659513753.26906,10076
1659513753.311606,10109
1659513753.350565,10154
1659513753.389523,10187
1659513753.428482,10235
1659513753.469491,10272
1659513753.510499,10330
1659513753.549116,10373
1659513753.587733,10412
1659513753.62635,10468
1659513753.668384,10480
1659513753.710418,10377
1659513753.748693,10216
1659513753.786968,10121
1659513753.825243,10099
1659513753.866252,10092
1659513753.907261,10113
1659513753.945877,10137
1659513753.984494,10171
1659513754.023111,10180
1659513754.067537,10208
1659513754.111964,10235
1659513754.15639,10280
1659513754.195348,10325
1659513754.234307,10379
1659513754.273265,10426
1659513754.315299,10455
1659513754.357333,10500
1659513754.39595,10533
1659513754.434567,10581
1659513754.473183,10556
1659513754.514705,10388
1659513754.556226,10164
1659513754.594843,10012
1659513754.63346,9922
1659513754.672077,9843
1659513754.710693,9832
1659513754.74931,9846
1659513754.787927,9873
1659513754.829448,9880
1659513754.87097,9883
1659513754.909928,9921
1659513754.948887,9966
1659513754.987845,10027
1659513755.028854,10097
1659513755.069863,10167
1659513755.111384,10237
1659513755.152906,10294
1659513755.194427,10332
1659513755.235949,10376
1659513755.275249,10432
1659513755.314549,10431
1659513755.35385,10317
1659513755.395371,10157
1659513755.436893,10081
1659513755.475509,10053
1659513755.514126,10031
1659513755.552743,10052
1659513755.595289,10085
1659513755.637836,10125
1659513755.676111,10122
1659513755.714386,10156
1659513755.752661,10182
1659513755.791278,10217
1659513755.829895,10266
1659513755.868511,10304
1659513755.911571,10348
1659513755.95463,10393
1659513755.992905,10440
1659513756.03118,10487
1659513756.069455,10517
1659513756.109951,10452
1659513756.150447,10290
1659513756.195557,10184
1659513756.240667,10127
1659513756.285777,10109
1659513756.319609,10116
1659513756.353441,10157
1659513756.397868,10183
1659513756.442294,10194
1659513756.486721,10221
1659513756.52004,10252
1659513756.55336,10297
1659513756.598128,10345
1659513756.642896,10389
1659513756.687664,10439
1659513756.725597,10470
1659513756.76353,10521
1659513756.801464,10560
1659513756.844523,10604
1659513756.887583,10615
1659513756.925857,10516
1659513756.964132,10332
1659513757.002407,10224
1659513757.040682,10167
1659513757.078957,10137
1659513757.117232,10131
1659513757.158754,10167
1659513757.200275,10196
1659513757.238892,10206
1659513757.277509,10228
1659513757.316125,10256
1659513757.357647,10302
1659513757.399168,10339
1659513757.439357,10380
1659513757.479546,10434
1659513757.519735,10475
1659513757.559923,10510
1659513757.600112,10560
1659513757.638729,10594
1659513757.677346,10632
1659513757.715962,10604
1659513757.757484,10458
1659513757.799005,10298
1659513757.837964,10230
1659513757.876922,10182
1659513757.915881,10164
1659513757.956377,10190
1659513757.996873,10217
1659513758.03549,10225
1659513758.074107,10232
1659513758.112723,10258
1659513758.15527,10293
1659513758.197817,10347
1659513758.236434,10386
1659513758.27505,10426
1659513758.313667,10473
1659513758.354163,10508
1659513758.39466,10564
1659513758.439769,10600
1659513758.484879,10623
1659513758.529989,10543
1659513758.568606,10379
1659513758.607222,10279
1659513758.645839,10235
1659513758.688386,10213
1659513758.730932,10227
1659513758.770233,10275
1659513758.809533,10304
1659513758.848833,10308
1659513758.890355,10339
1659513758.931876,10368
1659513758.970151,10408
1659513759.008426,10458
1659513759.046701,10500
1659513759.086343,10532
1659513759.125985,10587
1659513759.165627,10625
1659513759.206636,10661
1659513759.247645,10703
1659513759.286261,10733
1659513759.324878,10637
1659513759.363495,10474
1659513759.405016,10342
1659513759.446538,10297
1659513759.488059,10263
1659513759.529581,10262
1659513759.568197,10304
1659513759.606814,10334
1659513759.645431,10353
1659513759.686952,10379
1659513759.728474,10423
1659513759.767774,10472
1659513759.807074,10507
1659513759.846375,10556
1659513759.885675,10600
1659513759.924975,10650
1659513759.964275,10687
1659513760.00554,10734
1659513760.046806,10792
1659513760.088071,10827
1659513760.129336,10816
1659513760.168294,10681
1659513760.207253,10535
1659513760.246211,10452
1659513760.284828,10439
1659513760.323445,10413
1659513760.362062,10445
1659513760.406488,10483
1659513760.450914,10498
1659513760.49534,10499
1659513760.528147,10522
1659513760.560955,10570
1659513760.604697,10600
1659513760.64844,10638
1659513760.692183,10676
1659513760.733705,10728
1659513760.775226,10774
1659513760.814868,10799
1659513760.85451,10831
1659513760.894152,10803
1659513760.932427,10651
1659513760.970702,10485
1659513761.008977,10402
1659513761.051011,10356
1659513761.093045,10315
1659513761.132004,10321
1659513761.170962,10349
1659513761.20992,10355
1659513761.247854,10343
1659513761.285787,10367
1659513761.32372,10390
1659513761.36678,10436
1659513761.409839,10468
1659513761.448456,10522
1659513761.487072,10557
1659513761.525689,10597
1659513761.566185,10634
1659513761.606682,10662
1659513761.645982,10688
1659513761.685282,10617
1659513761.724582,10438
1659513761.766616,10282
1659513761.80865,10227
1659513761.847267,10175
1659513761.885884,10178
1659513761.9245,10211
1659513761.966535,10239
1659513762.008569,10278
1659513762.053679,10302
1659513762.098788,10345
1659513762.143898,10372
1659513762.182173,10421
1659513762.220448,10464
1659513762.258723,10519
1659513762.300757,10553
1659513762.342791,10596
1659513762.382092,10653
1659513762.421392,10698
1659513762.460692,10723
1659513762.498967,10640
1659513762.537242,10478
1659513762.575517,10385
1659513762.617038,10375
1659513762.65856,10356
1659513762.697518,10377
1659513762.736477,10435
1659513762.775435,10450
1659513762.816957,10465
1659513762.858478,10481
1659513762.897437,10518
1659513762.936395,10545
1659513762.975354,10597
1659513763.014654,10637
1659513763.053954,10674
1659513763.093254,10715
1659513763.134263,10756
1659513763.175272,10807
1659513763.214572,10801
1659513763.253872,10669
1659513763.293173,10464
1659513763.335207,10341
1659513763.377241,10273
1659513763.415516,10221
1659513763.453791,10218
1659513763.492066,10248
1659513763.535809,10273
1659513763.579551,10262
1659513763.623294,10278
1659513763.664303,10311
1659513763.705312,10345
1659513763.744271,10384
1659513763.783229,10422
1659513763.822187,10471
1659513763.863196,10501
1659513763.904205,10563
1659513763.943164,10587
1659513763.982122,10629
1659513764.02108,10663
1659513764.060039,10594
1659513764.098997,10418
1659513764.137956,10247
1659513764.179477,10156
1659513764.220999,10090
1659513764.260299,10049
1659513764.299599,10080
1659513764.3389,10120
1659513764.380421,10140
1659513764.421942,10151
1659513764.460901,10179
1659513764.499859,10217
1659513764.538818,10265
1659513764.577776,10306
1659513764.616735,10359
1659513764.655693,10401
1659513764.69824,10461
1659513764.740787,10495
1659513764.779062,10544
1659513764.817337,10590
1659513764.855612,10628
1659513764.896621,10589
1659513764.937629,10435
1659513764.982056,10301
1659513765.026482,10251
1659513765.070908,10239
1659513765.104741,10240
1659513765.138573,10283
1659513765.182999,10326
1659513765.227426,10341
1659513765.271852,10369
1659513765.311152,10415
1659513765.350452,10464
1659513765.389753,10507
1659513765.430762,10571
1659513765.47177,10609
1659513765.510729,10654
1659513765.549687,10691
1659513765.588646,10732
1659513765.631192,10783
1659513765.673739,10809
1659513765.712356,10710
1659513765.750973,10547
1659513765.789589,10443
1659513765.827864,10395
1659513765.866139,10375
1659513765.904414,10373
1659513765.946448,10410
1659513765.988482,10450
1659513766.026757,10466
1659513766.065032,10477
1659513766.103307,10513
1659513766.144829,10566
1659513766.18635,10601
1659513766.225992,10655
1659513766.265634,10697
1659513766.305276,10742
1659513766.346285,10781
1659513766.387294,10825
1659513766.425569,10870
1659513766.463844,10908
1659513766.502119,10902
1659513766.544666,10778
1659513766.587212,10586
1659513766.626171,10479
1659513766.665129,10412
1659513766.704088,10379
1659513766.747831,10354
1659513766.791574,10396
1659513766.835316,10400
1659513766.868636,10399
1659513766.901956,10412
1659513766.94604,10441
1659513766.990125,10481
1659513767.034209,10506
1659513767.067017,10552
1659513767.099824,10596
1659513767.144592,10641
1659513767.18936,10677
1659513767.234128,10714
1659513767.272745,10767
1659513767.311361,10784
1659513767.349978,10687
1659513767.390987,10528
1659513767.431996,10431
1659513767.471638,10406
1659513767.51128,10410
1659513767.550922,10431
1659513767.592443,10477
1659513767.633965,10512
1659513767.672581,10522
1659513767.711198,10562
1659513767.749815,10603
1659513767.789115,10650
1659513767.828415,10694
1659513767.867715,10749
1659513767.910262,10793
1659513767.952809,10841
1659513767.991084,10886
1659513768.029359,10926
1659513768.067634,10970
1659513768.108643,10954
1659513768.149652,10832
1659513768.18861,10678
1659513768.227568,10608
1659513768.266527,10577
1659513768.308561,10560
1659513768.350595,10571
1659513768.389212,10611
1659513768.427829,10649
1659513768.466445,10658
1659513768.508479,10682
1659513768.550514,10720
1659513768.59494,10770
1659513768.639366,10827
1659513768.683792,10911
1659513768.722751,10981
1659513768.761709,11032
1659513768.800668,11089
1659513768.843215,11116
1659513768.885761,11144
1659513768.924378,11157
1659513768.962995,11058
1659513769.001611,10879
1659513769.04262,10756
1659513769.083629,10687
1659513769.122588,10638
1659513769.161546,10628
1659513769.200505,10635
1659513769.23878,10650
1659513769.277055,10636
1659513769.31533,10632
1659513769.356851,10635
1659513769.398372,10671
1659513769.436647,10698
1659513769.474922,10733
1659513769.513197,10771
1659513769.552498,10804
1659513769.591798,10841
1659513769.631098,10884
1659513769.672107,10922
1659513769.713116,10905
1659513769.752074,10753
1659513769.791033,10579
1659513769.829991,10498
1659513769.872538,10449
1659513769.915085,10431
1659513769.954453,10458
1659513769.993822,10493
1659513770.03319,10505
1659513770.072559,10523
1659513770.111927,10549
1659513770.154987,10572
1659513770.198046,10623
1659513770.236321,10666
1659513770.274596,10708
1659513770.312871,10758
1659513770.353367,10790
1659513770.393863,10844
1659513770.433164,10875
1659513770.472464,10915
1659513770.511764,10915
1659513770.553798,10791
1659513770.595832,10598
1659513770.633766,10484
1659513770.671699,10436
1659513770.709632,10383
1659513770.752179,10399
1659513770.794726,10425
1659513770.839494,10449
1659513770.884262,10466
1659513770.92903,10485
1659513770.967646,10519
1659513771.006263,10557
1659513771.04488,10603
1659513771.086914,10647
1659513771.128948,10708
1659513771.168248,10735
1659513771.207548,10774
1659513771.246849,10818
1659513771.287345,10861
1659513771.327841,10891
1659513771.3668,10851
1659513771.405758,10677
1659513771.444717,10507
1659513771.483333,10424
1659513771.52195,10376
1659513771.560567,10354
1659513771.602088,10380
1659513771.64361,10407
1659513771.682568,10409
1659513771.721527,10426
1659513771.760485,10436
1659513771.802519,10479
1659513771.844553,10518
1659513771.882828,10562
1659513771.921103,10596
1659513771.959378,10648
1659513771.99902,10682
1659513772.038662,10735
1659513772.078304,10783
1659513772.119826,10771
1659513772.161347,10646
1659513772.202356,10478
1659513772.243365,10385
1659513772.28164,10328
1659513772.319915,10292
1659513772.35819,10305
1659513772.402958,10343
1659513772.447726,10364
1659513772.492494,10372
1659513772.525301,10387
1659513772.558108,10430
1659513772.602535,10466
1659513772.646961,10520
1659513772.691387,10552
1659513772.723682,10599
1659513772.755976,10633
1659513772.800061,10681
1659513772.844145,10725
1659513772.88823,10768
1659513772.927188,10802
1659513772.966147,10757
1659513773.005105,10581
1659513773.047139,10376
1659513773.089174,10256
1659513773.12779,10184
1659513773.166407,10113
1659513773.205024,10125
1659513773.243982,10144
1659513773.282941,10169
1659513773.321899,10164
1659513773.364446,10192
1659513773.406992,10223
1659513773.445609,10253
1659513773.484226,10307
1659513773.522843,10345
1659513773.563339,10392
1659513773.603835,10429
1659513773.642794,10472
1659513773.681752,10517
1659513773.720711,10565
1659513773.762745,10602
1659513773.804779,10592
1659513773.843395,10444
1659513773.882012,10263
1659513773.920629,10157
1659513773.961638,10101
1659513774.002647,10061
1659513774.042289,10078
1659513774.081931,10103
1659513774.121572,10105
1659513774.165657,10105
1659513774.209742,10148
1659513774.253826,10172
1659513774.287658,10227
1659513774.321491,10264
1659513774.366259,10309
1659513774.411027,10360
1659513774.455795,10403
1659513774.497317,10454
1659513774.538838,10498
1659513774.577455,10551
1659513774.616071,10522
1659513774.654688,10384
1659513774.693647,10190
1659513774.732605,10090
1659513774.771564,10039
1659513774.813085,9984
1659513774.854607,9995
1659513774.893223,10033
1659513774.93184,10056
1659513774.970457,10066
1659513775.009415,10100
1659513775.048374,10136
1659513775.087332,10176
1659513775.128341,10232
1659513775.16935,10275
1659513775.209539,10334
1659513775.249727,10378
1659513775.289916,10429
1659513775.330105,10467
1659513775.370294,10524
1659513775.40891,10550
1659513775.447527,10474
1659513775.486144,10297
1659513775.527153,10147
1659513775.568161,10085
1659513775.60712,10029
1659513775.646078,10014
1659513775.685037,10053
1659513775.729121,10094
1659513775.773206,10108
1659513775.817291,10106
1659513775.850098,10135
1659513775.882905,10166
1659513775.927673,10222
1659513775.972441,10268
1659513776.017209,10315
1659513776.058218,10378
1659513776.099227,10420
1659513776.137502,10458
1659513776.175777,10477
1659513776.214052,10436
1659513776.254035,10248
1659513776.294019,10073
1659513776.334003,9965
1659513776.375524,9907
1659513776.417046,9881
1659513776.455321,9907
1659513776.493596,9943
1659513776.531871,9962
1659513776.574417,9981
1659513776.616964,10005
1659513776.656264,10043
1659513776.695565,10078
1659513776.734865,10120
1659513776.773481,10176
1659513776.812098,10217
1659513776.850715,10270
1659513776.891724,10322
1659513776.932733,10378
1659513776.971349,10404
1659513777.009966,10335
1659513777.048583,10148
1659513777.090104,10026
1659513777.131626,9987
1659513777.170584,9956
1659513777.209543,9967
1659513777.248501,10012
1659513777.290023,10038
1659513777.331544,10057
1659513777.375629,10070
1659513777.419713,10102
1659513777.463798,10147
1659513777.49763,10192
1659513777.531462,10242
1659513777.576572,10284
1659513777.621682,10334
1659513777.666792,10384
1659513777.705409,10431
1659513777.744025,10445
1659513777.782642,10332
1659513777.824676,10156
1659513777.86671,10054
1659513777.905669,10025
1659513777.944627,10005
1659513777.983586,10033
1659513778.021861,10079
1659513778.060136,10106
1659513778.098411,10124
1659513778.139932,10150
1659513778.181454,10200
1659513778.220412,10245
1659513778.259371,10301
1659513778.298329,10353
1659513778.338825,10408
1659513778.379322,10454
1659513778.41828,10498
1659513778.457238,10547
1659513778.496197,10588
1659513778.534814,10550
1659513778.57343,10373
1659513778.612047,10207
1659513778.654081,10129
1659513778.696115,10093
1659513778.734732,10074
1659513778.773349,10112
1659513778.811965,10157
1659513778.853487,10183
1659513778.895008,10211
1659513778.939093,10240
1659513778.983178,10295
1659513779.027262,10343
1659513779.061095,10392
1659513779.094927,10439
1659513779.139353,10484
1659513779.183779,10516
1659513779.228206,10561
1659513779.261013,10599
1659513779.29382,10637
1659513779.337563,10640
1659513779.381306,10502
1659513779.425048,10317
1659513779.464349,10209
1659513779.503649,10155
1659513779.542949,10124
1659513779.584983,10137
1659513779.627017,10184
1659513779.665976,10196
1659513779.704934,10212
1659513779.743893,10237
1659513779.785414,10277
1659513779.826936,10327
1659513779.866578,10365
1659513779.906219,10417
1659513779.945862,10467
1659513779.98482,10514
1659513780.023778,10551
1659513780.062737,10577
1659513780.103746,10559
1659513780.144755,10425
1659513780.186789,10230
1659513780.228823,10136
1659513780.270857,10112
1659513780.312891,10101
1659513780.353387,10129
1659513780.393884,10174
1659513780.434278,10197
1659513780.474671,10217
1659513780.515065,10247
1659513780.555459,10293
1659513780.595853,10333
1659513780.634128,10379
1659513780.672402,10416
1659513780.710677,10465
1659513780.752199,10506
1659513780.79372,10559
1659513780.833362,10612
1659513780.873004,10643
1659513780.912646,10566
1659513780.950921,10379
1659513780.989196,10244
1659513781.027471,10186
1659513781.068993,10143
1659513781.110514,10141
1659513781.150156,10177
1659513781.189798,10217
1659513781.22944,10238
1659513781.267373,10255
1659513781.305306,10300
1659513781.34324,10348
1659513781.384761,10403
1659513781.426283,10445
1659513781.464558,10499
1659513781.502833,10541
1659513781.541108,10592
1659513781.583142,10639
1659513781.625176,10700
1659513781.663451,10683
1659513781.701726,10556
1659513781.740001,10356
1659513781.782035,10246
1659513781.824069,10183
1659513781.868495,10148
1659513781.912922,10171
1659513781.957348,10199
1659513781.995965,10231
1659513782.034581,10247
1659513782.073198,10259
1659513782.116257,10274
1659513782.159317,10320
1659513782.197934,10376
1659513782.23655,10425
1659513782.275167,10470
1659513782.315663,10508
1659513782.35616,10551
1659513782.39546,10601
1659513782.43476,10620
1659513782.47406,10529
1659513782.513019,10361
1659513782.551977,10256
1659513782.590935,10209
1659513782.632457,10204
1659513782.673979,10210
1659513782.712595,10246
1659513782.751212,10267
1659513782.789829,10272
1659513782.83135,10295
1659513782.872872,10331
1659513782.91183,10372
1659513782.950788,10407
1659513782.989747,10459
1659513783.029047,10497
1659513783.068347,10553
1659513783.107648,10598
1659513783.149169,10627
1659513783.190691,10594
1659513783.232725,10431
1659513783.274759,10280
1659513783.314059,10213
1659513783.353359,10169
1659513783.392659,10146
1659513783.434181,10176
1659513783.475703,10199
1659513783.514319,10205
1659513783.552936,10213
1659513783.591553,10234
1659513783.635979,10269
1659513783.680405,10314
1659513783.724832,10357
1659513783.758664,10396
1659513783.792496,10456
1659513783.836581,10490
1659513783.880665,10543
1659513783.92475,10599
1659513783.963025,10599
1659513784.0013,10496
1659513784.039575,10318
1659513784.081609,10214
1659513784.123643,10165
1659513784.16226,10134
1659513784.200876,10147
1659513784.239493,10201
1659513784.281528,10243
1659513784.323561,10274
1659513784.362178,10315
1659513784.400795,10344
1659513784.439412,10401
1659513784.47837,10437
1659513784.517329,10494
1659513784.556287,10526
1659513784.596783,10572
1659513784.63728,10601
1659513784.676238,10638
1659513784.715197,10670
1659513784.754155,10657
1659513784.796189,10522
1659513784.838223,10379
1659513784.876157,10293
1659513784.91409,10259
1659513784.952023,10256
1659513784.993544,10273
1659513785.035066,10300
1659513785.074366,10308
1659513785.113666,10312
1659513785.152966,10329
1659513785.197051,10372
1659513785.241136,10412
1659513785.28522,10440
1659513785.319052,10479
1659513785.352885,10523
1659513785.397653,10562
1659513785.442421,10598
1659513785.487189,10638
1659513785.528198,10670
1659513785.569207,10579
1659513785.607482,10393
1659513785.645757,10257
1659513785.684032,10193
1659513785.724221,10139
1659513785.764409,10135
1659513785.804598,10165
1659513785.844787,10189
1659513785.884975,10216
1659513785.923934,10239
1659513785.962892,10268
1659513786.001851,10301
1659513786.043372,10347
1659513786.084894,10390
1659513786.123169,10444
1659513786.161444,10488
1659513786.199719,10529
1659513786.241753,10581
1659513786.283787,10622
1659513786.323429,10666
1659513786.363071,10701
1659513786.402713,10622
1659513786.441329,10473
1659513786.479946,10365
1659513786.518563,10317
1659513786.560597,10293
1659513786.602631,10301
1659513786.642273,10336
1659513786.681915,10374
1659513786.721557,10384
1659513786.762053,10405
1659513786.80255,10447
1659513786.846292,10480
1659513786.890035,10518
1659513786.933778,10554
1659513786.967098,10590
1659513787.000417,10625
1659513787.044502,10660
1659513787.088587,10689
1659513787.132671,10728
1659513787.165991,10764
1659513787.199311,10797
1659513787.243737,10738
1659513787.288163,10603
1659513787.33259,10474
1659513787.371206,10430
1659513787.409823,10416
1659513787.44844,10407
1659513787.489449,10462
1659513787.530457,10501
1659513787.570099,10512
1659513787.609741,10524
1659513787.649383,10566
1659513787.690905,10602
1659513787.732426,10648
1659513787.771043,10682
1659513787.80966,10716
1659513787.848276,10754
1659513787.886893,10787
1659513787.92551,10824
1659513787.964127,10858
1659513788.006161,10856
1659513788.048195,10748
1659513788.08647,10568
1659513788.124745,10445
1659513788.16302,10389
1659513788.204029,10333
1659513788.245038,10328
1659513788.283654,10355
1659513788.322271,10365
1659513788.360888,10369
1659513788.402922,10375
1659513788.444956,10407
1659513788.483573,10432
1659513788.522189,10466
1659513788.560806,10502
1659513788.605574,10542
1659513788.650342,10589
1659513788.69511,10622
1659513788.72843,10661
1659513788.76175,10699
1659513788.806176,10731
1659513788.850602,10660
1659513788.895029,10479
1659513788.933645,10331
1659513788.972262,10249
1659513789.010879,10211
1659513789.049837,10184
1659513789.088796,10210
1659513789.127754,10245
1659513789.169788,10263
1659513789.211822,10273
1659513789.251122,10303
1659513789.290423,10329
1659513789.329723,10369
1659513789.370219,10410
1659513789.410716,10443
1659513789.449674,10492
1659513789.488632,10541
1659513789.527591,10578
1659513789.567575,10617
1659513789.607558,10668
1659513789.647542,10689
1659513789.688551,10606
1659513789.72956,10419
1659513789.770569,10286
1659513789.811578,10249
1659513789.850878,10224
1659513789.890178,10234
1659513789.929478,10268
1659513789.973221,10284
1659513790.016964,10294
1659513790.060707,10312
1659513790.100007,10336
1659513790.139307,10371
1659513790.178607,10417
1659513790.219104,10459
1659513790.2596,10502
1659513790.298217,10539
1659513790.336833,10595
1659513790.37545,10648
1659513790.413383,10692
1659513790.451316,10673
1659513790.48925,10537
1659513790.532309,10396
1659513790.575368,10318
1659513790.613643,10295
1659513790.651918,10279
1659513790.690193,10303
1659513790.72881,10338
1659513790.767427,10361
1659513790.806043,10378
1659513790.848078,10399
1659513790.890112,10446
1659513790.931462,10483
1659513790.972813,10541
1659513791.014163,10570
1659513791.055514,10613
1659513791.096865,10662
1659513791.138216,10697
1659513791.177516,10737
1659513791.216816,10780
1659513791.256116,10804
1659513791.294733,10702
1659513791.333349,10531
1659513791.371966,10389
1659513791.412462,10334
1659513791.452959,10293
1659513791.492259,10282
1659513791.531559,10311
1659513791.570859,10348
1659513791.609134,10350
1659513791.647409,10364
1659513791.685684,10391
1659513791.728231,10423
1659513791.770778,10464
1659513791.812812,10490
1659513791.854846,10536
1659513791.893463,10567
1659513791.932079,10619
1659513791.970696,10648
1659513792.012218,10695
1659513792.053739,10732
1659513792.093381,10731
1659513792.133023,10614
1659513792.172665,10429
1659513792.217433,10321
1659513792.262201,10269
1659513792.306969,10244
1659513792.339264,10240
1659513792.371558,10288
1659513792.416326,10296
1659513792.461094,10296
1659513792.505862,10318
1659513792.544137,10344
1659513792.582412,10389
1659513792.620687,10426
1659513792.662209,10472
1659513792.70373,10510
1659513792.742689,10550
1659513792.781647,10591
1659513792.820606,10641
1659513792.86264,10674
1659513792.904674,10609
1659513792.94329,10444
1659513792.981907,10303
1659513793.020524,10226
1659513793.059482,10181
1659513793.098441,10162
1659513793.137399,10186
1659513793.179946,10215
1659513793.222493,10224
1659513793.261109,10231
1659513793.299726,10266
1659513793.338343,10298
1659513793.379864,10334
1659513793.421386,10386
1659513793.460003,10424
1659513793.498619,10471
1659513793.537236,10523
1659513793.57927,10557
1659513793.621304,10596
1659513793.659921,10638
1659513793.698538,10667
1659513793.737154,10615
1659513793.777651,10452
1659513793.818147,10313
1659513793.857105,10227
1659513793.896064,10180
1659513793.935022,10155
1659513793.979107,10180
1659513794.023191,10202
1659513794.067276,10217
1659513794.109823,10230
1659513794.152369,10240
1659513794.190986,10270
1659513794.229603,10313
1659513794.26822,10350
1659513794.309229,10391
1659513794.350238,10443
1659513794.389196,10478
1659513794.428154,10514
1659513794.467113,10548
1659513794.506071,10588
1659513794.54503,10630
1659513794.583988,10649
1659513794.62551,10565
1659513794.667031,10384
1659513794.70599,10261
1659513794.744948,10188
1659513794.783907,10146
1659513794.825428,10139
1659513794.86695,10166
1659513794.905566,10182
1659513794.944183,10194
1659513794.9828,10211
1659513795.022442,10240
1659513795.062084,10277
1659513795.101726,10324
1659513795.14376,10370
1659513795.185794,10415
1659513795.224069,10451
1659513795.262344,10501
1659513795.300619,10544
1659513795.342653,10582
1659513795.384687,10635
1659513795.429797,10657
1659513795.474906,10580
1659513795.520016,10404
1659513795.553336,10262
1659513795.586656,10184
1659513795.63074,10125
1659513795.674825,10095
1659513795.71891,10114
1659513795.752229,10149
1659513795.785549,10165
1659513795.829633,10175
1659513795.873718,10205
1659513795.917803,10237
1659513795.956761,10287
1659513795.99572,10324
1659513796.034678,10360
1659513796.076712,10419
1659513796.118746,10469
1659513796.157363,10502
1659513796.19598,10557
1659513796.234596,10601
1659513796.273213,10641
1659513796.31183,10689
1659513796.350446,10716
1659513796.389405,10649
1659513796.428364,10475
1659513796.467322,10312
1659513796.508843,10241
1659513796.550365,10187
1659513796.589324,10155
1659513796.628282,10180
1659513796.66724,10210
1659513796.708249,10214
1659513796.749258,10231
1659513796.793343,10256
1659513796.837427,10290
1659513796.881512,10328
1659513796.920129,10365
1659513796.958745,10420
1659513796.997362,10461
1659513797.039909,10515
1659513797.082455,10562
1659513797.120389,10599
1659513797.158322,10642
1659513797.196255,10676
1659513797.234872,10677
1659513797.273489,10560
1659513797.312105,10389
1659513797.354139,10312
1659513797.396173,10281
1659513797.43479,10281
1659513797.473407,10337
1659513797.512024,10393
1659513797.55457,10437
1659513797.597117,10461
1659513797.636417,10473
1659513797.675718,10490
1659513797.715018,10512
1659513797.753634,10516
1659513797.792251,10508
1659513797.830868,10502
1659513797.871877,10483
1659513797.912886,10484
1659513797.952528,10476
1659513797.99217,10475
1659513798.031811,10497
1659513798.07282,10509
1659513798.113829,10455
1659513798.152446,10231
1659513798.191063,9968
1659513798.229679,9796
1659513798.271201,9692
1659513798.312722,9597
1659513798.357491,9575
1659513798.402259,9597
1659513798.447026,9609
1659513798.480346,9595
1659513798.513666,9595
1659513798.558434,9602
1659513798.603202,9629
1659513798.64797,9685
1659513798.686929,9745
1659513798.725887,9797
1659513798.764846,9860
1659513798.806367,9899
1659513798.847888,9941
1659513798.887189,9975
1659513798.926489,10005
1659513798.965789,10009
1659513799.004748,9910
1659513799.043706,9681
1659513799.082664,9530
1659513799.123161,9474
1659513799.163657,9438
1659513799.202274,9420
1659513799.240891,9430
1659513799.279507,9389
1659513799.321541,9344
1659513799.363575,9314
1659513799.402192,9313
1659513799.440809,9323
1659513799.479426,9345
1659513799.518042,9412
1659513799.556659,9512
1659513799.595276,9579
1659513799.63731,9651
1659513799.679344,9749
1659513799.721378,9818
1659513799.763412,9829
1659513799.801687,9709
1659513799.839962,9551
1659513799.878237,9484
1659513799.923005,9465
1659513799.967773,9453
1659513800.012541,9498
1659513800.045348,9550
1659513800.078156,9584
1659513800.121898,9603
1659513800.165641,9649
1659513800.209384,9702
1659513800.248343,9754
1659513800.287301,9814
1659513800.326259,9866
1659513800.368294,9923
1659513800.410328,9970
1659513800.448261,10015
1659513800.486194,10067
1659513800.524127,10131
1659513800.565649,10137
1659513800.60717,10020
1659513800.646471,9811
1659513800.685771,9697
1659513800.725071,9652
1659513800.763346,9595
1659513800.801621,9586
1659513800.839896,9623
1659513800.882955,9657
1659513800.926015,9666
1659513800.964973,9699
1659513801.003932,9725
1659513801.04289,9759
1659513801.083899,9808
1659513801.124908,9850
1659513801.164208,9900
1659513801.203508,9951
1659513801.242808,9998
1659513801.284842,10044
1659513801.326877,10092
1659513801.365151,10141
1659513801.403426,10120
1659513801.441701,9975
1659513801.483394,9814
1659513801.525086,9729
1659513801.566779,9680
1659513801.608471,9658
1659513801.650163,9668
1659513801.691856,9710
1659513801.730814,9726
1659513801.769773,9750
1659513801.808731,9773
1659513801.84769,9814
1659513801.886648,9860
1659513801.925606,9914
1659513801.967128,9966
1659513802.00865,10021
1659513802.047266,10069
1659513802.085883,10114
1659513802.1245,10172
1659513802.166534,10224
1659513802.208568,10222
1659513802.246843,10091
1659513802.285118,9918
1659513802.323393,9816
1659513802.365427,9763
1659513802.407461,9730
1659513802.446078,9727
1659513802.484694,9781
1659513802.523311,9803
1659513802.567396,9827
1659513802.61148,9839
1659513802.655565,9869
1659513802.696061,9920
1659513802.736557,9962
1659513802.775858,10019
1659513802.815158,10064
1659513802.854458,10119
1659513802.896492,10169
1659513802.938526,10217
1659513802.977143,10268
1659513803.01576,10316
1659513803.054376,10361
1659513803.093335,10267
1659513803.132293,10085
1659513803.171252,9941
1659513803.213286,9877
1659513803.25532,9821
1659513803.293595,9798
1659513803.33187,9819
1659513803.370145,9862
1659513803.412179,9866
1659513803.454213,9882
1659513803.49283,9906
1659513803.531447,9940
1659513803.570063,9986
1659513803.60868,10027
1659513803.647297,10073
1659513803.685914,10122
1659513803.72641,10169
1659513803.766906,10216
1659513803.80689,10259
1659513803.846874,10306
1659513803.886857,10351
1659513803.927866,10379
1659513803.968875,10306
1659513804.013301,10121
1659513804.057728,9981
1659513804.102154,9923
1659513804.135473,9889
1659513804.168793,9867
1659513804.213561,9892
1659513804.258329,9913
1659513804.303097,9928
1659513804.336417,9941
1659513804.369737,9963
1659513804.414505,9981
1659513804.459273,10032
1659513804.504041,10072
1659513804.542658,10119
1659513804.581275,10162
1659513804.619891,10205
1659513804.6609,10252
1659513804.701909,10293
1659513804.741209,10335
1659513804.780509,10370
1659513804.81981,10313
1659513804.861331,10119
1659513804.902853,9955
1659513804.941128,9856
1659513804.979403,9788
1659513805.017678,9749
1659513805.056978,9755
1659513805.096278,9782
1659513805.135578,9801
1659513805.177612,9801
1659513805.219646,9822
1659513805.257921,9861
1659513805.296196,9896
1659513805.334471,9946
1659513805.375993,9990
1659513805.417514,10037
1659513805.456815,10091
1659513805.496115,10140
1659513805.535415,10183
1659513805.576936,10230
1659513805.618458,10277
1659513805.657075,10318
1659513805.695691,10280
1659513805.734308,10088
1659513805.77583,9913
1659513805.817351,9820
1659513805.855284,9775
1659513805.893218,9741
1659513805.931151,9772
1659513805.974894,9803
1659513806.018636,9814
1659513806.062379,9833
1659513806.104926,9840
1659513806.147473,9878
1659513806.18609,9916
1659513806.224706,9961
1659513806.263323,10005
1659513806.302281,10055
1659513806.34124,10106
1659513806.380198,10141
1659513806.422232,10206
1659513806.464267,10250
1659513806.502883,10299
1659513806.5415,10246
1659513806.580117,10075
1659513806.621638,9930
1659513806.66316,9880
1659513806.701947,9848
1659513806.740735,9855
1659513806.779522,9894
1659513806.81831,9923
1659513806.857098,9936
1659513806.895885,9937
1659513806.940311,9970
1659513806.984738,10008
1659513807.029164,10050
1659513807.068122,10095
1659513807.107081,10147
1659513807.146039,10194
1659513807.184314,10241
1659513807.222589,10289
1659513807.260864,10328
1659513807.303411,10373
1659513807.345958,10378
1659513807.385258,10236
1659513807.424558,10030
1659513807.463858,9915
1659513807.504867,9838
1659513807.545876,9797
1659513807.584835,9773
1659513807.623793,9797
1659513807.662751,9827
1659513807.70171,9830
1659513807.740669,9843
1659513807.779627,9873
1659513807.821148,9908
1659513807.86267,9944
1659513807.901287,9982
1659513807.939903,10020
1659513807.97852,10070
1659513808.020041,10118
1659513808.061563,10172
1659513808.10018,10218
1659513808.138797,10268
1659513808.177413,10283
1659513808.221498,10154
1659513808.265582,9967
1659513808.309667,9846
1659513808.352214,9802
1659513808.39476,9766
1659513808.433377,9768
1659513808.471994,9797
1659513808.510611,9814
1659513808.552132,9821
1659513808.593653,9830
1659513808.632954,9859
1659513808.672254,9890
1659513808.711554,9932
1659513808.750171,9975
1659513808.788788,10012
1659513808.827404,10055
1659513808.868926,10099
1659513808.910447,10140
1659513808.949064,10183
1659513808.987681,10177
1659513809.026297,10022
1659513809.067306,9846
1659513809.108315,9750
1659513809.146932,9701
1659513809.185549,9672
1659513809.224165,9685
1659513809.263466,9717
1659513809.302766,9746
1659513809.342066,9758
1659513809.383588,9785
1659513809.425109,9823
1659513809.463384,9856
1659513809.501659,9898
1659513809.539934,9938
1659513809.581455,9986
1659513809.622977,10037
1659513809.667745,10082
1659513809.712513,10126
1659513809.757281,10182
1659513809.791113,10207
1659513809.824946,10128
1659513809.869714,9937
1659513809.914482,9795
1659513809.95925,9724
1659513809.99257,9686
1659513810.025889,9674
1659513810.069632,9699
1659513810.113375,9753
1659513810.157118,9766
1659513810.196418,9795
1659513810.235718,9818
1659513810.275018,9854
1659513810.31654,9906
1659513810.358062,9960
1659513810.396678,10014
1659513810.435295,10062
1659513810.473912,10115
1659513810.512187,10158
1659513810.550462,10215
1659513810.588737,10259
1659513810.631796,10293
1659513810.674855,10257
1659513810.713814,10088
1659513810.752772,9927
1659513810.791731,9875
1659513810.83274,9819
1659513810.873748,9783
1659513810.91339,9792
1659513810.953032,9831
1659513810.992674,9869
1659513811.034708,9889
1659513811.076742,9919
1659513811.115359,9955
1659513811.153976,10013
1659513811.192593,10040
1659513811.234114,10103
1659513811.275635,10138
1659513811.314252,10177
1659513811.352869,10218
1659513811.391486,10254
1659513811.433007,10259
1659513811.474529,10151
1659513811.513487,9953
1659513811.552446,9820
1659513811.591404,9790
1659513811.635489,9777
1659513811.679573,9821
1659513811.723658,9900
1659513811.764667,9967
1659513811.805676,10000
1659513811.844634,10030
1659513811.883593,10046
1659513811.922551,10079
1659513811.96233,10108
1659513812.002108,10143
1659513812.041887,10183
1659513812.081666,10220
1659513812.121444,10249
1659513812.163478,10297
1659513812.205512,10329
1659513812.244129,10355
1659513812.282746,10277
1659513812.321362,10080
1659513812.359637,9900
1659513812.397913,9805
1659513812.436188,9723
1659513812.478734,9670
1659513812.521281,9683
1659513812.560239,9681
1659513812.599198,9674
1659513812.638156,9667
1659513812.678653,9671
1659513812.719149,9694
1659513812.758449,9732
1659513812.797749,9764
1659513812.837049,9818
1659513812.876008,9851
1659513812.914966,9905
1659513812.953925,9951
1659513812.996472,10004
1659513813.039018,10033
1659513813.077635,9949
1659513813.116252,9772
1659513813.154868,9654
1659513813.196903,9590
1659513813.238937,9554
1659513813.280971,9560
1659513813.323005,9610
1659513813.361963,9633
1659513813.400922,9634
1659513813.43988,9653
1659513813.484307,9686
1659513813.528733,9715
1659513813.573159,9770
1659513813.605966,9808
1659513813.638773,9845
1659513813.682516,9903
1659513813.726259,9951
1659513813.770002,9988
1659513813.803834,9970
1659513813.837667,9819
1659513813.882093,9619
1659513813.926519,9511
1659513813.970946,9431
1659513814.009904,9389
1659513814.048862,9407
1659513814.087821,9430
1659513814.129342,9432
1659513814.170864,9441
1659513814.210164,9450
1659513814.249464,9466
1659513814.288764,9506
1659513814.330286,9543
1659513814.371808,9582
1659513814.409484,9633
1659513814.447161,9679
1659513814.484838,9737
1659513814.522515,9777
1659513814.564037,9813
1659513814.605558,9775
1659513814.646055,9588
1659513814.686551,9401
1659513814.725168,9301
1659513814.763784,9231
1659513814.802401,9187
1659513814.846827,9206
1659513814.891253,9224
1659513814.93568,9234
1659513814.968487,9244
1659513815.001294,9249
1659513815.04572,9260
1659513815.090147,9289
1659513815.134573,9303
1659513815.173873,9332
1659513815.213173,9358
1659513815.252474,9377
1659513815.293995,9419
1659513815.335517,9459
1659513815.374133,9503
1659513815.41275,9533
1659513815.451367,9482
1659513815.493914,9303
1659513815.53646,9168
1659513815.574735,9073
1659513815.61301,9032
1659513815.651285,9023
1659513815.68956,9063
1659513815.727835,9078
1659513815.76611,9090
1659513815.80917,9115
1659513815.852229,9145
1659513815.890504,9198
1659513815.928779,9237
1659513815.967054,9291
1659513816.00755,9354
1659513816.048046,9413
1659513816.090593,9465
1659513816.13314,9527
1659513816.175687,9596
1659513816.218233,9652
1659513816.256508,9669
1659513816.294783,9561
1659513816.333058,9441
1659513816.372358,9389
1659513816.411659,9345
1659513816.450959,9331
1659513816.493505,9348
1659513816.536052,9379
1659513816.574669,9387
1659513816.613286,9378
1659513816.651902,9394
1659513816.693936,9426
1659513816.73597,9471
1659513816.774929,9508
1659513816.813888,9551
1659513816.852846,9589
1659513816.894367,9629
1659513816.935889,9668
1659513816.974506,9710
1659513817.013122,9762
1659513817.051739,9825
1659513817.096507,9872
1659513817.141275,9914
1659513817.186043,9826
1659513817.222951,9644
1659513817.259859,9501
1659513817.296767,9441
1659513817.333675,9374
1659513817.372976,9351
1659513817.412276,9381
1659513817.451576,9399
1659513817.492585,9412
1659513817.533594,9408
1659513817.577678,9435
1659513817.621763,9470
1659513817.665847,9516
1659513817.704806,9563
1659513817.743764,9610
1659513817.782723,9664
1659513817.824757,9701
1659513817.866791,9770
1659513817.905066,9811
1659513817.943341,9868
1659513817.981616,9921
1659513818.023137,9884
1659513818.064659,9721
1659513818.103276,9577
1659513818.141892,9496
1659513818.180509,9458
1659513818.218784,9447
1659513818.257059,9467
1659513818.295334,9509
1659513818.337368,9524
1659513818.379402,9530
1659513818.418361,9557
1659513818.457319,9601
1659513818.496278,9641
1659513818.535236,9712
1659513818.574194,9750
1659513818.613153,9809
1659513818.654675,9868
1659513818.696196,9920
1659513818.735496,9973
1659513818.774796,10037
1659513818.814096,10096
1659513818.856131,10107
1659513818.898165,9976
1659513818.942249,9771
1659513818.986334,9643
1659513819.030418,9536
1659513819.069035,9423
1659513819.107652,9386
1659513819.146269,9388
1659513819.187278,9401
1659513819.228287,9402
1659513819.266903,9413
1659513819.30552,9434
1659513819.344137,9471
1659513819.383779,9520
1659513819.42342,9563
1659513819.463062,9626
1659513819.504071,9676
1659513819.54508,9724
1659513819.584039,9776
1659513819.622997,9825
1659513819.661956,9879
1659513819.70399,9938
1659513819.746024,9914
1659513819.785324,9737
1659513819.824624,9540
1659513819.863925,9446
1659513819.902541,9393
1659513819.941158,9358
1659513819.979774,9370
1659513820.021809,9410
1659513820.063843,9440
1659513820.102118,9444
1659513820.140393,9464
1659513820.178668,9488
1659513820.220189,9513
1659513820.261711,9575
1659513820.306137,9627
1659513820.350563,9674
1659513820.39499,9727
1659513820.427797,9784
1659513820.460604,9835
1659513820.504347,9892
1659513820.54809,9936
1659513820.591832,9866
1659513820.625665,9687
1659513820.659497,9517
1659513820.704265,9448
1659513820.749033,9404
1659513820.793801,9400
1659513820.832076,9436
1659513820.870351,9476
1659513820.908626,9490
1659513820.950148,9504
1659513820.991669,9538
1659513821.030627,9583
1659513821.069586,9623
1659513821.108545,9675
1659513821.146478,9716
1659513821.184411,9766
1659513821.222344,9819
1659513821.264891,9872
1659513821.307438,9935
1659513821.346054,9983
1659513821.384671,10020
1659513821.423288,9951
1659513821.463784,9731
1659513821.50428,9526
1659513821.543239,9443
1659513821.582197,9377
1659513821.621156,9334
1659513821.66319,9364
1659513821.705224,9392
1659513821.743841,9384
1659513821.782457,9380
1659513821.821074,9399
1659513821.863108,9445
1659513821.905142,9511
1659513821.944443,9575
1659513821.983743,9645
1659513822.023043,9700
1659513822.067127,9780
1659513822.111212,9832
1659513822.155297,9894
1659513822.189129,9952
1659513822.222961,10010
1659513822.267729,9965
1659513822.312497,9772
1659513822.357265,9596
1659513822.38956,9527
1659513822.421854,9476
1659513822.465529,9456
1659513822.509203,9473
1659513822.552878,9510
1659513822.596552,9519
1659513822.640227,9524
1659513822.678502,9547
1659513822.716777,9586
1659513822.755052,9632
1659513822.79401,9670
1659513822.832969,9731
1659513822.871927,9776
1659513822.913961,9823
1659513822.955995,9883
1659513822.994612,9933
1659513823.033229,9945
1659513823.071846,9817
1659513823.111146,9614
1659513823.150446,9513
1659513823.189746,9464
1659513823.23178,9429
1659513823.273814,9450
1659513823.312431,9492
1659513823.351048,9522
1659513823.389665,9518
1659513823.430161,9543
1659513823.470657,9576
1659513823.509957,9618
1659513823.549258,9663
1659513823.588558,9710
1659513823.629567,9771
1659513823.670576,9825
1659513823.709192,9880
1659513823.747809,9935
1659513823.786426,9987
1659513823.83051,9939
1659513823.874595,9760
1659513823.918679,9573
1659513823.960201,9470
1659513824.001722,9418
1659513824.040681,9365
1659513824.079639,9383
1659513824.118598,9409
1659513824.160119,9425
1659513824.201641,9438
1659513824.240599,9452
1659513824.279558,9488
1659513824.318516,9511
1659513824.357475,9571
1659513824.396433,9615
1659513824.435391,9670
1659513824.477426,9714
1659513824.51946,9759
1659513824.558418,9813
1659513824.597377,9866
1659513824.636335,9908
1659513824.67461,9832
1659513824.712885,9625
1659513824.75116,9453
1659513824.792169,9367
1659513824.833178,9291
1659513824.872478,9251
1659513824.911778,9281
1659513824.951078,9317
1659513824.9926,9317
1659513825.034122,9319
1659513825.072738,9333
1659513825.111355,9370
1659513825.149971,9423
1659513825.192518,9453
1659513825.235065,9510
1659513825.27915,9560
1659513825.323234,9603
1659513825.367319,9650
1659513825.406277,9695
1659513825.445236,9752
1659513825.484194,9761
1659513825.526741,9631
1659513825.569288,9423
1659513825.608246,9301
1659513825.647204,9247
1659513825.686163,9217
1659513825.724438,9238
1659513825.762713,9272
1659513825.800988,9284
1659513825.843022,9294
1659513825.885056,9322
1659513825.923673,9365
1659513825.96229,9407
1659513826.000906,9470
1659513826.040206,9518
1659513826.079507,9578
1659513826.118807,9626
1659513826.160841,9674
1659513826.202875,9727
1659513826.241492,9777
1659513826.280108,9826
1659513826.318725,9762
1659513826.359734,9552
1659513826.400743,9396
1659513826.440385,9322
1659513826.480027,9253
1659513826.519669,9225
1659513826.56119,9258
1659513826.602712,9303
1659513826.640987,9312
1659513826.679262,9323
1659513826.717537,9351
1659513826.758546,9390
1659513826.799555,9429
1659513826.843639,9481
1659513826.887724,9547
1659513826.931808,9592
1659513826.970425,9627
1659513827.009042,9664
1659513827.047658,9710
1659513827.08918,9761
1659513827.130701,9809
1659513827.169318,9776
1659513827.207935,9578
1659513827.246552,9382
1659513827.285168,9271
1659513827.323785,9215
1659513827.362402,9183
1659513827.404948,9201
1659513827.447495,9232
1659513827.486454,9253
1659513827.525412,9255
1659513827.564371,9274
1659513827.605379,9297
1659513827.646388,9335
1659513827.685347,9374
1659513827.724305,9406
1659513827.763264,9448
1659513827.802222,9495
1659513827.841181,9544
1659513827.880139,9592
1659513827.924565,9647
1659513827.968992,9691
1659513828.013418,9733
1659513828.046738,9728
1659513828.080057,9579
1659513828.124825,9417
1659513828.169594,9320
1659513828.214362,9253
1659513828.254858,9193
1659513828.295354,9193
1659513828.334654,9220
1659513828.373955,9226
1659513828.413255,9229
1659513828.452213,9234
1659513828.491172,9252
1659513828.53013,9288
1659513828.572164,9320
1659513828.614198,9354
1659513828.653157,9405
1659513828.692115,9454
1659513828.731074,9501
1659513828.773108,9545
1659513828.815142,9584
1659513828.853759,9638
1659513828.892375,9684
1659513828.930992,9726
1659513828.970292,9689
1659513829.009593,9552
1659513829.048893,9395
1659513829.090414,9336
1659513829.131936,9277
1659513829.170552,9245
1659513829.209169,9268
1659513829.247786,9296
1659513829.288282,9315
1659513829.328779,9330
1659513829.36842,9357
1659513829.408062,9396
1659513829.447704,9441
1659513829.489226,9474
1659513829.530747,9522
1659513829.574832,9559
1659513829.618917,9597
1659513829.663001,9634
1659513829.701618,9690
1659513829.740234,9741
1659513829.778851,9778
1659513829.820885,9757
1659513829.862919,9623
1659513829.901878,9486
1659513829.940836,9411
1659513829.979795,9375
1659513830.020804,9370
1659513830.061812,9397
1659513830.100771,9426
1659513830.139729,9431
1659513830.178688,9433
1659513830.216621,9448
1659513830.254554,9485
1659513830.292488,9520
1659513830.335034,9551
1659513830.377581,9590
1659513830.416539,9625
1659513830.455498,9667
1659513830.494456,9715
1659513830.53239,9764
1659513830.570323,9803
1659513830.608256,9782
1659513830.65029,9629
1659513830.692324,9489
1659513830.731283,9403
1659513830.770241,9351
1659513830.8092,9320
1659513830.850721,9344
1659513830.892243,9374
1659513830.931201,9389
1659513830.97016,9426
1659513831.009118,9463
1659513831.05064,9526
1659513831.092161,9581
1659513831.136246,9648
1659513831.18033,9715
1659513831.224415,9780
1659513831.258247,9833
1659513831.292079,9882
1659513831.336848,9942
1659513831.381616,9990
1659513831.426384,10037
1659513831.464659,9954
1659513831.502934,9796
1659513831.541209,9678
1659513831.582217,9612
1659513831.623226,9573
1659513831.662868,9541
1659513831.70251,9567
1659513831.742152,9572
1659513831.784186,9567
1659513831.826221,9562
1659513831.865179,9571
1659513831.904137,9593
1659513831.943096,9621
1659513831.982396,9652
1659513832.021696,9701
1659513832.060996,9735
1659513832.102005,9773
1659513832.143014,9821
1659513832.181289,9864
1659513832.219564,9850
1659513832.257839,9718
1659513832.300386,9549
1659513832.342932,9455
1659513832.381207,9408
1659513832.419482,9380
1659513832.457757,9401
1659513832.498766,9426
1659513832.539775,9423
1659513832.578392,9430
1659513832.617009,9447
1659513832.655625,9480
1659513832.69971,9527
1659513832.743794,9561
1659513832.787879,9604
1659513832.821199,9648
1659513832.854519,9701
1659513832.896211,9734
1659513832.937903,9777
1659513832.979596,9779
1659513833.021288,9633
1659513833.06298,9457
1659513833.104673,9341
1659513833.143631,9285
1659513833.18259,9251
1659513833.221548,9252
1659513833.259823,9273
1659513833.298098,9290
1659513833.336373,9308
1659513833.380458,9314
1659513833.424542,9348
1659513833.468627,9366
1659513833.502459,9391
1659513833.536292,9425
1659513833.580718,9458
1659513833.625144,9501
1659513833.66957,9530
1659513833.702378,9579
1659513833.735185,9626
1659513833.778586,9624
1659513833.821987,9502
1659513833.865388,9310
1659513833.904688,9194
1659513833.943988,9116
1659513833.983289,9071
1659513834.025323,9058
1659513834.067357,9077
1659513834.106315,9094
1659513834.145274,9093
1659513834.184232,9082
1659513834.226266,9104
1659513834.2683,9130
1659513834.3076,9160
1659513834.346901,9215
1659513834.386201,9253
1659513834.425159,9291
1659513834.464118,9347
1659513834.503076,9390
1659513834.544085,9441
1659513834.585094,9464
1659513834.624394,9370
1659513834.663695,9221
1659513834.702995,9120
1659513834.743491,9080
1659513834.783987,9060
1659513834.823287,9080
1659513834.862588,9108
1659513834.901888,9126
1659513834.943922,9136
1659513834.985956,9151
1659513835.024231,9186
1659513835.062506,9232
1659513835.100781,9271
1659513835.14179,9314
1659513835.182799,9368
1659513835.222783,9408
1659513835.262766,9458
1659513835.30275,9510
1659513835.346834,9554
1659513835.390919,9553
1659513835.435004,9447
1659513835.476525,9302
1659513835.518047,9221
1659513835.556663,9176
1659513835.59528,9146
1659513835.633897,9165
1659513835.672172,9175
1659513835.710447,9201
1659513835.748722,9214
1659513835.790243,9243
1659513835.831765,9267
1659513835.871065,9315
1659513835.910365,9358
1659513835.949665,9391
1659513835.990162,9457
1659513836.030658,9494
1659513836.069275,9556
1659513836.107891,9599
1659513836.146508,9648
1659513836.185467,9696
1659513836.224425,9747
1659513836.263383,9739
1659513836.305418,9623
1659513836.347452,9487
1659513836.386068,9393
1659513836.424685,9353
1659513836.463302,9317
1659513836.505336,9321
1659513836.54737,9344
1659513836.585645,9356
1659513836.62392,9360
1659513836.662195,9384
1659513836.704229,9406
1659513836.746263,9438
1659513836.790689,9487
1659513836.835116,9519
1659513836.879542,9561
1659513836.917817,9595
1659513836.956092,9639
1659513836.994367,9673
1659513837.032984,9729
1659513837.0716,9767
1659513837.110217,9716
1659513837.151739,9582
1659513837.19326,9435
1659513837.232219,9368
1659513837.271177,9326
1659513837.310136,9306
1659513837.35217,9327
1659513837.394204,9350
1659513837.433504,9345
1659513837.472804,9347
1659513837.512104,9379
1659513837.554138,9404
1659513837.596173,9443
1659513837.634789,9477
1659513837.673406,9524
1659513837.712023,9584
1659513837.751665,9620
1659513837.791307,9672
1659513837.830949,9714
1659513837.871958,9760
1659513837.912966,9733
1659513837.951241,9577
1659513837.989516,9380
1659513838.027791,9265
1659513838.0688,9210
1659513838.109809,9163
1659513838.151501,9163
1659513838.193194,9197
1659513838.234886,9210
1659513838.276579,9212
1659513838.318271,9234
1659513838.359963,9266
1659513838.398922,9303
1659513838.43788,9349
1659513838.476839,9395
1659513838.51836,9439
1659513838.559882,9491
1659513838.598498,9528
1659513838.637115,9567
1659513838.675732,9633
1659513838.71469,9672
1659513838.753649,9688
1659513838.792607,9550
1659513838.834641,9348
1659513838.876676,9235
1659513838.915292,9174
1659513838.953909,9145
1659513838.992526,9153
1659513839.033535,9188
1659513839.074543,9213
1659513839.11316,9209
1659513839.151777,9235
1659513839.190394,9250
1659513839.232428,9292
1659513839.274462,9331
1659513839.312395,9386
1659513839.350328,9446
1659513839.388262,9497
1659513839.430296,9543
1659513839.47233,9603
1659513839.511288,9656
1659513839.550247,9695
1659513839.589205,9650
1659513839.63329,9445
1659513839.677374,9274
1659513839.721459,9212
1659513839.764006,9181
1659513839.806552,9182
1659513839.845852,9224
1659513839.885153,9252
1659513839.924453,9249
1659513839.964949,9252
1659513840.005445,9262
1659513840.044404,9285
1659513840.083362,9334
1659513840.122321,9376
1659513840.160938,9433
1659513840.199554,9479
1659513840.238171,9517
1659513840.280205,9566
1659513840.322239,9637
1659513840.361198,9661
1659513840.400156,9571
1659513840.439115,9372
1659513840.477731,9217
1659513840.516348,9150
1659513840.554965,9090
1659513840.595973,9074
1659513840.636982,9105
1659513840.676966,9127
1659513840.71695,9126
1659513840.756933,9136
1659513840.798455,9155
1659513840.839977,9190
1659513840.878593,9242
1659513840.91721,9277
1659513840.955827,9324
1659513840.997861,9388
1659513841.039895,9441
1659513841.079537,9503
1659513841.119179,9577
1659513841.158821,9662
1659513841.199317,9672
1659513841.239813,9547
1659513841.283898,9372
1659513841.327982,9275
1659513841.372067,9201
1659513841.405387,9142
1659513841.438706,9120
1659513841.482791,9134
1659513841.526876,9123
1659513841.57096,9109
1659513841.61026,9098
1659513841.649561,9099
1659513841.688861,9102
1659513841.727819,9109
1659513841.766778,9121
1659513841.805736,9133
1659513841.846745,9149
1659513841.887754,9170
1659513841.926713,9204
1659513841.965671,9216
1659513842.004629,9133
1659513842.046664,8921
1659513842.088698,8749
1659513842.127314,8661
1659513842.165931,8614
1659513842.204548,8583
1659513842.243164,8585
1659513842.281781,8599
1659513842.320398,8585
1659513842.361919,8570
1659513842.403441,8610
1659513842.441716,8654
1659513842.479991,8734
1659513842.518266,8801
1659513842.559787,8870
1659513842.601309,8965
1659513842.645735,9046
1659513842.690161,9120
1659513842.734588,9185
1659513842.767395,9184
1659513842.800202,9033
1659513842.84497,8866
1659513842.889738,8755
1659513842.934506,8692
1659513842.973806,8658
1659513843.013107,8663
1659513843.052407,8691
1659513843.094441,8711
1659513843.136475,8720
1659513843.175092,8715
1659513843.213708,8738
1659513843.252325,8762
1659513843.293847,8792
1659513843.335368,8845
1659513843.373985,8895
1659513843.412601,8950
1659513843.451218,9006
1659513843.492996,9069
1659513843.534774,9125
1659513843.576552,9157
1659513843.61833,9065
1659513843.656946,8902
1659513843.695563,8806
1659513843.73418,8764
1659513843.772796,8752
1659513843.811413,8742
1659513843.85003,8775
1659513843.892064,8805
1659513843.934098,8818
1659513843.973398,8832
1659513844.012698,8866
1659513844.051999,8893
1659513844.09352,8931
1659513844.135042,8976
1659513844.174,9011
1659513844.212959,9055
1659513844.251917,9096
1659513844.291217,9145
1659513844.330517,9184
1659513844.369817,9227
1659513844.411339,9195
1659513844.452861,9041
1659513844.490794,8884
1659513844.528727,8794
1659513844.56666,8758
1659513844.608695,8725
1659513844.650728,8725
1659513844.689003,8739
1659513844.727278,8737
1659513844.765553,8730
1659513844.807075,8731
1659513844.848597,8751
1659513844.892681,8782
1659513844.936766,8822
1659513844.98085,8867
1659513845.014683,8909
1659513845.048515,8945
1659513845.092599,8989
1659513845.136684,9047
1659513845.180768,9083
1659513845.219727,9078
1659513845.258686,8925
1659513845.297644,8747
1659513845.340191,8645
1659513845.382737,8592
1659513845.421012,8569
1659513845.459287,8566
1659513845.497562,8585
1659513845.538571,8595
1659513845.57958,8594
1659513845.61888,8615
1659513845.65818,8652
1659513845.697481,8693
1659513845.736097,8740
1659513845.774714,8799
1659513845.813331,8835
1659513845.854852,8888
1659513845.896374,8935
1659513845.934991,8985
1659513845.973607,9033
1659513846.012224,9085
1659513846.050499,9025
1659513846.088774,8832
1659513846.127049,8669
1659513846.169596,8603
1659513846.212142,8580
1659513846.254177,8573
1659513846.296211,8598
1659513846.334827,8635
1659513846.373444,8664
1659513846.412061,8671
1659513846.454095,8699
1659513846.496129,8729
1659513846.535771,8778
1659513846.575413,8828
1659513846.615055,8882
1659513846.659139,8923
1659513846.703224,8963
1659513846.747308,9017
1659513846.779603,9054
1659513846.811898,9115
1659513846.856666,9140
1659513846.901434,9069
1659513846.946202,8887
1659513846.984477,8740
1659513847.022752,8710
1659513847.061027,8703
1659513847.103573,8731
1659513847.14612,8783
1659513847.184737,8849
1659513847.223354,8914
1659513847.26197,8976
1659513847.303492,9067
1659513847.345013,9145
1659513847.38363,9241
1659513847.422247,9320
1659513847.460863,9391
1659513847.500164,9464
1659513847.539464,9529
1659513847.578764,9601
1659513847.617381,9680
1659513847.655998,9749
1659513847.694614,9718
1659513847.736648,9569
1659513847.778682,9403
1659513847.819691,9322
1659513847.8607,9296
1659513847.899317,9290
1659513847.937934,9332
1659513847.97655,9390
1659513848.020293,9433
1659513848.064036,9448
1659513848.107779,9488
1659513848.141611,9517
1659513848.175443,9574
1659513848.219528,9635
1659513848.263613,9696
1659513848.307697,9746
1659513848.346314,9813
1659513848.384931,9870
1659513848.423547,9924
1659513848.465069,9993
1659513848.50659,10040
1659513848.545207,10015
1659513848.583824,9851
1659513848.622441,9707
1659513848.664475,9638
1659513848.706509,9618
1659513848.744186,9614
1659513848.781862,9653
1659513848.81954,9692
1659513848.857216,9701
1659513848.901643,9731
1659513848.946069,9746
1659513848.990495,9787
1659513849.02877,9822
1659513849.067045,9879
1659513849.10532,9928
1659513849.146842,9976
1659513849.188363,10023
1659513849.227322,10058
1659513849.26628,10116
1659513849.305239,10159
1659513849.34676,10126
1659513849.388282,9960
1659513849.427582,9785
1659513849.466882,9692
1659513849.506182,9675
1659513849.545482,9669
1659513849.584783,9698
1659513849.624083,9734
1659513849.662358,9741
1659513849.700633,9757
1659513849.738908,9766
1659513849.781455,9805
1659513849.824001,9859
1659513849.866548,9897
1659513849.909095,9948
1659513849.947028,9999
1659513849.984961,10053
1659513850.022894,10102
1659513850.067321,10152
1659513850.111747,10157
1659513850.156173,10022
1659513850.18898,9817
1659513850.221788,9699
1659513850.26553,9642
1659513850.309273,9621
1659513850.353016,9624
1659513850.392658,9666
1659513850.4323,9689
1659513850.471942,9703
1659513850.512951,9721
1659513850.55396,9753
1659513850.592235,9794
1659513850.63051,9842
1659513850.668785,9903
1659513850.710306,9947
1659513850.751828,10003
1659513850.791811,10053
1659513850.831795,10090
1659513850.871779,10153
1659513850.910053,10180
1659513850.948328,10079
1659513850.986603,9873
1659513851.028638,9715
1659513851.070672,9641
1659513851.109288,9612
1659513851.147905,9605
1659513851.186522,9638
1659513851.228044,9686
1659513851.269565,9697
1659513851.30784,9713
1659513851.346115,9741
1659513851.38439,9774
1659513851.425911,9818
1659513851.467433,9878
1659513851.505708,9922
1659513851.543983,9974
1659513851.582258,10030
1659513851.627026,10078
1659513851.671794,10154
1659513851.716562,10190
1659513851.750394,10153
1659513851.784227,9988
1659513851.828311,9822
1659513851.872396,9747
1659513851.91648,9711
1659513851.949287,9719
1659513851.982095,9740
1659513852.027204,9785
1659513852.072314,9787
1659513852.117424,9785
1659513852.155699,9808
1659513852.193974,9835
1659513852.232249,9871
1659513852.274283,9914
1659513852.316317,9956
1659513852.358351,9983
1659513852.400385,10038
1659513852.439002,10068
1659513852.477619,10109
1659513852.516236,10053
1659513852.557757,9841
1659513852.599278,9653
1659513852.638237,9564
1659513852.677196,9492
1659513852.716154,9449
1659513852.758188,9464
1659513852.800222,9461
1659513852.838839,9444
1659513852.877455,9434
1659513852.916072,9439
1659513852.955031,9449
1659513852.993989,9478
1659513853.032948,9501
1659513853.075494,9541
1659513853.118041,9584
1659513853.157,9623
1659513853.195958,9681
1659513853.234916,9725
1659513853.275925,9736
1659513853.316934,9606
1659513853.355893,9413
1659513853.394851,9315
1659513853.43381,9270
1659513853.475844,9242
1659513853.517878,9256
1659513853.556495,9300
1659513853.595111,9324
1659513853.633728,9336
1659513853.674737,9357
1659513853.715746,9379
1659513853.754704,9423
1659513853.793663,9461
1659513853.832621,9501
1659513853.876706,9531
1659513853.92079,9573
1659513853.964875,9614
1659513854.002808,9653
1659513854.040741,9698
1659513854.078675,9684
1659513854.116608,9556
1659513854.160351,9380
1659513854.204093,9270
1659513854.247836,9209
1659513854.281156,9170
1659513854.314476,9176
1659513854.358902,9188
1659513854.403328,9181
1659513854.447755,9166
1659513854.486372,9181
1659513854.524988,9201
1659513854.563605,9216
1659513854.604614,9244
1659513854.645623,9282
1659513854.684581,9299
1659513854.72354,9346
1659513854.762498,9371
1659513854.804532,9396
1659513854.846566,9404
1659513854.884841,9270
1659513854.923116,9134
1659513854.961391,9047
1659513855.001033,9016
1659513855.040675,9006
1659513855.080317,9020
1659513855.121326,9058
1659513855.162335,9059
1659513855.201293,9070
1659513855.240252,9093
1659513855.27921,9117
1659513855.318852,9147
1659513855.358494,9188
1659513855.398136,9221
1659513855.439657,9269
1659513855.481179,9319
1659513855.519796,9365
1659513855.558412,9421
1659513855.597029,9464
1659513855.638551,9421
1659513855.680072,9266
1659513855.724157,9105
