LocalTimestamp,PG
1659432661.85769,8241
1659432661.896303,8450
1659432661.934917,8567
1659432661.976947,8612
1659432662.018978,8608
1659432662.057591,8605
1659432662.096204,8610
1659432662.134818,8597
1659432662.175823,8561
1659432662.216829,8491
1659432662.254758,8427
1659432662.292688,8351
1659432662.330618,8286
1659432662.373674,8225
1659432662.41673,8087
1659432662.455343,7914
1659432662.493956,7801
1659432662.53257,7764
1659432662.576992,7717
1659432662.621415,7695
1659432662.665837,7678
1659432662.707355,7648
1659432662.748873,7586
1659432662.78817,7524
1659432662.827467,7465
1659432662.866764,7410
1659432662.908282,7372
1659432662.949799,7344
1659432662.989096,7323
1659432663.028393,7303
1659432663.06769,7304
1659432663.106303,7309
1659432663.144917,7310
1659432663.18353,7312
1659432663.224023,7336
1659432663.264516,7428
1659432663.303471,7553
1659432663.342426,7670
1659432663.381381,7760
1659432663.419652,7883
1659432663.457924,8015
1659432663.496196,8115
1659432663.537714,8188
1659432663.579232,8274
1659432663.61887,8366
1659432663.658509,8453
1659432663.698147,8569
1659432663.739665,8679
1659432663.781183,8769
1659432663.820138,8889
1659432663.859093,8988
1659432663.898048,9067
1659432663.940592,9105
1659432663.983135,9066
1659432664.022431,8925
1659432664.061728,8801
1659432664.101025,8655
1659432664.141518,8518
1659432664.182011,8397
1659432664.226433,8295
1659432664.270856,8207
1659432664.315278,8127
1659432664.355258,8072
1659432664.395239,8046
1659432664.435219,8045
1659432664.475199,8036
1659432664.515179,8039
1659432664.553793,8055
1659432664.592406,8072
1659432664.631019,8099
1659432664.67305,8105
1659432664.71508,8108
1659432664.753352,8119
1659432664.791624,8064
1659432664.829895,7980
1659432664.869192,7958
1659432664.908489,7960
1659432664.947786,7950
1659432664.986741,7961
1659432665.025696,7969
1659432665.064651,8006
1659432665.105657,8062
1659432665.146662,8050
1659432665.185275,8091
1659432665.223889,8179
1659432665.262502,8254
1659432665.305045,8340
1659432665.347588,8471
1659432665.38586,8553
1659432665.424132,8617
1659432665.462403,8655
1659432665.503409,8667
1659432665.544414,8683
1659432665.588495,8621
1659432665.632576,8440
1659432665.676656,8238
1659432665.710486,8098
1659432665.744315,7979
1659432665.788396,7955
1659432665.832477,8032
1659432665.876557,8092
1659432665.915513,8046
1659432665.954468,7687
1659432665.993423,8057
1659432666.034428,9665
1659432666.075433,9221
1659432666.114047,8983
1659432666.15266,8964
1659432666.191273,9059
1659432666.233817,9307
1659432666.27636,9550
1659432666.314973,9718
1659432666.353586,9871
1659432666.3922,9976
1659432666.430813,10078
1659432666.469427,10120
1659432666.50804,9999
1659432666.549558,9842
1659432666.591076,9751
1659432666.630031,9732
1659432666.668986,9756
1659432666.707941,9851
1659432666.746555,9973
1659432666.785168,10116
1659432666.823781,10242
1659432666.865812,10389
1659432666.907842,10532
1659432666.947481,10636
1659432666.987119,10788
1659432667.026758,10931
1659432667.067763,11082
1659432667.108769,11201
1659432667.150799,11307
1659432667.19283,11391
1659432667.232468,11462
1659432667.272107,11540
1659432667.311745,11620
1659432667.355484,11620
1659432667.399223,11501
1659432667.442962,11383
1659432667.475254,11360
1659432667.507546,11405
1659432667.551627,11474
1659432667.595707,11557
1659432667.639788,11627
1659432667.678401,11680
1659432667.717015,11743
1659432667.755628,11787
1659432667.797659,11859
1659432667.839689,11910
1659432667.878644,11955
1659432667.917599,12004
1659432667.956555,12068
1659432667.998072,12130
1659432668.03959,12186
1659432668.077862,12249
1659432668.116134,12322
1659432668.154405,12409
1659432668.194386,12468
1659432668.234366,12448
1659432668.274346,12246
1659432668.315351,11967
1659432668.356357,11822
1659432668.39497,11769
1659432668.433584,11789
1659432668.472197,11861
1659432668.513715,11952
1659432668.555233,12052
1659432668.594188,12107
1659432668.633143,12167
1659432668.672098,12215
1659432668.712591,12297
1659432668.753084,12376
1659432668.792039,12450
1659432668.830994,12538
1659432668.869949,12619
1659432668.910954,12695
1659432668.95196,12765
1659432668.990915,12830
1659432669.02987,12879
1659432669.068825,12957
1659432669.113589,13003
1659432669.158354,12937
1659432669.203118,12760
1659432669.244636,12645
1659432669.286154,12650
1659432669.324425,12674
1659432669.362697,12728
1659432669.400969,12793
1659432669.443512,12855
1659432669.486055,12864
1659432669.525352,12888
1659432669.564648,12951
1659432669.603945,13016
1659432669.64372,13082
1659432669.683496,13122
1659432669.723271,13180
1659432669.763046,13218
1659432669.802821,13267
1659432669.841776,13306
1659432669.880731,13337
1659432669.919686,13381
1659432669.961204,13370
1659432670.002722,13197
1659432670.041677,12906
1659432670.080632,12723
1659432670.119588,12662
1659432670.161105,12667
1659432670.202623,12722
1659432670.241237,12778
1659432670.27985,12788
1659432670.318464,12782
1659432670.357077,12797
1659432670.39569,12834
1659432670.434304,12890
1659432670.476847,12955
1659432670.51939,13023
1659432670.558345,13095
1659432670.5973,13160
1659432670.636255,13213
1659432670.677773,13240
1659432670.719291,13284
1659432670.763714,13326
1659432670.808136,13354
1659432670.852558,13228
1659432670.886388,12961
1659432670.920217,12793
1659432670.963956,12743
1659432671.007695,12728
1659432671.051435,12726
1659432671.084239,12744
1659432671.117043,12754
1659432671.161124,12743
1659432671.205205,12738
1659432671.249285,12761
1659432671.28824,12800
1659432671.327196,12834
1659432671.366151,12890
1659432671.408181,12948
1659432671.450212,13006
1659432671.489167,13070
1659432671.528122,13141
1659432671.567077,13199
1659432671.608082,13261
1659432671.649088,13333
1659432671.687701,13304
1659432671.726315,13120
1659432671.764928,12960
1659432671.803883,12927
1659432671.842838,12965
1659432671.881793,13021
1659432671.923311,13082
1659432671.964829,13135
1659432672.003101,13161
1659432672.041372,13184
1659432672.079644,13230
1659432672.121675,13293
1659432672.163705,13360
1659432672.201977,13422
1659432672.240248,13496
1659432672.27852,13535
1659432672.320551,13597
1659432672.362581,13636
1659432672.40222,13672
1659432672.441858,13725
1659432672.481497,13773
1659432672.525919,13782
1659432672.570342,13656
1659432672.614764,13479
1659432672.647056,13408
1659432672.679348,13441
1659432672.724795,13474
1659432672.770243,13536
1659432672.81569,13584
1659432672.857721,13597
1659432672.899751,13613
1659432672.938365,13642
1659432672.976978,13697
1659432673.015592,13744
1659432673.057109,13789
1659432673.098627,13843
1659432673.137583,13887
1659432673.176538,13937
1659432673.215493,13974
1659432673.254106,14026
1659432673.292719,14047
1659432673.331333,14089
1659432673.370288,14113
1659432673.409243,14035
1659432673.448198,13838
1659432673.489203,13698
1659432673.530209,13671
1659432673.569164,13681
1659432673.608119,13714
1659432673.647074,13746
1659432673.689105,13761
1659432673.731135,13777
1659432673.77009,13791
1659432673.809045,13826
1659432673.848001,13885
1659432673.889006,13937
1659432673.930011,13993
1659432673.969308,14056
1659432674.008605,14098
1659432674.047902,14158
1659432674.089932,14203
1659432674.131963,14250
1659432674.170234,14288
1659432674.208506,14334
1659432674.246778,14324
1659432674.2912,14212
1659432674.335623,14040
1659432674.380045,13960
1659432674.42105,14003
1659432674.462056,14038
1659432674.499986,14089
1659432674.537916,14126
1659432674.575846,14138
1659432674.618389,14133
1659432674.660932,14157
1659432674.699887,14201
1659432674.738842,14263
1659432674.777797,14316
1659432674.816411,14347
1659432674.855024,14384
1659432674.893637,14415
1659432674.935411,14444
1659432674.977186,14453
1659432675.01896,14475
1659432675.060734,14495
1659432675.099006,14524
1659432675.137277,14510
1659432675.175549,14339
1659432675.214163,14144
1659432675.252776,14066
1659432675.291389,14068
1659432675.332907,14100
1659432675.374425,14138
1659432675.413038,14139
1659432675.451652,14116
1659432675.490265,14105
1659432675.528537,14114
1659432675.566809,14149
1659432675.60508,14178
1659432675.647624,14218
1659432675.690166,14268
1659432675.734589,14287
1659432675.779011,14316
1659432675.823434,14332
1659432675.856751,14368
1659432675.890068,14373
1659432675.935174,14405
1659432675.980279,14405
1659432676.025385,14260
1659432676.059215,13998
1659432676.093044,13820
1659432676.137125,13768
1659432676.181206,13754
1659432676.225286,13735
1659432676.264583,13700
1659432676.30388,13643
1659432676.343177,13577
1659432676.384182,13566
1659432676.425188,13621
1659432676.463801,13714
1659432676.502414,13831
1659432676.541028,13933
1659432676.583058,14004
1659432676.625089,14063
1659432676.664044,14113
1659432676.702999,14152
1659432676.741954,14185
1659432676.780226,14227
1659432676.818497,14251
1659432676.856769,14227
1659432676.898287,14032
1659432676.939805,13812
1659432676.979444,13694
1659432677.019082,13678
1659432677.058721,13676
1659432677.096992,13697
1659432677.135264,13682
1659432677.173536,13632
1659432677.215054,13599
1659432677.256572,13577
1659432677.299114,13617
1659432677.341658,13687
1659432677.380613,13752
1659432677.419568,13829
1659432677.458523,13892
1659432677.499016,13946
1659432677.539509,13990
1659432677.578805,14047
1659432677.618102,14083
1659432677.657399,14125
1659432677.701138,14118
1659432677.744877,13966
1659432677.788616,13753
1659432677.82142,13639
1659432677.854225,13641
1659432677.898989,13665
1659432677.943753,13710
1659432677.988517,13734
1659432678.027131,13713
1659432678.065744,13693
1659432678.104357,13690
1659432678.145363,13710
1659432678.186368,13731
1659432678.226007,13745
1659432678.265645,13776
1659432678.305284,13807
1659432678.347314,13817
1659432678.389345,13834
1659432678.427616,13844
1659432678.465888,13877
1659432678.50416,13914
1659432678.543457,13920
1659432678.582753,13831
1659432678.62205,13708
1659432678.663055,13616
1659432678.704061,13554
1659432678.742674,13520
1659432678.781288,13492
1659432678.819901,13458
1659432678.862444,13440
1659432678.904987,13409
1659432678.9436,13418
1659432678.982214,13443
1659432679.020827,13483
1659432679.061833,13517
1659432679.102838,13562
1659432679.142135,13589
1659432679.181432,13622
1659432679.220728,13668
1659432679.262759,13691
1659432679.30479,13744
1659432679.34887,13786
1659432679.392951,13838
1659432679.437032,13816
1659432679.476329,13614
1659432679.515625,13379
1659432679.554922,13247
1659432679.59644,13194
1659432679.637958,13167
1659432679.67623,13179
1659432679.714501,13177
1659432679.752773,13149
1659432679.795316,13125
1659432679.837859,13141
1659432679.876814,13179
1659432679.915769,13240
1659432679.954725,13313
1659432679.992996,13355
1659432680.031268,13420
1659432680.06954,13479
1659432680.110545,13541
1659432680.15155,13595
1659432680.191736,13649
1659432680.231921,13714
1659432680.272106,13780
1659432680.312291,13829
1659432680.352477,13756
1659432680.391432,13558
1659432680.430387,13366
1659432680.469342,13302
1659432680.511372,13264
1659432680.553403,13233
1659432680.592016,13186
1659432680.63063,13120
1659432680.669243,13052
1659432680.708198,12997
1659432680.747153,12969
1659432680.786108,12957
1659432680.827114,12982
1659432680.868119,13004
1659432680.908612,13040
1659432680.949105,13096
1659432680.987718,13123
1659432681.026331,13165
1659432681.064945,13191
1659432681.109367,13221
1659432681.15379,13211
1659432681.198212,13227
1659432681.232042,13119
1659432681.265871,12825
1659432681.309952,12533
1659432681.354033,12370
1659432681.398113,12283
1659432681.43143,12202
1659432681.464747,12169
1659432681.509511,12116
1659432681.554276,12052
1659432681.59904,12012
1659432681.638336,12012
1659432681.677633,12061
1659432681.71693,12104
1659432681.75896,12180
1659432681.800991,12254
1659432681.839946,12363
1659432681.878901,12487
1659432681.917856,12594
1659432681.958349,12664
1659432681.998842,12709
1659432682.038139,12758
1659432682.077435,12783
1659432682.116732,12701
1659432682.156029,12436
1659432682.195326,12187
1659432682.234623,12053
1659432682.275116,11973
1659432682.315609,11945
1659432682.354222,11952
1659432682.392835,11954
1659432682.431449,11910
1659432682.474504,11890
1659432682.51756,11903
1659432682.556173,11919
1659432682.594787,11948
1659432682.6334,11981
1659432682.674405,12022
1659432682.715411,12086
1659432682.755049,12147
1659432682.794688,12226
1659432682.834326,12289
1659432682.876357,12363
1659432682.918387,12410
1659432682.957001,12324
1659432682.995614,12078
1659432683.034227,11856
1659432683.078992,11729
1659432683.123756,11707
1659432683.16852,11742
1659432683.209525,11794
1659432683.250531,11799
1659432683.288461,11776
1659432683.326391,11776
1659432683.364321,11827
1659432683.403617,11874
1659432683.442914,11912
1659432683.482211,11963
1659432683.523729,12038
1659432683.565247,12109
1659432683.603519,12164
1659432683.64179,12224
1659432683.680062,12283
1659432683.719359,12348
1659432683.758656,12380
1659432683.797952,12230
1659432683.83947,11944
1659432683.880988,11760
1659432683.919602,11695
1659432683.958215,11690
1659432683.996828,11717
1659432684.039371,11749
1659432684.081915,11756
1659432684.120528,11771
1659432684.159141,11815
1659432684.197755,11909
1659432684.238247,12032
1659432684.27874,12134
1659432684.317695,12226
1659432684.356651,12333
1659432684.395606,12434
1659432684.440028,12501
1659432684.484451,12573
1659432684.528873,12649
1659432684.570391,12720
1659432684.611909,12754
1659432684.651206,12608
1659432684.690502,12393
1659432684.729799,12299
1659432684.771317,12339
1659432684.812835,12396
1659432684.851449,12444
1659432684.890062,12469
1659432684.928675,12459
1659432684.971218,12456
1659432685.013762,12466
1659432685.052716,12519
1659432685.091672,12545
1659432685.130627,12619
1659432685.168898,12698
1659432685.20717,12776
1659432685.245442,12854
1659432685.286447,12931
1659432685.327452,13020
1659432685.367091,13102
1659432685.406729,13157
1659432685.446368,13024
1659432685.484982,12816
1659432685.523595,12723
1659432685.562208,12736
1659432685.603214,12813
1659432685.644219,12923
1659432685.683516,13001
1659432685.722813,13027
1659432685.762109,13059
1659432685.80414,13083
1659432685.84617,13119
1659432685.887688,13183
1659432685.929206,13248
1659432685.968161,13323
1659432686.007117,13405
1659432686.046072,13466
1659432686.090494,13511
1659432686.134917,13564
1659432686.179339,13615
1659432686.213168,13643
1659432686.246998,13572
1659432686.29142,13430
1659432686.335843,13351
1659432686.380265,13344
1659432686.418537,13373
1659432686.456809,13399
1659432686.49508,13431
1659432686.535573,13384
1659432686.576066,13292
1659432686.614679,13182
1659432686.653293,13115
1659432686.691906,13072
1659432686.733424,13057
1659432686.774942,13070
1659432686.813555,13063
1659432686.852169,13050
1659432686.890782,13041
1659432686.929395,13066
1659432686.968009,13106
1659432687.006622,13037
1659432687.048653,12778
1659432687.090683,12566
1659432687.129297,12502
1659432687.16791,12527
1659432687.206523,12591
1659432687.245478,12654
1659432687.284434,12685
1659432687.323389,12660
1659432687.365932,12671
1659432687.408475,12708
1659432687.448968,12788
1659432687.48946,12877
1659432687.527732,12971
1659432687.566004,13067
1659432687.604275,13167
1659432687.64904,13244
1659432687.693804,13320
1659432687.738568,13392
1659432687.771885,13323
1659432687.805202,13054
1659432687.849283,12801
1659432687.893363,12686
1659432687.937444,12638
1659432687.971273,12621
1659432688.005103,12653
1659432688.049525,12662
1659432688.093948,12655
1659432688.13837,12638
1659432688.176984,12658
1659432688.215597,12703
1659432688.25421,12764
1659432688.297266,12833
1659432688.340322,12910
1659432688.378935,12982
1659432688.417548,13053
1659432688.456162,13146
1659432688.496655,13236
1659432688.537148,13299
1659432688.576444,13188
1659432688.615741,12975
1659432688.655038,12878
1659432688.693993,12861
1659432688.732948,12878
1659432688.771903,12923
1659432688.812909,12972
1659432688.853914,13007
1659432688.892869,13029
1659432688.931824,13069
1659432688.970779,13123
1659432689.012297,13198
1659432689.053815,13264
1659432689.09277,13332
1659432689.131725,13423
1659432689.170681,13486
1659432689.212711,13549
1659432689.254741,13626
1659432689.293696,13692
1659432689.332652,13725
1659432689.371607,13667
1659432689.413125,13447
1659432689.454643,13321
1659432689.498723,13279
1659432689.542804,13269
1659432689.586885,13290
1659432689.626182,13334
1659432689.665478,13342
1659432689.704775,13325
1659432689.745268,13336
1659432689.785761,13366
1659432689.824374,13422
1659432689.862988,13477
1659432689.901601,13527
1659432689.942606,13587
1659432689.983612,13642
1659432690.022567,13676
1659432690.061522,13734
1659432690.100477,13793
1659432690.140457,13820
1659432690.180438,13772
1659432690.220418,13526
1659432690.260398,13278
1659432690.300378,13160
1659432690.338992,13115
1659432690.377605,13100
1659432690.416218,13136
1659432690.455173,13166
1659432690.494128,13180
1659432690.533084,13204
1659432690.575114,13244
1659432690.617145,13312
1659432690.658406,13399
1659432690.699668,13473
1659432690.74093,13570
1659432690.782191,13642
1659432690.824734,13722
1659432690.867277,13787
1659432690.905549,13864
1659432690.943821,13923
1659432690.982092,13984
1659432691.020706,13969
1659432691.059319,13784
1659432691.097933,13518
1659432691.138938,13370
1659432691.179943,13325
1659432691.219923,13301
1659432691.259904,13309
1659432691.299884,13308
1659432691.338497,13301
1659432691.377111,13268
1659432691.415724,13250
1659432691.457242,13277
1659432691.49876,13315
1659432691.538399,13359
1659432691.578037,13403
1659432691.617676,13463
1659432691.659706,13510
1659432691.701737,13559
1659432691.743254,13607
1659432691.784772,13661
1659432691.823728,13731
1659432691.862683,13756
1659432691.901638,13567
1659432691.945719,13233
1659432691.989799,13027
1659432692.03388,12948
1659432692.067197,12927
1659432692.100514,12933
1659432692.145278,12993
1659432692.190042,13058
1659432692.234806,13095
1659432692.267611,13160
1659432692.300415,13222
1659432692.344496,13306
1659432692.388577,13393
1659432692.432657,13461
1659432692.471954,13527
1659432692.511251,13585
1659432692.550548,13648
1659432692.592066,13665
1659432692.633584,13665
1659432692.671855,13650
1659432692.710127,13640
1659432692.748399,13614
1659432692.787695,13314
1659432692.826992,12867
1659432692.866289,12597
1659432692.907294,12467
1659432692.9483,12354
1659432692.98623,12292
1659432693.02416,12235
1659432693.06209,12179
1659432693.104633,12130
1659432693.147176,12114
1659432693.185789,12118
1659432693.224402,12167
1659432693.263016,12222
1659432693.303509,12302
1659432693.344002,12421
1659432693.382957,12545
1659432693.421912,12672
1659432693.460867,12786
1659432693.502897,12905
1659432693.544928,13039
1659432693.583541,13166
1659432693.622154,13243
1659432693.660768,13147
1659432693.705874,13019
1659432693.75098,13004
1659432693.796086,13053
1659432693.829402,13092
1659432693.862719,13140
1659432693.9068,13195
1659432693.950881,13205
1659432693.994962,13210
1659432694.03648,13236
1659432694.077997,13269
1659432694.117294,13330
1659432694.156591,13409
1659432694.195888,13477
1659432694.233818,13545
1659432694.271748,13614
1659432694.309678,13662
1659432694.351196,13714
1659432694.392714,13767
1659432694.431669,13701
1659432694.470624,13424
1659432694.509579,13151
1659432694.548876,12996
1659432694.588173,12925
1659432694.62747,12856
1659432694.668987,12820
1659432694.710505,12824
1659432694.749802,12793
1659432694.789099,12743
1659432694.828396,12746
1659432694.869914,12785
1659432694.911432,12858
1659432694.950728,12944
1659432694.990025,13033
1659432695.029322,13126
1659432695.071352,13226
1659432695.113383,13309
1659432695.151996,13374
1659432695.19061,13445
1659432695.229223,13461
1659432695.272962,13252
1659432695.316701,12922
1659432695.36044,12750
1659432695.401958,12722
1659432695.443476,12747
1659432695.482431,12784
1659432695.521386,12861
1659432695.560342,12922
1659432695.601347,12946
1659432695.642352,12996
1659432695.681307,13068
1659432695.720263,13139
1659432695.759218,13199
1659432695.798173,13262
1659432695.837128,13319
1659432695.876083,13357
1659432695.917601,13385
1659432695.959119,13430
1659432695.998074,13494
1659432696.037029,13538
1659432696.075984,13484
1659432696.115281,13200
1659432696.154577,12881
1659432696.193874,12714
1659432696.23488,12663
1659432696.275885,12628
1659432696.314157,12647
1659432696.352428,12697
1659432696.3907,12714
1659432696.433243,12742
1659432696.475786,12795
1659432696.514058,12881
1659432696.55233,12990
1659432696.590601,13114
1659432696.631094,13213
1659432696.671587,13317
1659432696.715668,13427
1659432696.759748,13526
1659432696.803829,13613
1659432696.842784,13689
1659432696.881739,13777
1659432696.920695,13774
1659432696.962212,13597
1659432697.00373,13406
1659432697.043369,13388
1659432697.083007,13445
1659432697.122646,13502
1659432697.164164,13558
1659432697.205682,13572
1659432697.244295,13552
1659432697.282908,13544
1659432697.321522,13572
1659432697.360819,13603
1659432697.400115,13655
1659432697.439412,13714
1659432697.481443,13764
1659432697.523473,13808
1659432697.561745,13847
1659432697.600017,13887
1659432697.638288,13925
1659432697.680319,13956
1659432697.722349,13873
1659432697.760963,13604
1659432697.799576,13369
1659432697.83819,13292
1659432697.877486,13290
1659432697.916783,13302
1659432697.95608,13346
1659432697.998111,13367
1659432698.040141,13365
1659432698.078754,13363
1659432698.117368,13403
1659432698.155981,13465
1659432698.196986,13523
1659432698.237992,13574
1659432698.283098,13621
1659432698.328204,13665
1659432698.37331,13722
1659432698.406114,13749
1659432698.438918,13777
1659432698.482657,13817
1659432698.526396,13753
1659432698.570135,13459
1659432698.60294,13152
1659432698.635744,13035
1659432698.680508,13000
1659432698.725272,13007
1659432698.770036,13045
1659432698.80865,13081
1659432698.847263,13073
1659432698.885877,13075
1659432698.927395,13101
1659432698.968913,13148
1659432699.007868,13207
1659432699.046823,13282
1659432699.085778,13359
1659432699.124391,13423
1659432699.163005,13491
1659432699.201618,13551
1659432699.243649,13608
1659432699.285679,13651
1659432699.324634,13648
1659432699.363589,13418
1659432699.402544,13112
1659432699.44355,12962
1659432699.484555,12920
1659432699.52351,12918
1659432699.562465,12936
1659432699.60142,12962
1659432699.643963,12954
1659432699.686507,12969
1659432699.724778,13023
1659432699.76305,13123
1659432699.801322,13229
1659432699.841814,13332
1659432699.882307,13410
1659432699.921262,13473
1659432699.960217,13554
1659432699.999172,13596
1659432700.042911,13652
1659432700.08665,13694
1659432700.130389,13731
1659432700.164219,13593
1659432700.198048,13279
1659432700.243154,13048
1659432700.28826,12972
1659432700.333366,12984
1659432700.374884,13010
1659432700.416402,13064
1659432700.455357,13108
1659432700.494312,13155
1659432700.533267,13237
1659432700.572564,13326
1659432700.611861,13440
1659432700.651158,13545
1659432700.693188,13644
1659432700.735219,13718
1659432700.773832,13797
1659432700.812445,13851
1659432700.851059,13887
1659432700.892577,13934
1659432700.934095,13987
1659432700.97305,13933
1659432701.012005,13693
1659432701.05096,13469
1659432701.089232,13385
1659432701.127503,13401
1659432701.165775,13446
1659432701.207805,13494
1659432701.249836,13540
1659432701.289474,13527
1659432701.329113,13559
1659432701.368752,13608
1659432701.409757,13694
1659432701.450762,13764
1659432701.489376,13835
1659432701.527989,13901
1659432701.566602,13958
1659432701.609658,14014
1659432701.652714,14065
1659432701.691327,14111
1659432701.72994,14156
1659432701.768554,14120
1659432701.809047,13911
1659432701.84954,13738
1659432701.893962,13707
1659432701.938384,13751
1659432701.982807,13807
1659432702.02142,13853
1659432702.060034,13896
1659432702.098647,13914
1659432702.140677,13914
1659432702.182708,13931
1659432702.221321,13954
1659432702.259935,13984
1659432702.298548,14009
1659432702.340066,14032
1659432702.381584,14024
1659432702.419856,14032
1659432702.458127,14044
1659432702.496399,14060
1659432702.536038,14077
1659432702.575676,13917
1659432702.615315,13598
1659432702.65632,13372
1659432702.697325,13337
1659432702.735597,13380
1659432702.773869,13430
1659432702.81214,13501
1659432702.851779,13539
1659432702.891418,13573
1659432702.931056,13588
1659432702.973086,13637
1659432703.015117,13705
1659432703.05373,13746
1659432703.092344,13785
1659432703.130957,13828
1659432703.172475,13851
1659432703.213993,13876
1659432703.258415,13909
1659432703.302838,13921
1659432703.34726,13934
1659432703.380065,13771
1659432703.412869,13290
1659432703.457633,12790
1659432703.502397,12533
1659432703.547162,12448
1659432703.586117,12468
1659432703.625072,12591
1659432703.664027,12706
1659432703.705032,12847
1659432703.746037,12984
1659432703.785676,13094
1659432703.825315,13199
1659432703.864953,13293
1659432703.906984,13340
1659432703.949014,13356
1659432703.987628,13370
1659432704.026241,13372
1659432704.064854,13339
1659432704.103809,13219
1659432704.142765,13106
1659432704.18172,12983
1659432704.222725,12641
1659432704.26373,12211
1659432704.302002,11999
1659432704.340274,11988
1659432704.378545,12058
1659432704.417159,12171
1659432704.455772,12224
1659432704.494385,12243
1659432704.536929,12276
1659432704.579472,12283
1659432704.618085,12338
1659432704.656698,12422
1659432704.695312,12550
1659432704.73683,12667
1659432704.778348,12768
1659432704.820891,12851
1659432704.863434,12929
1659432704.902047,13010
1659432704.94066,13074
1659432704.979274,13143
1659432705.023696,13181
1659432705.068119,13054
1659432705.112541,12708
1659432705.144833,12436
1659432705.177125,12302
1659432705.221206,12223
1659432705.265286,12214
1659432705.309367,12213
1659432705.34798,12163
1659432705.386594,12079
1659432705.425207,12023
1659432705.46775,11991
1659432705.510293,11998
1659432705.548565,12043
1659432705.586837,12129
1659432705.625108,12243
1659432705.666114,12343
1659432705.707119,12463
1659432705.746074,12541
1659432705.785029,12629
1659432705.823984,12627
1659432705.863281,12346
1659432705.902578,12010
1659432705.941875,11857
1659432705.98288,11825
1659432706.023886,11821
1659432706.062841,11912
1659432706.101796,11989
1659432706.140751,12011
1659432706.182269,12018
1659432706.223787,12040
1659432706.262742,12095
1659432706.301697,12202
1659432706.340652,12299
1659432706.381657,12370
1659432706.422663,12423
1659432706.464693,12452
1659432706.506724,12470
1659432706.548754,12501
1659432706.590785,12529
1659432706.631278,12493
1659432706.67177,12191
1659432706.710726,11844
1659432706.749681,11726
1659432706.788636,11756
1659432706.827933,11823
1659432706.867229,11907
1659432706.906526,11984
1659432706.948044,12008
1659432706.989562,12023
1659432707.028859,12037
1659432707.068156,12089
1659432707.107452,12162
1659432707.149483,12258
1659432707.191514,12372
1659432707.229785,12489
1659432707.268057,12614
1659432707.306329,12726
1659432707.345284,12840
1659432707.384239,12919
1659432707.423194,12903
1659432707.465737,12647
1659432707.50828,12396
1659432707.54621,12363
1659432707.58414,12455
1659432707.62207,12564
1659432707.663588,12670
1659432707.705106,12761
1659432707.749528,12803
1659432707.793951,12849
1659432707.838373,12932
1659432707.871177,13047
1659432707.903982,13167
1659432707.948404,13280
1659432707.992827,13379
1659432708.037249,13457
1659432708.071079,13535
1659432708.104908,13597
1659432708.14933,13649
1659432708.193753,13683
1659432708.238175,13536
1659432708.27713,13155
1659432708.316086,12873
1659432708.355041,12772
1659432708.397584,12730
1659432708.440127,12686
1659432708.478057,12647
1659432708.515987,12577
1659432708.553917,12491
1659432708.592188,12420
1659432708.63046,12405
1659432708.668732,12371
1659432708.71025,12377
1659432708.751768,12435
1659432708.790723,12537
1659432708.829678,12623
1659432708.868633,12747
1659432708.907246,12833
1659432708.94586,12894
1659432708.984473,12823
1659432709.026504,12503
1659432709.068534,12314
1659432709.112957,12346
1659432709.157379,12427
1659432709.201802,12517
1659432709.235118,12596
1659432709.268435,12633
1659432709.313541,12645
1659432709.358647,12668
1659432709.403753,12656
1659432709.436557,12662
1659432709.469362,12645
1659432709.513784,12627
1659432709.558207,12624
1659432709.602629,12610
1659432709.641584,12603
1659432709.680539,12624
1659432709.719494,12623
1659432709.761525,12465
1659432709.803555,12253
1659432709.841827,12166
1659432709.880099,12203
1659432709.91837,12288
1659432709.956984,12377
1659432709.995597,12454
1659432710.03421,12489
1659432710.075216,12511
1659432710.116221,12551
1659432710.155176,12631
1659432710.194131,12714
1659432710.233086,12785
1659432710.275117,12846
1659432710.317147,12908
1659432710.356786,13007
1659432710.396425,13111
1659432710.436063,13198
1659432710.474676,13098
1659432710.51329,12731
1659432710.551903,12437
1659432710.593421,12361
1659432710.634939,12385
1659432710.677482,12444
1659432710.720025,12508
1659432710.758639,12527
1659432710.797252,12502
1659432710.835865,12519
1659432710.876871,12606
1659432710.917876,12714
1659432710.956831,12809
1659432710.995786,12860
1659432711.034741,12919
1659432711.07848,12987
1659432711.122219,13051
1659432711.165958,13090
1659432711.199275,12981
1659432711.232592,12570
1659432711.277356,12165
1659432711.322121,11987
1659432711.366885,11926
1659432711.40584,11885
1659432711.444795,11849
1659432711.48375,11839
1659432711.524755,11850
1659432711.565761,11899
1659432711.605058,11982
1659432711.644354,12114
1659432711.683651,12235
1659432711.724657,12310
1659432711.765662,12387
1659432711.806667,12471
1659432711.847673,12588
1659432711.886286,12643
1659432711.924899,12490
1659432711.963513,12078
1659432712.006056,11786
1659432712.048599,11671
1659432712.086871,11648
1659432712.125142,11686
1659432712.163414,11764
1659432712.204419,11822
1659432712.245425,11814
1659432712.285063,11814
1659432712.324702,11845
1659432712.36434,11890
1659432712.402612,11976
1659432712.440884,12049
1659432712.479155,12116
1659432712.521698,12192
1659432712.564241,12284
1659432712.603538,12392
1659432712.642835,12348
1659432712.682132,11969
1659432712.72365,11543
1659432712.765168,11301
1659432712.803781,11204
1659432712.842395,11204
1659432712.881008,11278
1659432712.923551,11392
1659432712.966094,11476
1659432713.004366,11535
1659432713.042637,11620
1659432713.080909,11735
1659432713.12499,11873
1659432713.16907,11990
1659432713.213151,12126
1659432713.246468,12228
1659432713.279785,12321
1659432713.323866,12425
1659432713.367947,12519
1659432713.412027,12582
1659432713.445344,12412
1659432713.478661,12013
1659432713.523767,11723
1659432713.568873,11574
1659432713.613979,11483
1659432713.652592,11463
1659432713.691206,11513
1659432713.729819,11526
1659432713.771337,11497
1659432713.812855,11498
1659432713.852493,11536
1659432713.892132,11617
1659432713.93177,11713
1659432713.973288,11807
1659432714.014806,11872
1659432714.053078,11935
1659432714.09135,11999
1659432714.129621,12071
1659432714.168576,12135
1659432714.207531,12221
1659432714.246487,12289
1659432714.288004,12061
1659432714.329522,11660
1659432714.367794,11498
1659432714.406066,11522
1659432714.444337,11561
1659432714.485343,11636
1659432714.526348,11742
1659432714.565303,11824
1659432714.604258,11854
1659432714.643214,11901
1659432714.685244,11976
1659432714.727274,12065
1659432714.76623,12153
1659432714.805185,12277
1659432714.84414,12423
1659432714.885658,12558
1659432714.927176,12674
1659432714.971598,12780
1659432715.016021,12881
1659432715.060443,12978
1659432715.099056,13074
1659432715.13767,13150
1659432715.176283,13056
1659432715.218826,12794
1659432715.261369,12600
1659432715.299641,12516
1659432715.337913,12457
1659432715.376184,12432
1659432715.414798,12452
1659432715.453411,12492
1659432715.492025,12490
1659432715.53303,12530
1659432715.574035,12597
1659432715.613332,12680
1659432715.652629,12786
1659432715.691926,12874
1659432715.733444,12972
1659432715.774961,13060
1659432715.813917,13146
1659432715.852872,13235
1659432715.891827,13313
1659432715.930782,13390
1659432715.969737,13473
1659432716.008692,13564
1659432716.05021,13620
1659432716.091728,13574
1659432716.130683,13343
1659432716.169638,13147
1659432716.208593,13067
1659432716.251136,13010
1659432716.293679,12954
1659432716.331609,12898
1659432716.369539,12849
1659432716.407469,12766
1659432716.4495,12734
1659432716.49153,12730
1659432716.535611,12770
1659432716.579692,12843
1659432716.623773,12906
1659432716.657089,12973
1659432716.690406,13040
1659432716.734829,13118
1659432716.779251,13196
1659432716.823674,13280
1659432716.862971,13341
1659432716.902267,13402
1659432716.941564,13484
1659432716.981339,13543
1659432717.021115,13526
1659432717.06089,13334
1659432717.100665,13119
1659432717.14044,13027
1659432717.179737,13034
1659432717.219034,13068
1659432717.258331,13136
1659432717.296602,13201
1659432717.334874,13232
1659432717.373146,13257
1659432717.414664,13300
1659432717.456182,13368
1659432717.494453,13450
1659432717.532725,13536
1659432717.570997,13606
1659432717.614736,13670
1659432717.658475,13745
1659432717.702214,13787
1659432717.736043,13850
1659432717.769873,13899
1659432717.814295,13958
1659432717.858718,14022
1659432717.90314,14046
1659432717.944145,13920
1659432717.985151,13681
1659432718.024106,13552
1659432718.063061,13511
1659432718.102016,13531
1659432718.140971,13553
1659432718.179926,13598
1659432718.218881,13635
1659432718.260399,13637
1659432718.301917,13667
1659432718.341214,13706
1659432718.380511,13762
1659432718.419808,13820
1659432718.460813,13901
1659432718.501818,13959
1659432718.54009,14000
1659432718.578362,14054
1659432718.616633,14094
1659432718.655588,14150
1659432718.694544,14187
1659432718.733499,14238
1659432718.776042,14283
1659432718.818585,14183
1659432718.856857,13950
1659432718.895128,13757
1659432718.9334,13697
1659432718.974918,13682
1659432719.016436,13707
1659432719.055732,13739
1659432719.095029,13768
1659432719.134326,13776
1659432719.175844,13786
1659432719.217362,13821
1659432719.256317,13877
1659432719.295272,13951
1659432719.334227,14016
1659432719.376258,14083
1659432719.418288,14127
1659432719.462369,14184
1659432719.50645,14239
1659432719.550531,14279
1659432719.589144,14321
1659432719.627757,14364
1659432719.666371,14414
1659432719.708914,14405
1659432719.751457,14250
1659432719.79007,13997
1659432719.828684,13845
1659432719.867297,13806
1659432719.908302,13796
1659432719.949308,13819
1659432719.988263,13848
1659432720.027218,13868
1659432720.066173,13848
1659432720.10547,13864
1659432720.144767,13905
1659432720.184063,13956
1659432720.225069,14032
1659432720.266074,14083
1659432720.305029,14132
1659432720.343984,14186
1659432720.38294,14224
1659432720.424458,14272
1659432720.465975,14330
1659432720.505272,14377
1659432720.544569,14413
1659432720.583866,14462
1659432720.622479,14433
1659432720.661093,14224
1659432720.699706,13973
1659432720.741224,13841
1659432720.782742,13793
1659432720.823747,13779
1659432720.864753,13791
1659432720.903366,13802
1659432720.941979,13802
1659432720.980593,13789
1659432721.025015,13804
1659432721.069438,13842
1659432721.11386,13902
1659432721.146664,13964
1659432721.179469,14033
1659432721.223891,14089
1659432721.268314,14135
1659432721.312736,14194
1659432721.352033,14235
1659432721.39133,14302
1659432721.430627,14345
1659432721.472657,14391
1659432721.514688,14446
1659432721.553301,14444
1659432721.591914,14281
1659432721.630528,14079
1659432721.672046,13980
1659432721.713564,13973
1659432721.752177,14009
1659432721.79079,14059
1659432721.829404,14121
1659432721.867676,14150
1659432721.905947,14162
1659432721.944219,14201
1659432721.983516,14241
1659432722.022812,14302
1659432722.062109,14346
1659432722.10414,14403
1659432722.14617,14439
1659432722.187944,14463
1659432722.229719,14498
1659432722.271493,14521
1659432722.313267,14559
1659432722.355298,14590
1659432722.397328,14627
1659432722.435941,14618
1659432722.474555,14465
1659432722.513168,14241
1659432722.554686,14087
1659432722.596204,14054
1659432722.636184,14044
1659432722.676165,14085
1659432722.716145,14110
1659432722.754758,14116
1659432722.793372,14116
1659432722.831985,14110
1659432722.874016,14143
1659432722.916046,14185
1659432722.955001,14233
1659432722.993956,14276
1659432723.032911,14322
1659432723.074429,14364
1659432723.115947,14392
1659432723.154219,14426
1659432723.192491,14464
1659432723.230762,14491
1659432723.27228,14530
1659432723.313798,14526
1659432723.351728,14369
1659432723.389658,14089
1659432723.427588,13869
1659432723.472352,13777
1659432723.517116,13757
1659432723.561881,13759
1659432723.595197,13783
1659432723.628514,13791
1659432723.672937,13764
1659432723.717359,13763
1659432723.761782,13788
1659432723.802787,13828
1659432723.843792,13904
1659432723.883089,13972
1659432723.922386,14041
1659432723.961683,14097
1659432723.999954,14128
1659432724.038226,14164
1659432724.076498,14211
1659432724.118528,14238
1659432724.160559,14242
1659432724.199514,14172
1659432724.238469,13904
1659432724.277424,13501
1659432724.318429,13239
1659432724.359435,13112
1659432724.397707,13039
1659432724.435978,13011
1659432724.47425,12992
1659432724.513205,12969
1659432724.55216,12922
1659432724.591115,12911
1659432724.633146,12939
1659432724.675176,13001
1659432724.714131,13073
1659432724.753086,13129
1659432724.792042,13213
1659432724.833047,13308
1659432724.874052,13413
1659432724.913691,13492
1659432724.953329,13573
1659432724.992968,13651
1659432725.034486,13736
1659432725.076004,13729
1659432725.114275,13532
1659432725.152547,13268
1659432725.190819,13089
1659432725.232337,13039
1659432725.273854,13018
1659432725.318277,13027
1659432725.3627,13052
1659432725.407122,13045
1659432725.445735,13036
1659432725.484349,13052
1659432725.522962,13086
1659432725.565505,13141
1659432725.608048,13236
1659432725.647003,13312
1659432725.685958,13409
1659432725.724914,13499
1659432725.766431,13580
1659432725.807949,13661
1659432725.847246,13739
1659432725.886543,13812
1659432725.92584,13762
1659432725.965137,13541
1659432726.004433,13286
1659432726.04373,13165
1659432726.084736,13171
1659432726.125741,13177
1659432726.165038,13183
1659432726.204334,13197
1659432726.243631,13188
1659432726.284637,13178
1659432726.325642,13189
1659432726.364255,13218
1659432726.402869,13258
1659432726.441482,13328
1659432726.480437,13392
1659432726.519392,13473
1659432726.558347,13552
1659432726.599353,13628
1659432726.640358,13707
1659432726.684097,13779
1659432726.727836,13851
1659432726.771575,13890
1659432726.805405,13753
1659432726.839234,13476
1659432726.883999,13272
1659432726.928763,13196
1659432726.973527,13172
1659432727.005819,13179
1659432727.03811,13218
1659432727.082533,13237
1659432727.126955,13237
1659432727.171378,13237
1659432727.210675,13277
1659432727.249971,13328
1659432727.289268,13399
1659432727.330786,13483
1659432727.372304,13552
1659432727.410918,13616
1659432727.449531,13676
1659432727.488144,13743
1659432727.526416,13790
1659432727.564687,13856
1659432727.602959,13906
1659432727.641231,13934
1659432727.679503,13809
1659432727.717774,13527
1659432727.75878,13294
1659432727.799785,13232
1659432727.839082,13226
1659432727.878379,13249
1659432727.917675,13289
1659432727.959193,13273
1659432728.000711,13251
1659432728.045817,13237
1659432728.090923,13254
1659432728.136029,13278
1659432728.169346,13321
1659432728.202663,13387
1659432728.247085,13432
1659432728.291508,13495
1659432728.33593,13549
1659432728.374885,13599
1659432728.41384,13622
1659432728.452796,13631
1659432728.495338,13648
1659432728.537882,13642
1659432728.576153,13485
1659432728.614425,13061
1659432728.652697,12706
1659432728.691652,12543
1659432728.730607,12468
1659432728.769562,12424
1659432728.81108,12413
1659432728.852598,12427
1659432728.891553,12397
1659432728.930508,12389
1659432728.969463,12424
1659432729.008076,12480
1659432729.04669,12546
1659432729.085303,12636
1659432729.126821,12703
1659432729.168339,12777
1659432729.207294,12858
1659432729.246249,12933
1659432729.285204,13006
1659432729.327235,13091
1659432729.369265,13154
1659432729.408221,13225
1659432729.447176,13281
1659432729.486131,13170
1659432729.528161,12846
1659432729.570192,12610
1659432729.613931,12535
1659432729.65767,12544
1659432729.701409,12577
1659432729.735238,12616
1659432729.769068,12641
1659432729.813148,12627
1659432729.857229,12623
1659432729.90131,12667
1659432729.939923,12726
1659432729.978537,12807
1659432730.01715,12894
1659432730.058156,12992
1659432730.099161,13080
1659432730.138116,13159
1659432730.177071,13224
1659432730.216026,13288
1659432730.25464,13366
1659432730.293253,13434
1659432730.331866,13485
1659432730.373897,13380
1659432730.415927,13078
1659432730.455224,12808
1659432730.494521,12752
1659432730.533818,12739
1659432730.574823,12742
1659432730.615829,12748
1659432730.6541,12722
1659432730.692372,12665
1659432730.730644,12628
1659432730.769599,12634
1659432730.808554,12668
1659432730.847509,12757
1659432730.889027,12834
1659432730.930545,12918
1659432730.97155,13021
1659432731.012555,13112
1659432731.051852,13206
1659432731.091149,13296
1659432731.130446,13404
1659432731.174868,13429
1659432731.219291,13296
1659432731.263713,13105
1659432731.29703,13034
1659432731.330347,13091
1659432731.375795,13149
1659432731.421242,13240
1659432731.46669,13271
1659432731.499494,13246
1659432731.532298,13226
1659432731.576721,13235
1659432731.621143,13279
1659432731.665566,13340
1659432731.704863,13417
1659432731.744159,13494
1659432731.783456,13564
1659432731.825487,13619
1659432731.867517,13676
1659432731.905447,13720
1659432731.943377,13595
1659432731.981307,13292
1659432732.023338,13037
1659432732.065368,12955
1659432732.103981,12954
1659432732.142595,12987
1659432732.181208,13016
1659432732.220505,13024
1659432732.259802,13038
1659432732.299099,13058
1659432732.340617,13118
1659432732.382135,13179
1659432732.42109,13238
1659432732.460045,13298
1659432732.499,13347
1659432732.540005,13394
1659432732.581011,13438
1659432732.620649,13493
1659432732.660288,13542
1659432732.699926,13465
1659432732.741444,13158
1659432732.782962,12829
1659432732.821575,12708
1659432732.860189,12692
1659432732.898802,12697
1659432732.943225,12729
1659432732.987647,12774
1659432733.03207,12762
1659432733.065387,12762
1659432733.098703,12779
1659432733.142442,12830
1659432733.186182,12912
1659432733.229921,12987
1659432733.268534,13062
1659432733.307147,13142
1659432733.345761,13216
1659432733.384032,13275
1659432733.422304,13340
1659432733.460576,13382
1659432733.502094,13312
1659432733.543612,13002
1659432733.582225,12665
1659432733.620838,12535
1659432733.659452,12518
1659432733.701995,12531
1659432733.744538,12571
1659432733.783151,12630
1659432733.821765,12615
1659432733.860378,12616
1659432733.901896,12653
1659432733.943414,12713
1659432733.982027,12789
1659432734.020641,12881
1659432734.059254,12962
1659432734.101797,13038
1659432734.14434,13125
1659432734.182612,13197
1659432734.220884,13271
1659432734.259155,13344
1659432734.303919,13414
1659432734.348684,13400
1659432734.393448,13153
1659432734.426252,12923
1659432734.459056,12853
1659432734.503479,12882
1659432734.547901,12881
1659432734.592324,12861
1659432734.626153,12803
1659432734.659983,12713
1659432734.704747,12653
1659432734.749511,12606
1659432734.794275,12640
1659432734.832889,12687
1659432734.871502,12738
1659432734.910115,12795
1659432734.951633,12868
1659432734.993151,12952
1659432735.031765,13035
1659432735.070378,13113
1659432735.108991,13169
1659432735.151022,13242
1659432735.193053,13279
1659432735.231666,13069
1659432735.270279,12701
1659432735.308892,12459
1659432735.347848,12429
1659432735.386803,12458
1659432735.425758,12529
1659432735.466251,12619
1659432735.506743,12667
1659432735.546382,12693
1659432735.58602,12753
1659432735.625659,12839
1659432735.667177,12955
1659432735.708695,13067
1659432735.746967,13182
1659432735.785238,13280
1659432735.82351,13354
1659432735.865028,13435
1659432735.906546,13491
1659432735.946526,13545
1659432735.986506,13585
1659432736.026486,13615
1659432736.067492,13518
1659432736.108497,13112
1659432736.15292,12564
1659432736.197342,12264
1659432736.241765,12157
1659432736.28072,12123
1659432736.319675,12118
1659432736.35863,12098
1659432736.399123,12065
1659432736.439615,12057
1659432736.478229,12097
1659432736.516842,12155
1659432736.555456,12238
1659432736.594411,12303
1659432736.633366,12380
1659432736.672321,12464
1659432736.712814,12535
1659432736.753307,12629
1659432736.792262,12729
1659432736.831217,12817
1659432736.870172,12824
1659432736.909127,12546
1659432736.948082,12152
1659432736.987037,11910
1659432737.029068,11861
1659432737.071098,11854
1659432737.110053,11873
1659432737.149008,11899
1659432737.187963,11869
1659432737.229994,11790
1659432737.272024,11722
1659432737.310296,11698
1659432737.348568,11701
1659432737.386839,11727
1659432737.429383,11765
1659432737.471925,11817
1659432737.51669,11893
1659432737.561454,11973
1659432737.606218,12054
1659432737.63851,12137
1659432737.670802,12177
1659432737.714541,12024
1659432737.75828,11603
1659432737.802019,11278
1659432737.836361,11215
1659432737.870703,11275
1659432737.910683,11374
1659432737.950663,11486
1659432737.990644,11550
1659432738.030624,11566
1659432738.070604,11581
1659432738.112634,11608
1659432738.154665,11653
1659432738.196695,11737
1659432738.238726,11834
1659432738.277339,11911
1659432738.315953,11952
1659432738.354566,11956
1659432738.398988,11956
1659432738.443411,11978
1659432738.487833,12031
1659432738.521663,12039
1659432738.555492,11797
1659432738.599573,11281
1659432738.643654,10907
1659432738.687735,10755
1659432738.720539,10712
1659432738.753343,10723
1659432738.797766,10749
1659432738.842188,10755
1659432738.886611,10732
1659432738.925224,10754
1659432738.963837,10803
1659432739.002451,10891
1659432739.041406,10961
1659432739.080361,11065
1659432739.119316,11186
1659432739.161859,11281
1659432739.204402,11364
1659432739.243016,11440
1659432739.281629,11523
1659432739.320242,11598
1659432739.361248,11637
1659432739.402253,11381
1659432739.440866,10931
1659432739.47948,10621
1659432739.518093,10493
1659432739.557049,10455
1659432739.596004,10482
1659432739.634959,10550
1659432739.676476,10581
1659432739.717994,10609
1659432739.759,10633
1659432739.800005,10677
1659432739.83896,10781
1659432739.877915,10882
1659432739.916871,10983
1659432739.96061,11080
1659432740.004349,11205
1659432740.048088,11300
1659432740.081917,11397
1659432740.115746,11499
1659432740.160511,11599
1659432740.205275,11695
1659432740.250039,11633
1659432740.283356,11290
1659432740.316673,10942
1659432740.361437,10810
1659432740.406201,10794
1659432740.450965,10829
1659432740.490262,10898
1659432740.529559,10946
1659432740.568856,10953
1659432740.610374,10982
1659432740.651892,11035
1659432740.690505,11106
1659432740.729119,11212
1659432740.767732,11318
1659432740.808737,11436
1659432740.849743,11534
1659432740.888356,11629
1659432740.926969,11696
1659432740.965583,11741
1659432741.004538,11780
1659432741.043493,11849
1659432741.082448,11875
1659432741.124479,11672
1659432741.166509,11377
1659432741.205464,11225
1659432741.244419,11260
1659432741.283374,11348
1659432741.32438,11462
1659432741.365385,11520
1659432741.405365,11543
1659432741.445346,11558
1659432741.485326,11566
1659432741.526844,11625
1659432741.568362,11698
1659432741.606975,11805
1659432741.645588,11919
1659432741.684202,12053
1659432741.72572,12164
1659432741.767238,12279
1659432741.81166,12400
1659432741.856083,12516
1659432741.900505,12622
1659432741.939118,12685
1659432741.977732,12522
1659432742.016345,12160
1659432742.057863,11928
1659432742.099381,11850
1659432742.137995,11868
1659432742.176608,11937
1659432742.215221,11986
1659432742.253493,11995
1659432742.291764,11953
1659432742.330036,11936
1659432742.372579,11945
1659432742.415123,11990
1659432742.453736,12055
1659432742.492349,12151
1659432742.530962,12253
1659432742.571968,12364
1659432742.612973,12495
1659432742.65227,12588
1659432742.691567,12681
1659432742.730864,12754
1659432742.769819,12677
1659432742.808774,12438
1659432742.847729,12254
1659432742.889247,12220
1659432742.930765,12242
1659432742.969378,12299
1659432743.007992,12350
1659432743.046605,12399
1659432743.088123,12419
1659432743.129641,12452
1659432743.170902,12502
1659432743.212164,12591
1659432743.253426,12688
1659432743.294688,12793
1659432743.333643,12902
1659432743.372598,13001
1659432743.411553,13096
1659432743.453071,13185
1659432743.494589,13281
1659432743.533544,13369
1659432743.572499,13384
1659432743.611454,13213
1659432743.653484,13031
1659432743.695515,12988
1659432743.73447,13044
1659432743.773425,13110
1659432743.81238,13169
1659432743.851335,13185
1659432743.89029,13161
1659432743.929245,13138
1659432743.971276,13132
1659432744.013307,13144
1659432744.054825,13163
1659432744.096342,13172
1659432744.134614,13178
1659432744.172886,13161
1659432744.211157,13127
1659432744.25558,13109
1659432744.300002,13101
1659432744.344425,12988
1659432744.378254,12600
1659432744.412084,12172
1659432744.456165,11955
1659432744.500245,11881
1659432744.544326,11860
1659432744.583281,11884
1659432744.622236,11900
1659432744.661191,11896
1659432744.703222,11935
1659432744.745252,12022
1659432744.783866,12136
1659432744.822479,12264
1659432744.861093,12382
1659432744.903123,12494
1659432744.945153,12612
1659432744.984109,12724
1659432745.023064,12837
1659432745.062019,12960
1659432745.100632,13033
1659432745.139246,12900
1659432745.177859,12614
1659432745.218352,12428
1659432745.258845,12376
1659432745.2978,12366
1659432745.336755,12380
1659432745.37571,12431
1659432745.41774,12462
1659432745.459771,12428
1659432745.497701,12426
1659432745.535631,12472
1659432745.573561,12519
1659432745.615079,12544
1659432745.656597,12569
1659432745.695893,12605
1659432745.73519,12643
1659432745.774487,12718
1659432745.818568,12786
1659432745.862648,12851
1659432745.906729,12813
1659432745.940559,12564
1659432745.974388,12290
1659432746.019152,12165
1659432746.063916,12127
1659432746.108681,12120
1659432746.14046,12183
1659432746.172239,12248
1659432746.216661,12284
1659432746.261084,12291
1659432746.305506,12319
1659432746.344462,12397
1659432746.383417,12481
1659432746.422372,12559
1659432746.46389,12644
1659432746.505408,12730
1659432746.544363,12790
1659432746.583318,12861
1659432746.622273,12936
1659432746.663278,13015
1659432746.704284,13086
1659432746.742555,13010
1659432746.780827,12713
1659432746.819099,12453
1659432746.858737,12361
1659432746.898376,12313
1659432746.938014,12317
1659432746.980045,12370
1659432747.022075,12418
1659432747.060689,12441
1659432747.099302,12457
1659432747.137915,12500
1659432747.179946,12575
1659432747.221977,12654
1659432747.261615,12721
1659432747.301254,12776
1659432747.340892,12825
1659432747.381385,12861
1659432747.421878,12896
1659432747.460491,12904
1659432747.499104,12942
1659432747.537718,12986
1659432747.579236,13089
1659432747.620754,13156
1659432747.665176,13004
1659432747.709599,12774
1659432747.754021,12654
1659432747.793318,12612
1659432747.832615,12589
1659432747.871912,12644
1659432747.913942,12747
1659432747.955972,12840
1659432747.994586,12929
1659432748.033199,13015
1659432748.071813,13113
1659432748.110426,13215
1659432748.149039,13293
1659432748.187653,13369
1659432748.230196,13451
1659432748.272739,13520
1659432748.311011,13615
1659432748.349282,13686
1659432748.387554,13757
1659432748.427124,13830
1659432748.466694,13917
1659432748.506264,13984
1659432748.545835,14039
1659432748.585405,13997
1659432748.624018,13792
1659432748.662632,13623
1659432748.701245,13542
1659432748.744984,13489
1659432748.788723,13457
1659432748.832462,13443
1659432748.871759,13419
1659432748.911056,13367
1659432748.950353,13293
1659432748.99187,13222
1659432749.033388,13209
1659432749.072344,13211
1659432749.111299,13224
1659432749.150254,13263
1659432749.192284,13278
1659432749.234315,13291
1659432749.27327,13324
1659432749.312225,13356
1659432749.35118,13373
1659432749.390135,13408
1659432749.42909,13455
1659432749.468045,13509
1659432749.510076,13471
1659432749.552106,13198
1659432749.591061,12830
1659432749.630017,12646
1659432749.668972,12615
1659432749.709464,12608
1659432749.749957,12649
1659432749.789254,12688
1659432749.828551,12691
1659432749.867848,12631
1659432749.909878,12609
1659432749.951909,12632
1659432749.989839,12681
1659432750.027769,12762
1659432750.065698,12856
1659432750.107216,12953
1659432750.148734,13035
1659432750.188715,13131
1659432750.228695,13224
1659432750.268675,13325
1659432750.313097,13447
1659432750.35752,13560
1659432750.401942,13644
1659432750.434747,13561
1659432750.467551,13333
1659432750.512999,13182
1659432750.558446,13174
1659432750.603894,13187
1659432750.644387,13211
1659432750.68488,13257
1659432750.724176,13282
1659432750.763473,13282
1659432750.80277,13310
1659432750.844288,13369
1659432750.885806,13450
1659432750.924419,13546
1659432750.963032,13619
1659432751.001646,13689
1659432751.039576,13739
1659432751.077506,13790
1659432751.115436,13837
1659432751.158491,13890
1659432751.201547,13956
1659432751.24016,14024
1659432751.278774,14099
1659432751.317387,14085
1659432751.356342,13869
1659432751.395298,13580
1659432751.434253,13415
1659432751.47577,13340
1659432751.517288,13289
1659432751.555902,13275
1659432751.594515,13312
1659432751.633129,13345
1659432751.674647,13395
1659432751.716164,13484
1659432751.75512,13580
1659432751.794075,13705
1659432751.83303,13805
1659432751.874035,13875
1659432751.91504,13936
1659432751.95878,13989
1659432752.002519,14032
1659432752.046258,14062
1659432752.0806,14100
1659432752.114942,14133
1659432752.159364,14183
1659432752.203787,14212
1659432752.248209,14126
1659432752.286481,13865
1659432752.324752,13611
1659432752.363024,13508
1659432752.405055,13470
1659432752.447085,13472
1659432752.485698,13519
1659432752.524312,13569
1659432752.562925,13582
1659432752.601539,13590
1659432752.640152,13640
1659432752.678766,13701
1659432752.720796,13772
1659432752.762826,13836
1659432752.802123,13897
1659432752.84142,13964
1659432752.880717,14022
1659432752.92121,14080
1659432752.961702,14122
1659432753.000658,14185
1659432753.039613,14235
1659432753.078568,14297
1659432753.117865,14326
1659432753.157161,14217
1659432753.196458,13981
1659432753.237976,13829
1659432753.279494,13797
1659432753.318107,13806
1659432753.356721,13841
1659432753.395334,13877
1659432753.437365,13900
1659432753.479395,13880
1659432753.523818,13885
1659432753.56824,13932
1659432753.612663,13994
1659432753.646492,14056
1659432753.680321,14105
1659432753.720507,14176
1659432753.760692,14234
1659432753.800877,14308
1659432753.841063,14346
1659432753.881248,14392
1659432753.922766,14441
1659432753.964284,14492
1659432754.002897,14538
1659432754.04151,14481
1659432754.080124,14276
1659432754.120617,14127
1659432754.161109,14111
1659432754.20519,14142
1659432754.249271,14198
1659432754.293352,14248
1659432754.327181,14259
1659432754.361011,14263
1659432754.405091,14274
1659432754.449172,14299
1659432754.493253,14348
1659432754.531866,14396
1659432754.57048,14443
1659432754.609093,14488
1659432754.650611,14543
1659432754.692129,14591
1659432754.731084,14626
1659432754.770039,14655
1659432754.808994,14700
1659432754.851025,14735
1659432754.893055,14779
1659432754.93201,14766
1659432754.970965,14599
1659432755.00992,14403
1659432755.048534,14314
1659432755.087147,14344
1659432755.125761,14369
1659432755.166766,14423
1659432755.207771,14465
1659432755.246385,14479
1659432755.284998,14485
1659432755.323611,14529
1659432755.365129,14565
1659432755.406647,14615
1659432755.445261,14675
1659432755.483874,14712
1659432755.522487,14755
1659432755.563493,14800
1659432755.604498,14824
1659432755.644137,14849
1659432755.683775,14889
1659432755.723414,14912
1659432755.764932,14962
1659432755.80645,14960
1659432755.844721,14817
1659432755.882993,14641
1659432755.921265,14562
1659432755.966371,14558
1659432756.011477,14584
1659432756.056582,14623
1659432756.090412,14652
1659432756.124241,14658
1659432756.169005,14645
1659432756.21377,14651
1659432756.258534,14696
1659432756.299539,14729
1659432756.340544,14769
1659432756.379841,14807
1659432756.419138,14861
1659432756.458435,14887
1659432756.496365,14921
1659432756.534295,14959
1659432756.572225,14981
1659432756.614768,15027
1659432756.657311,15057
1659432756.696266,15070
1659432756.735221,14914
1659432756.774176,14726
1659432756.812448,14647
1659432756.85072,14654
1659432756.888991,14662
1659432756.931022,14687
1659432756.973052,14723
1659432757.012349,14713
1659432757.051646,14715
1659432757.090943,14713
1659432757.132461,14740
1659432757.173979,14791
1659432757.212934,14800
1659432757.251889,14816
1659432757.290844,14829
1659432757.332362,14862
1659432757.37388,14883
1659432757.412151,14909
1659432757.450423,14925
1659432757.488695,14972
1659432757.530725,15019
1659432757.572756,15049
1659432757.611711,14943
1659432757.650666,14749
1659432757.689621,14635
1659432757.73336,14577
1659432757.777099,14565
1659432757.820838,14571
1659432757.859793,14598
1659432757.898748,14616
1659432757.937704,14615
1659432757.979222,14622
1659432758.020739,14663
1659432758.059353,14688
1659432758.097966,14725
1659432758.13658,14773
1659432758.17861,14813
1659432758.220641,14866
1659432758.259596,14910
1659432758.298551,14965
1659432758.337506,15027
1659432758.375777,15068
1659432758.414049,15113
1659432758.452321,15131
1659432758.492814,15009
1659432758.533307,14861
1659432758.572945,14789
1659432758.612584,14804
1659432758.652222,14827
1659432758.693227,14870
1659432758.734233,14897
1659432758.772846,14883
1659432758.81146,14889
1659432758.850073,14911
1659432758.892103,14953
1659432758.934134,14979
1659432758.973773,15007
1659432759.013411,15017
1659432759.05305,15064
1659432759.097472,15082
1659432759.141894,15111
1659432759.186317,15140
1659432759.228348,15176
1659432759.270378,15214
1659432759.309333,15226
1659432759.348288,15186
1659432759.387243,15041
1659432759.426198,14943
1659432759.465153,14955
1659432759.504108,15010
1659432759.546652,15057
1659432759.589195,15096
1659432759.62815,15119
1659432759.667105,15085
1659432759.70606,15088
1659432759.744332,15112
1659432759.782603,15149
1659432759.820875,15188
1659432759.86188,15216
1659432759.902886,15252
1659432759.941841,15269
1659432759.980796,15299
1659432760.019751,15315
1659432760.061269,15320
1659432760.102787,15333
1659432760.1414,15341
1659432760.180014,15267
1659432760.218627,15056
1659432760.26117,14872
1659432760.303713,14796
1659432760.342327,14802
1659432760.38094,14798
1659432760.419553,14781
1659432760.461071,14731
1659432760.502589,14672
1659432760.542228,14642
1659432760.581866,14638
1659432760.621505,14642
1659432760.66251,14635
1659432760.703516,14610
1659432760.744521,14532
1659432760.785526,14450
1659432760.824481,14391
1659432760.863436,14375
1659432760.902391,14393
1659432760.943397,14372
1659432760.984402,14255
1659432761.022332,14152
1659432761.060262,14147
1659432761.098192,14168
1659432761.140735,14165
1659432761.183278,14142
1659432761.222233,14147
1659432761.261189,14145
1659432761.300143,14151
1659432761.344224,14177
1659432761.388305,14242
1659432761.432386,14324
1659432761.473904,14426
1659432761.515422,14509
1659432761.554718,14568
1659432761.594015,14631
1659432761.633312,14686
1659432761.671242,14731
1659432761.709172,14767
1659432761.747102,14705
1659432761.789645,14532
1659432761.832188,14404
1659432761.870801,14383
1659432761.909415,14387
1659432761.948028,14413
1659432761.9863,14422
1659432762.024572,14405
1659432762.062843,14367
1659432762.104361,14358
1659432762.145879,14380
1659432762.185176,14411
1659432762.224473,14464
1659432762.26377,14485
1659432762.305288,14516
1659432762.346806,14549
1659432762.386102,14590
1659432762.425399,14646
1659432762.464696,14663
1659432762.506727,14546
1659432762.548757,14321
1659432762.587712,14182
1659432762.626667,14154
1659432762.665622,14156
1659432762.70714,14164
1659432762.748658,14189
1659432762.793764,14180
1659432762.83887,14150
1659432762.883976,14125
1659432762.916267,14104
1659432762.948559,14090
1659432762.992982,14111
1659432763.037404,14140
1659432763.081827,14178
1659432763.12044,14238
1659432763.159053,14295
1659432763.197667,14326
1659432763.239697,14282
1659432763.281728,14043
1659432763.319999,13858
1659432763.358271,13848
1659432763.396543,13935
1659432763.438573,14015
1659432763.480604,14096
1659432763.519217,14141
1659432763.557831,14144
1659432763.596444,14159
1659432763.635741,14175
1659432763.675038,14212
1659432763.714334,14265
1659432763.755852,14313
1659432763.79737,14357
1659432763.836325,14374
1659432763.87528,14398
1659432763.914236,14395
1659432763.952507,14332
1659432763.990779,13984
1659432764.029051,13500
1659432764.071081,13235
1659432764.113111,13135
1659432764.152067,13097
1659432764.191022,13101
1659432764.229977,13110
1659432764.27047,13095
1659432764.310962,13122
1659432764.354702,13169
1659432764.398441,13242
1659432764.44218,13337
1659432764.476522,13415
1659432764.510864,13487
1659432764.554945,13534
1659432764.599025,13592
1659432764.643106,13669
1659432764.67591,13729
1659432764.708714,13635
1659432764.753479,13305
1659432764.798243,13057
1659432764.843007,12973
1659432764.882304,12976
1659432764.921601,13012
1659432764.960897,13072
1659432765.002415,13110
1659432765.043933,13111
1659432765.08323,13113
1659432765.122527,13159
1659432765.161824,13219
1659432765.202829,13279
1659432765.243834,13369
1659432765.282106,13428
1659432765.320378,13503
1659432765.358649,13569
1659432765.397946,13624
1659432765.437243,13695
1659432765.47654,13672
1659432765.51857,13412
1659432765.560601,13152
1659432765.598873,13104
1659432765.637144,13137
1659432765.675416,13200
1659432765.717959,13275
1659432765.760502,13326
1659432765.799116,13323
1659432765.837729,13338
1659432765.876342,13385
1659432765.91786,13446
1659432765.959378,13529
1659432765.998675,13603
1659432766.037972,13679
1659432766.077269,13726
1659432766.119299,13791
1659432766.16133,13849
1659432766.199601,13908
1659432766.237873,13963
1659432766.276145,13877
1659432766.320909,13476
1659432766.365673,13105
1659432766.410437,12986
1659432766.45298,12989
1659432766.495523,13043
1659432766.533453,13144
1659432766.571383,13216
1659432766.609313,13241
1659432766.650319,13270
1659432766.691324,13315
1659432766.730963,13334
1659432766.770601,13364
1659432766.81024,13340
1659432766.848511,13294
1659432766.886783,13232
1659432766.925055,13186
1659432766.967598,13161
1659432767.010141,13148
1659432767.049096,13154
1659432767.088051,13173
1659432767.127006,12988
1659432767.168011,12537
1659432767.209017,12199
1659432767.247288,12070
1659432767.28556,12032
1659432767.323832,12027
1659432767.363128,12052
1659432767.402425,12100
1659432767.441722,12140
1659432767.482215,12222
1659432767.522708,12341
1659432767.561321,12513
1659432767.599935,12696
1659432767.638548,12879
1659432767.680066,13046
1659432767.721584,13150
1659432767.76088,13241
1659432767.800177,13330
1659432767.839474,13425
1659432767.883897,13519
1659432767.928319,13597
1659432767.972742,13541
1659432768.014772,13317
1659432768.056803,13183
1659432768.095416,13153
1659432768.134029,13170
1659432768.172643,13205
1659432768.214673,13248
1659432768.256704,13248
1659432768.296342,13230
1659432768.335981,13217
1659432768.375619,13242
1659432768.414233,13292
1659432768.452846,13358
1659432768.49146,13428
1659432768.531952,13492
1659432768.572445,13560
1659432768.6114,13616
1659432768.650355,13684
1659432768.68931,13753
1659432768.728266,13799
1659432768.76722,13862
1659432768.806176,13755
1659432768.847694,13498
1659432768.889212,13295
1659432768.928167,13262
1659432768.967122,13313
1659432769.006077,13369
1659432769.04862,13433
1659432769.091163,13471
1659432769.129435,13478
1659432769.167706,13501
1659432769.205978,13577
1659432769.248008,13649
1659432769.290039,13721
1659432769.334803,13781
1659432769.379567,13853
1659432769.424332,13903
1659432769.462945,13977
1659432769.501558,14029
1659432769.540172,14096
1659432769.578785,14161
1659432769.617399,14154
1659432769.656012,13964
1659432769.69753,13743
1659432769.739048,13675
1659432769.777319,13693
1659432769.815591,13725
1659432769.853863,13770
1659432769.89316,13803
1659432769.932456,13802
1659432769.971753,13790
1659432770.013271,13821
1659432770.054789,13865
1659432770.093061,13917
1659432770.131332,13965
1659432770.169604,14007
1659432770.210609,14066
1659432770.251615,14115
1659432770.291595,14152
1659432770.331575,14188
1659432770.371556,14245
1659432770.412561,14293
1659432770.453566,14272
1659432770.492521,14041
1659432770.531476,13769
1659432770.570431,13682
1659432770.611949,13730
1659432770.653467,13823
1659432770.692422,13927
1659432770.731378,14009
1659432770.770333,14038
1659432770.814072,14083
1659432770.857811,14113
1659432770.90155,14147
1659432770.94358,14193
1659432770.985611,14216
1659432771.023883,14244
1659432771.062154,14300
1659432771.100426,14341
1659432771.139039,14397
1659432771.177653,14491
1659432771.216266,14548
1659432771.259322,14604
1659432771.302377,14656
1659432771.340991,14629
1659432771.379604,14386
1659432771.418217,14172
1659432771.459223,14139
1659432771.500228,14160
1659432771.539525,14196
1659432771.578822,14229
1659432771.618119,14258
1659432771.65639,14274
1659432771.694662,14275
1659432771.732934,14292
1659432771.775477,14311
1659432771.81802,14346
1659432771.856633,14390
1659432771.895247,14448
1659432771.93386,14496
1659432771.975378,14552
1659432772.016896,14639
1659432772.055167,14709
1659432772.093439,14793
1659432772.131711,14827
1659432772.174254,14813
1659432772.216797,14696
1659432772.261561,14669
1659432772.306325,14759
1659432772.351089,14843
1659432772.383894,14891
1659432772.416698,14907
1659432772.461462,14916
1659432772.506227,14914
1659432772.550991,14923
1659432772.589946,14953
1659432772.628901,14968
1659432772.667856,14979
1659432772.709374,14995
1659432772.750892,15027
1659432772.789847,15046
1659432772.828802,15085
1659432772.867757,15092
1659432772.908762,15125
1659432772.949768,15143
1659432772.988039,15110
1659432773.026311,15003
1659432773.064583,14898
1659432773.102854,14878
1659432773.141126,14904
1659432773.179398,14950
1659432773.221428,14983
1659432773.263459,15006
1659432773.301731,15003
1659432773.340002,15009
1659432773.378274,14995
1659432773.417229,15008
1659432773.456184,15018
1659432773.495139,15044
1659432773.536144,15068
1659432773.57715,15067
1659432773.621572,15103
1659432773.665995,15130
1659432773.710418,15150
1659432773.744247,15134
1659432773.778076,14991
1659432773.82284,14865
1659432773.867605,14843
1659432773.912369,14838
1659432773.945173,14817
1659432773.977978,14838
1659432774.021716,14810
1659432774.065455,14780
1659432774.109195,14740
1659432774.148491,14704
1659432774.187788,14703
1659432774.227085,14722
1659432774.268603,14778
1659432774.310121,14852
1659432774.348392,14923
1659432774.386664,14961
1659432774.424936,15001
1659432774.466966,15011
1659432774.508997,14980
1659432774.548635,14768
1659432774.588274,14424
1659432774.627913,14121
1659432774.666526,13950
1659432774.705139,13872
1659432774.743753,13871
1659432774.78527,13928
1659432774.826788,13990
1659432774.866085,14034
1659432774.905382,14087
1659432774.944679,14141
1659432774.982609,14192
1659432775.020539,14249
1659432775.058469,14304
1659432775.101524,14332
1659432775.14458,14351
1659432775.186098,14373
1659432775.227616,14403
1659432775.265546,14422
1659432775.303476,14312
1659432775.341406,14140
1659432775.385828,14069
1659432775.430251,14073
1659432775.474673,14104
1659432775.509015,14168
1659432775.543357,14244
1659432775.58778,14271
1659432775.632202,14283
1659432775.676625,14253
1659432775.709942,14264
1659432775.743258,14296
1659432775.788364,14342
1659432775.83347,14424
1659432775.878576,14474
1659432775.916848,14523
1659432775.955119,14552
1659432775.993391,14594
1659432776.034909,14615
1659432776.076427,14575
1659432776.115724,14286
1659432776.155021,13842
1659432776.194317,13516
1659432776.23481,13324
1659432776.275303,13181
1659432776.313916,13131
1659432776.35253,13151
1659432776.391143,13165
1659432776.429415,13142
1659432776.467686,13126
1659432776.505958,13137
1659432776.547989,13167
1659432776.590019,13199
1659432776.628291,13269
1659432776.666563,13363
1659432776.704834,13443
1659432776.746865,13516
1659432776.788895,13606
1659432776.827509,13705
1659432776.866122,13724
1659432776.904735,13553
1659432776.946766,13277
1659432776.988796,13143
1659432777.028093,13115
1659432777.06739,13113
1659432777.106687,13195
1659432777.148205,13297
1659432777.189723,13350
1659432777.227994,13363
1659432777.266266,13399
1659432777.304538,13465
1659432777.34896,13569
1659432777.393383,13663
1659432777.437805,13720
1659432777.479836,13765
1659432777.521866,13797
1659432777.560479,13824
1659432777.599093,13864
1659432777.637706,13914
1659432777.67632,13918
1659432777.714933,13733
1659432777.753546,13317
1659432777.795577,13082
1659432777.837607,13097
1659432777.876563,13158
1659432777.915518,13228
1659432777.954473,13328
1659432777.996503,13413
1659432778.038534,13439
1659432778.077489,13463
1659432778.116444,13504
1659432778.155399,13556
1659432778.194696,13613
1659432778.233993,13663
1659432778.273289,13707
1659432778.31532,13764
1659432778.35735,13817
1659432778.396647,13861
1659432778.435944,13899
1659432778.475241,13861
1659432778.515734,13616
1659432778.556226,13273
1659432778.59484,13058
1659432778.633453,12952
1659432778.672067,12878
1659432778.71461,12883
1659432778.757153,12943
1659432778.801234,13039
1659432778.845314,13153
1659432778.889395,13261
1659432778.922199,13351
1659432778.955004,13425
1659432778.999426,13510
1659432779.043849,13574
1659432779.088271,13642
1659432779.126884,13708
1659432779.165498,13764
1659432779.204111,13818
1659432779.246142,13874
1659432779.288172,13834
1659432779.326786,13670
1659432779.365399,13589
1659432779.404012,13594
1659432779.44553,13626
1659432779.487048,13656
1659432779.52532,13718
1659432779.563592,13784
1659432779.601863,13833
1659432779.640818,13876
1659432779.679774,13924
1659432779.718729,13968
1659432779.760759,14011
1659432779.80279,14069
1659432779.840719,14091
1659432779.878649,14125
1659432779.916579,14151
1659432779.955876,14177
1659432779.995173,14201
1659432780.03447,14225
1659432780.078892,14094
1659432780.123315,13800
1659432780.167737,13525
1659432780.208743,13403
1659432780.249748,13360
1659432780.288703,13349
1659432780.327658,13387
1659432780.366613,13414
1659432780.409156,13401
1659432780.451699,13376
1659432780.489971,13357
1659432780.528243,13382
1659432780.566514,13426
1659432780.60547,13482
1659432780.644425,13523
1659432780.68338,13550
1659432780.724385,13584
1659432780.765391,13626
1659432780.804004,13691
1659432780.842617,13741
1659432780.881231,13651
1659432780.923261,13351
1659432780.965292,13081
1659432781.003905,12964
1659432781.042518,12974
1659432781.081132,13078
1659432781.120087,13197
1659432781.159042,13296
1659432781.197997,13351
1659432781.24054,13431
1659432781.283083,13524
1659432781.32238,13626
1659432781.361677,13693
1659432781.400974,13757
1659432781.441979,13828
1659432781.482985,13894
1659432781.522281,13953
1659432781.561578,14006
1659432781.600875,14049
1659432781.643418,14013
1659432781.685961,13776
1659432781.7297,13509
1659432781.773439,13420
1659432781.817178,13450
1659432781.84947,13501
1659432781.881762,13567
1659432781.926526,13615
1659432781.97129,13620
1659432782.016054,13607
1659432782.053984,13612
1659432782.091914,13632
1659432782.129844,13666
1659432782.172387,13717
1659432782.21493,13760
1659432782.253544,13814
1659432782.292157,13875
1659432782.33077,13928
1659432782.372288,13967
1659432782.413806,14001
1659432782.45242,13916
1659432782.491033,13661
1659432782.529646,13452
1659432782.568943,13359
1659432782.60824,13329
1659432782.647537,13335
1659432782.689055,13385
1659432782.730573,13446
1659432782.769186,13456
1659432782.807799,13499
1659432782.846413,13571
1659432782.884685,13636
1659432782.922956,13685
1659432782.961228,13716
1659432783.002746,13749
1659432783.044264,13769
1659432783.082536,13801
1659432783.120807,13818
1659432783.159079,13853
1659432783.200597,13819
1659432783.242115,13600
1659432783.286195,13361
1659432783.330276,13283
1659432783.374357,13312
1659432783.407674,13363
1659432783.440991,13406
1659432783.485413,13424
1659432783.529836,13428
1659432783.574258,13455
1659432783.6086,13491
1659432783.642942,13581
1659432783.687023,13682
1659432783.731104,13774
1659432783.775184,13848
1659432783.814481,13914
1659432783.853778,13974
1659432783.893075,14015
1659432783.93408,14069
1659432783.975085,14067
1659432784.014041,13898
1659432784.052996,13696
1659432784.091951,13603
1659432784.133981,13589
1659432784.176012,13614
1659432784.215309,13656
1659432784.254606,13728
1659432784.293902,13757
1659432784.332174,13759
1659432784.370445,13782
1659432784.408717,13831
1659432784.450235,13901
1659432784.491753,13996
1659432784.531733,14054
1659432784.571714,14086
1659432784.611694,14123
1659432784.652699,14148
1659432784.693705,14187
1659432784.731976,14217
1659432784.770248,14158
1659432784.80852,14019
1659432784.851063,13972
1659432784.893606,13978
1659432784.932561,13968
1659432784.971516,13977
1659432785.010471,14015
1659432785.050964,14045
1659432785.091457,14060
1659432785.130412,14114
1659432785.169367,14176
1659432785.208322,14248
1659432785.24984,14295
1659432785.291358,14330
1659432785.332876,14362
1659432785.374394,14387
1659432785.413007,14411
1659432785.45162,14445
1659432785.490234,14475
1659432785.532264,14460
1659432785.574295,14289
1659432785.612566,14073
1659432785.650838,13973
1659432785.68911,13921
1659432785.73114,13910
1659432785.773171,13934
1659432785.812126,13971
1659432785.851081,13977
1659432785.890036,13984
1659432785.931554,13984
1659432785.973072,14017
1659432786.011685,14133
1659432786.050299,14269
1659432786.088912,14416
1659432786.131455,14528
1659432786.173998,14562
1659432786.218079,14587
1659432786.26216,14665
1659432786.306241,14695
1659432786.344171,14686
1659432786.382101,14578
1659432786.42003,14433
1659432786.462061,14366
1659432786.504092,14375
1659432786.542363,14365
1659432786.580635,14331
1659432786.618906,14271
1659432786.658203,14211
1659432786.6975,14122
1659432786.736797,14056
1659432786.778827,14019
1659432786.820858,13996
1659432786.859813,13999
1659432786.898768,13992
1659432786.937723,14035
1659432786.978729,14106
1659432787.019734,14189
1659432787.059372,14269
1659432787.099011,14332
1659432787.138649,14284
1659432787.177605,14095
1659432787.21656,13925
1659432787.255515,13792
1659432787.29652,13722
1659432787.337526,13724
1659432787.376481,13804
1659432787.415436,13913
1659432787.454391,13975
1659432787.496421,14012
1659432787.538452,14034
1659432787.582533,14018
1659432787.626613,14021
1659432787.670694,14056
1659432787.703498,14119
1659432787.736303,14189
1659432787.781409,14267
1659432787.826514,14333
1659432787.87162,14382
1659432787.904937,14332
1659432787.938254,14200
1659432787.982677,14164
1659432788.027099,14195
1659432788.071522,14270
1659432788.104838,14342
1659432788.138155,14426
1659432788.182578,14468
1659432788.227,14507
1659432788.271423,14552
1659432788.310036,14595
1659432788.34865,14651
1659432788.387263,14701
1659432788.429806,14743
1659432788.472349,14801
1659432788.510621,14845
1659432788.548892,14882
1659432788.587164,14931
1659432788.625777,14912
1659432788.664391,14759
1659432788.703004,14655
1659432788.743497,14622
1659432788.78399,14644
1659432788.823287,14692
1659432788.862583,14756
1659432788.90188,14798
1659432788.940152,14823
1659432788.978424,14862
1659432789.016695,14896
1659432789.058726,14930
1659432789.100756,14950
1659432789.142787,14983
1659432789.184817,15023
1659432789.223089,15053
1659432789.261361,15080
1659432789.299632,15109
1659432789.34115,15103
1659432789.382668,15002
1659432789.422307,14871
1659432789.461945,14812
1659432789.501584,14829
1659432789.545323,14868
1659432789.589062,14903
1659432789.632801,14931
1659432789.665605,14954
1659432789.698409,14969
1659432789.742832,14997
1659432789.787254,15028
1659432789.831677,15054
1659432789.869949,15092
1659432789.90822,15122
1659432789.946492,15147
1659432789.988522,15172
1659432790.030553,15187
1659432790.070191,15167
1659432790.10983,15068
1659432790.149468,14972
1659432790.190474,14972
1659432790.231479,14993
1659432790.270434,15015
1659432790.309389,15042
1659432790.348345,15089
1659432790.3914,15094
1659432790.434456,15105
1659432790.473069,15118
1659432790.511683,15147
1659432790.550296,15178
1659432790.59207,15205
1659432790.633844,15239
1659432790.675619,15265
1659432790.717393,15306
1659432790.758398,15332
1659432790.799403,15277
1659432790.837333,15104
1659432790.875263,14983
1659432790.913193,14946
1659432790.952148,14921
1659432790.991104,14955
1659432791.030059,15000
1659432791.072602,15048
1659432791.115145,15060
1659432791.153416,15062
1659432791.191688,15097
1659432791.22996,15123
1659432791.27199,15156
1659432791.314021,15187
1659432791.352976,15217
1659432791.391931,15243
1659432791.430886,15278
1659432791.4695,15280
1659432791.508113,15183
1659432791.546726,15030
1659432791.588757,14975
1659432791.630787,15000
1659432791.669742,15033
1659432791.708698,15088
1659432791.747653,15132
1659432791.788145,15169
1659432791.828638,15191
1659432791.867252,15201
1659432791.905865,15234
1659432791.944478,15253
1659432791.987021,15285
1659432792.029564,15293
1659432792.073303,15314
1659432792.117043,15347
1659432792.160782,15363
1659432792.199395,15359
1659432792.238008,15215
1659432792.276622,15007
1659432792.318652,14896
1659432792.360683,14882
1659432792.398954,14876
1659432792.437226,14925
1659432792.475498,14984
1659432792.517528,15001
1659432792.559559,15014
1659432792.598855,15039
1659432792.638152,15082
1659432792.677449,15098
1659432792.716063,15120
1659432792.754676,15149
1659432792.793289,15167
1659432792.833782,15208
1659432792.874275,15226
1659432792.913913,15205
1659432792.953552,15120
1659432792.993191,15061
1659432793.034196,15072
1659432793.075201,15110
1659432793.113815,15136
1659432793.152428,15175
1659432793.191041,15207
1659432793.229996,15223
1659432793.268952,15239
1659432793.307907,15236
1659432793.35045,15233
1659432793.392993,15262
1659432793.433998,15266
1659432793.475003,15283
1659432793.513959,15278
1659432793.552914,15310
1659432793.591869,15342
1659432793.636633,15366
1659432793.681397,15241
1659432793.726161,15069
1659432793.759991,15007
1659432793.79382,14982
1659432793.838243,14977
1659432793.882665,15010
1659432793.927088,15064
1659432793.960405,15065
1659432793.993721,15091
1659432794.037461,15085
1659432794.0812,15098
1659432794.124939,15120
1659432794.163552,15131
1659432794.202165,15149
1659432794.240779,15168
1659432794.283322,15190
1659432794.325865,15209
1659432794.364478,15203
1659432794.403092,15037
1659432794.441705,14820
1659432794.483223,14726
1659432794.524741,14704
1659432794.564038,14724
1659432794.603335,14772
1659432794.642631,14829
1659432794.681245,14856
1659432794.719858,14874
1659432794.758471,14870
1659432794.799989,14884
1659432794.841507,14927
1659432794.881146,14948
1659432794.920784,14989
1659432794.960423,15022
1659432795.000916,15050
1659432795.041409,15088
1659432795.079339,15104
1659432795.117269,14988
1659432795.155198,14827
1659432795.197742,14806
1659432795.240285,14854
1659432795.27965,14912
1659432795.319015,14969
1659432795.35838,15001
1659432795.397745,15020
1659432795.43711,15026
1659432795.476407,15025
1659432795.515704,15039
1659432795.555001,15056
1659432795.599765,15064
1659432795.644529,15092
1659432795.689293,15109
1659432795.730811,15134
1659432795.772329,15175
1659432795.810259,15215
1659432795.848189,15139
1659432795.886119,14981
1659432795.924049,14871
1659432795.962662,14862
1659432796.001276,14893
1659432796.039889,14940
1659432796.081407,14973
1659432796.122925,14988
1659432796.16188,15007
1659432796.200835,15012
1659432796.23979,15026
1659432796.281821,15035
1659432796.323851,15048
1659432796.36759,15063
1659432796.41133,15067
1659432796.455069,15074
1659432796.488385,15088
1659432796.521702,15101
1659432796.565783,15041
1659432796.609864,14881
1659432796.653944,14748
1659432796.687261,14731
1659432796.720578,14768
1659432796.765342,14803
1659432796.810107,14838
1659432796.854871,14842
1659432796.894168,14842
1659432796.933465,14845
1659432796.972761,14877
1659432797.013767,14913
1659432797.054772,14926
1659432797.094069,14949
1659432797.133366,14970
1659432797.172662,15004
1659432797.215205,15022
1659432797.257749,15034
1659432797.29602,14974
1659432797.334292,14834
1659432797.372564,14747
1659432797.411177,14762
1659432797.44979,14808
1659432797.488404,14853
1659432797.529922,14898
1659432797.57144,14898
1659432797.609711,14887
1659432797.647983,14900
1659432797.686255,14905
1659432797.72521,14915
1659432797.764165,14936
1659432797.80312,14972
1659432797.84515,14995
1659432797.887181,15031
1659432797.928699,15049
1659432797.970217,15044
1659432798.00883,14951
1659432798.047444,14814
1659432798.086057,14766
1659432798.128088,14794
1659432798.170118,14818
1659432798.209073,14842
1659432798.248028,14875
1659432798.286983,14897
1659432798.330722,14906
1659432798.374461,14922
1659432798.4182,14912
1659432798.451005,14916
1659432798.483809,14900
1659432798.528231,14907
1659432798.572654,14927
1659432798.617076,14929
1659432798.655348,14952
1659432798.69362,14924
1659432798.731891,14760
1659432798.773922,14525
1659432798.815953,14398
1659432798.855249,14326
1659432798.894546,14261
1659432798.933843,14260
1659432798.974848,14302
1659432799.015854,14374
1659432799.054809,14434
1659432799.093764,14505
1659432799.132719,14562
1659432799.172357,14621
1659432799.211996,14655
1659432799.251634,14695
1659432799.29264,14738
1659432799.333645,14784
1659432799.3726,14798
1659432799.411555,14789
1659432799.450511,14604
1659432799.492028,14357
1659432799.533546,14216
1659432799.57216,14141
1659432799.610773,14078
1659432799.649386,14070
1659432799.690392,14072
1659432799.731397,14079
1659432799.770694,14046
1659432799.809991,14028
1659432799.849288,14033
1659432799.890293,14047
1659432799.931298,14054
1659432799.972304,14072
1659432800.013309,14117
1659432800.052948,14154
1659432800.092586,14200
1659432800.132225,14141
1659432800.173743,13857
1659432800.215261,13479
1659432800.253874,13243
1659432800.292487,13167
1659432800.331101,13139
1659432800.373644,13157
1659432800.416187,13180
1659432800.455142,13195
1659432800.494097,13168
1659432800.533052,13143
1659432800.576791,13152
1659432800.62053,13190
1659432800.664269,13253
1659432800.697586,13339
1659432800.730903,13426
1659432800.774984,13503
1659432800.819065,13559
1659432800.863145,13550
1659432800.904663,13272
1659432800.946181,12793
1659432800.984795,12516
1659432801.023408,12542
1659432801.062021,12653
1659432801.100976,12825
1659432801.139931,12989
1659432801.178887,13089
1659432801.219892,13116
1659432801.260897,13115
1659432801.300194,13111
1659432801.339491,13123
1659432801.378788,13151
1659432801.417743,13155
1659432801.456698,13163
1659432801.495653,13178
1659432801.536659,13176
1659432801.577664,13111
1659432801.616277,12776
1659432801.654891,12329
1659432801.693504,12075
1659432801.736047,12053
1659432801.77859,12115
1659432801.816862,12168
1659432801.855134,12154
1659432801.893405,12094
1659432801.934411,12051
1659432801.975416,12025
1659432802.014029,12036
1659432802.052643,12059
1659432802.091256,12095
1659432802.13303,12112
1659432802.174804,12152
1659432802.216579,12191
1659432802.258353,12039
1659432802.300383,11552
1659432802.342414,11148
1659432802.381027,11030
1659432802.419641,11080
1659432802.458254,11213
1659432802.497551,11340
1659432802.536848,11379
1659432802.576144,11361
1659432802.617662,11344
1659432802.65918,11369
1659432802.698819,11388
1659432802.738457,11417
1659432802.778096,11470
1659432802.818589,11552
1659432802.859082,11657
1659432802.898378,11763
1659432802.937675,11862
1659432802.976972,11650
1659432803.01849,11079
1659432803.060008,10660
1659432803.10443,10495
1659432803.148853,10444
1659432803.193275,10432
1659432803.231889,10468
1659432803.270502,10467
1659432803.309115,10407
1659432803.351146,10366
1659432803.393176,10410
1659432803.432473,10490
1659432803.47177,10604
1659432803.511067,10720
1659432803.552585,10828
1659432803.594103,10955
1659432803.633399,11095
1659432803.672696,11236
1659432803.711993,11310
1659432803.750948,10976
1659432803.789903,10423
1659432803.828858,10172
1659432803.870376,10202
1659432803.911894,10305
1659432803.950849,10430
1659432803.989805,10533
1659432804.028759,10576
1659432804.069252,10555
1659432804.109745,10544
1659432804.147675,10567
1659432804.185605,10595
1659432804.223535,10648
1659432804.26249,10713
1659432804.301445,10796
1659432804.3404,10870
1659432804.384823,10962
1659432804.429245,11068
1659432804.473668,11191
1659432804.51194,11320
1659432804.550211,11391
1659432804.588483,11089
1659432804.631538,10648
1659432804.674594,10490
1659432804.713207,10513
1659432804.751821,10622
1659432804.790434,10766
1659432804.829048,10865
1659432804.867661,10917
1659432804.906274,10925
1659432804.948305,10959
1659432804.990335,11033
1659432805.02929,11146
1659432805.068246,11242
1659432805.107201,11347
1659432805.147693,11460
1659432805.188186,11566
1659432805.227483,11675
1659432805.26678,11782
1659432805.306077,11877
1659432805.347082,11963
1659432805.388088,12057
1659432805.427042,12095
1659432805.465998,11881
1659432805.504953,11556
1659432805.546471,11435
1659432805.587989,11463
1659432805.626944,11563
1659432805.665899,11680
1659432805.704854,11776
1659432805.748935,11829
1659432805.793015,11859
1659432805.837096,11902
1659432805.871438,11957
1659432805.90578,12038
1659432805.950544,12123
1659432805.995309,12219
1659432806.040073,12302
1659432806.081591,12390
1659432806.123109,12469
1659432806.162064,12536
1659432806.201019,12631
1659432806.239974,12701
1659432806.281492,12771
1659432806.32301,12812
1659432806.361965,12678
1659432806.40092,12507
1659432806.439875,12458
1659432806.47883,12515
1659432806.517785,12629
1659432806.55674,12763
1659432806.598258,12862
1659432806.639776,12935
1659432806.679551,13006
1659432806.719326,13087
1659432806.759102,13195
1659432806.798877,13302
1659432806.838652,13412
1659432806.880683,13528
1659432806.922713,13643
1659432806.961327,13738
1659432806.99994,13828
1659432807.038553,13911
1659432807.080071,13975
1659432807.121589,14055
1659432807.160886,14103
1659432807.200183,14087
1659432807.23948,14010
1659432807.278093,13998
1659432807.316706,14051
1659432807.35532,14120
1659432807.395813,14188
1659432807.436306,14242
1659432807.474919,14279
1659432807.513532,14301
1659432807.552145,14336
1659432807.594176,14374
1659432807.636207,14403
1659432807.67482,14449
1659432807.713433,14490
1659432807.752047,14520
1659432807.793565,14569
1659432807.835083,14597
1659432807.874038,14618
1659432807.912993,14647
1659432807.951948,14691
1659432807.996029,14698
1659432808.040109,14676
1659432808.08419,14591
1659432808.126221,14556
1659432808.168251,14576
1659432808.206865,14628
1659432808.245478,14671
1659432808.284091,14701
1659432808.325097,14711
1659432808.366102,14717
1659432808.404374,14732
1659432808.442646,14755
1659432808.480917,14785
1659432808.520214,14818
1659432808.559511,14841
1659432808.598808,14864
1659432808.640838,14895
1659432808.682868,14919
1659432808.72114,14940
1659432808.759412,14972
1659432808.797683,14991
1659432808.839714,14985
1659432808.881745,14901
1659432808.921041,14826
1659432808.960338,14813
1659432808.999635,14851
1659432809.038248,14894
1659432809.076862,14922
1659432809.115475,14935
1659432809.160923,14931
1659432809.20637,14938
1659432809.251818,14949
1659432809.290773,14974
1659432809.329728,14994
1659432809.368683,15024
1659432809.410201,15050
1659432809.451719,15081
1659432809.491016,15105
1659432809.530313,15129
1659432809.56961,15148
1659432809.607539,15165
1659432809.645469,15175
1659432809.683399,15126
1659432809.724917,15018
1659432809.766435,14960
1659432809.80539,14967
1659432809.844346,15003
1659432809.883301,15032
1659432809.923793,15064
1659432809.964286,15050
1659432810.003241,15044
1659432810.042197,15059
1659432810.081151,15065
1659432810.120107,15079
1659432810.159062,15106
1659432810.198017,15130
1659432810.240047,15155
1659432810.282078,15184
1659432810.323083,15197
1659432810.364089,15215
1659432810.403385,15240
1659432810.442682,15256
1659432810.481979,15228
1659432810.52606,15112
1659432810.570141,14999
1659432810.614221,14962
1659432810.647538,14994
1659432810.680855,15033
1659432810.725277,15067
1659432810.7697,15073
1659432810.814122,15061
1659432810.846414,15046
1659432810.878706,15044
1659432810.922445,15061
1659432810.966184,15080
1659432811.009923,15113
1659432811.04922,15136
1659432811.088517,15164
1659432811.127813,15178
1659432811.169844,15194
1659432811.211874,15217
1659432811.251342,15224
1659432811.29081,15237
1659432811.330277,15156
1659432811.369745,14985
1659432811.409213,14893
1659432811.44868,14898
1659432811.488148,14929
1659432811.527616,14975
1659432811.568393,14986
1659432811.609171,14968
1659432811.649948,14969
1659432811.690726,14976
1659432811.731503,15001
1659432811.772281,15029
1659432811.813059,15070
1659432811.853836,15087
1659432811.894614,15135
1659432811.933398,15147
1659432811.972182,15157
1659432812.010967,15189
1659432812.049751,15196
1659432812.088535,15206
1659432812.127319,15194
1659432812.166274,15082
1659432812.20523,14911
1659432812.244184,14861
1659432812.285702,14869
1659432812.32722,14909
1659432812.369763,14944
1659432812.412307,14950
1659432812.451262,14926
1659432812.490217,14911
1659432812.529172,14920
1659432812.573253,14932
1659432812.617333,14969
1659432812.661414,14992
1659432812.694731,15026
1659432812.728048,15049
1659432812.77247,15066
1659432812.816893,15104
1659432812.861315,15106
1659432812.899929,15116
1659432812.938542,15133
1659432812.977155,15118
1659432813.019186,14972
1659432813.061216,14811
1659432813.100172,14759
1659432813.139127,14769
1659432813.178082,14806
1659432813.218575,14842
1659432813.259067,14839
1659432813.298023,14821
1659432813.336977,14818
1659432813.375933,14824
1659432813.415571,14856
1659432813.45521,14872
1659432813.494848,14916
1659432813.535854,14939
1659432813.576859,14969
1659432813.615472,14981
1659432813.654086,15007
1659432813.692699,15026
1659432813.73473,15038
1659432813.77676,15068
1659432813.815715,15064
1659432813.85467,14926
1659432813.893625,14745
1659432813.934118,14683
1659432813.974611,14714
1659432814.013566,14757
1659432814.052521,14801
1659432814.091476,14810
1659432814.131969,14778
1659432814.172462,14768
1659432814.211075,14790
1659432814.249689,14819
1659432814.288302,14858
1659432814.333408,14901
1659432814.378514,14927
1659432814.42362,14946
1659432814.456424,14979
1659432814.489228,15000
1659432814.533651,15013
1659432814.578073,15043
1659432814.622496,15063
1659432814.664526,15071
1659432814.706557,14971
1659432814.746195,14811
1659432814.785834,14747
1659432814.825472,14780
1659432814.863744,14825
1659432814.902016,14884
1659432814.940287,14897
1659432814.982318,14886
1659432815.024348,14884
1659432815.062962,14900
1659432815.101575,14934
1659432815.140188,14964
1659432815.178802,15007
1659432815.217415,15037
1659432815.256029,15067
1659432815.298572,15099
1659432815.341115,15118
1659432815.379728,15144
1659432815.418342,15162
1659432815.456955,15186
1659432815.49796,15208
1659432815.538966,15175
1659432815.578263,15042
1659432815.617559,14969
1659432815.656856,14980
1659432815.698887,15026
1659432815.740917,15076
1659432815.779531,15099
1659432815.818144,15114
1659432815.856757,15096
1659432815.898275,15087
1659432815.939793,15114
1659432815.984557,15140
1659432816.029321,15164
1659432816.074086,15200
1659432816.112016,15222
1659432816.149945,15231
1659432816.187876,15256
1659432816.230419,15266
1659432816.272962,15274
1659432816.311575,15307
1659432816.350188,15315
1659432816.388802,15304
1659432816.429295,15198
1659432816.469787,15068
1659432816.508401,15040
1659432816.547014,15098
1659432816.585628,15137
1659432816.624583,15165
1659432816.663538,15180
1659432816.702493,15162
1659432816.744011,15152
1659432816.785529,15167
1659432816.824484,15202
1659432816.863439,15220
1659432816.902394,15249
1659432816.942374,15274
1659432816.982354,15300
1659432817.022335,15322
1659432817.062315,15327
1659432817.102295,15340
1659432817.14125,15355
1659432817.180205,15373
1659432817.219161,15372
1659432817.260166,15270
1659432817.301171,15147
1659432817.34491,15123
1659432817.388649,15151
1659432817.432388,15191
1659432817.471002,15221
1659432817.509615,15239
1659432817.548229,15224
1659432817.589746,15198
1659432817.631264,15203
1659432817.670561,15225
1659432817.709858,15272
1659432817.749155,15300
1659432817.79016,15337
1659432817.831166,15349
1659432817.870462,15366
1659432817.909759,15371
1659432817.949056,15396
1659432817.988353,15380
1659432818.02765,15389
1659432818.066947,15341
1659432818.108464,15185
1659432818.149982,15067
1659432818.189279,15056
1659432818.228576,15116
1659432818.267873,15172
1659432818.309391,15210
1659432818.350909,15213
1659432818.38918,15205
1659432818.427452,15214
1659432818.465724,15235
1659432818.504679,15270
1659432818.543634,15300
1659432818.582589,15325
1659432818.625132,15344
1659432818.667675,15361
1659432818.705605,15378
1659432818.743535,15402
1659432818.781465,15406
1659432818.822983,15428
1659432818.864501,15391
1659432818.909607,15292
1659432818.954713,15250
1659432818.999819,15269
1659432819.033135,15307
1659432819.066452,15342
1659432819.110875,15369
1659432819.155297,15362
1659432819.19972,15367
1659432819.233549,15368
1659432819.267379,15385
1659432819.311459,15421
1659432819.35554,15434
1659432819.399621,15452
1659432819.437892,15453
1659432819.476164,15475
1659432819.514436,15477
1659432819.557492,15507
1659432819.600547,15519
1659432819.638819,15519
1659432819.67709,15454
1659432819.715362,15357
1659432819.753976,15323
1659432819.792589,15363
1659432819.831202,15393
1659432819.87272,15426
1659432819.914238,15435
1659432819.95251,15417
1659432819.990782,15417
1659432820.029053,15438
1659432820.070571,15451
1659432820.112089,15479
1659432820.151386,15493
1659432820.190683,15503
1659432820.22998,15531
1659432820.271497,15540
1659432820.313015,15553
1659432820.351629,15560
1659432820.390242,15574
1659432820.428855,15569
1659432820.471399,15499
1659432820.513942,15401
1659432820.552555,15386
1659432820.591168,15423
1659432820.629782,15449
1659432820.673521,15471
1659432820.71726,15478
1659432820.760999,15470
1659432820.794316,15445
1659432820.827633,15465
1659432820.872055,15464
1659432820.916478,15485
1659432820.9609,15495
1659432821.002418,15501
1659432821.043936,15509
1659432821.083575,15514
1659432821.123213,15524
1659432821.162852,15532
1659432821.201807,15534
1659432821.240762,15531
1659432821.279717,15419
1659432821.320722,15298
1659432821.361727,15290
1659432821.401366,15324
1659432821.441005,15370
1659432821.480643,15388
1659432821.522161,15397
1659432821.563679,15384
1659432821.601951,15373
1659432821.640222,15392
1659432821.678494,15410
1659432821.717107,15439
1659432821.755721,15448
1659432821.794334,15470
1659432821.836877,15474
1659432821.87942,15490
1659432821.918034,15496
1659432821.956647,15512
1659432821.99526,15532
1659432822.036266,15493
1659432822.077271,15371
1659432822.116568,15278
1659432822.155865,15294
1659432822.195162,15341
1659432822.237192,15385
1659432822.279223,15400
1659432822.318178,15383
1659432822.357133,15379
1659432822.396088,15375
1659432822.440852,15396
1659432822.485616,15415
1659432822.53038,15428
1659432822.571386,15458
1659432822.612391,15466
1659432822.651005,15463
1659432822.689618,15475
1659432822.728231,15478
1659432822.770774,15496
1659432822.813318,15518
1659432822.851589,15413
1659432822.889861,15253
1659432822.928133,15204
1659432822.966404,15243
1659432823.004676,15292
1659432823.042948,15339
1659432823.083953,15342
1659432823.124958,15337
1659432823.163572,15330
1659432823.202185,15336
1659432823.240798,15367
1659432823.27907,15383
1659432823.317342,15409
1659432823.355613,15428
1659432823.398157,15452
1659432823.4407,15460
1659432823.479996,15480
1659432823.519293,15488
1659432823.55859,15515
1659432823.599595,15499
1659432823.640601,15378
1659432823.679898,15282
1659432823.719194,15285
1659432823.758491,15341
1659432823.802914,15378
1659432823.847336,15415
1659432823.891759,15408
1659432823.933277,15391
1659432823.974794,15409
1659432824.013408,15418
1659432824.052021,15449
1659432824.090635,15466
1659432824.12959,15493
1659432824.168545,15509
1659432824.2075,15537
1659432824.247993,15551
1659432824.288486,15569
1659432824.328124,15584
1659432824.367763,15598
1659432824.407401,15559
1659432824.449432,15459
1659432824.491462,15446
1659432824.529734,15494
1659432824.568005,15526
1659432824.606277,15548
1659432824.645574,15570
1659432824.684871,15561
1659432824.724168,15552
1659432824.766711,15564
1659432824.809254,15561
1659432824.847525,15570
1659432824.885797,15591
1659432824.924069,15611
1659432824.965587,15622
1659432825.007105,15640
1659432825.04606,15658
1659432825.085015,15679
1659432825.12397,15705
1659432825.165488,15686
1659432825.207006,15590
1659432825.251086,15507
1659432825.295167,15530
1659432825.339248,15567
1659432825.372565,15607
1659432825.405882,15622
1659432825.450304,15614
1659432825.494727,15603
1659432825.539149,15591
1659432825.578104,15601
1659432825.617059,15617
1659432825.656014,15635
1659432825.698558,15652
1659432825.741101,15687
1659432825.779372,15702
1659432825.817644,15728
1659432825.855916,15744
1659432825.896921,15757
1659432825.937926,15771
1659432825.976882,15693
1659432826.015836,15608
1659432826.054792,15599
1659432826.093063,15652
1659432826.131335,15687
1659432826.169607,15719
1659432826.211637,15718
1659432826.253668,15704
1659432826.292281,15703
1659432826.330894,15713
1659432826.369508,15738
1659432826.408121,15757
1659432826.446735,15766
1659432826.485348,15773
1659432826.525841,15780
1659432826.566334,15789
1659432826.605289,15789
1659432826.644244,15809
1659432826.683199,15806
1659432826.725229,15749
1659432826.76726,15651
1659432826.811682,15623
1659432826.856105,15662
1659432826.900527,15699
1659432826.933844,15721
1659432826.967161,15724
1659432827.011925,15721
1659432827.05669,15718
1659432827.101454,15733
1659432827.135283,15733
1659432827.169112,15753
1659432827.213193,15767
1659432827.257274,15782
1659432827.301355,15791
1659432827.339626,15801
1659432827.377898,15807
1659432827.41617,15821
1659432827.454783,15819
1659432827.493397,15742
1659432827.53201,15650
1659432827.570623,15631
1659432827.609237,15679
1659432827.64785,15710
1659432827.692614,15737
1659432827.737378,15741
1659432827.782143,15744
1659432827.815972,15730
1659432827.849802,15743
1659432827.894566,15764
1659432827.93933,15780
1659432827.984094,15807
1659432828.017924,15827
1659432828.051753,15844
1659432828.095834,15848
1659432828.139915,15866
1659432828.183995,15882
1659432828.222609,15857
1659432828.261222,15768
1659432828.299835,15640
1659432828.342378,15602
1659432828.384922,15644
1659432828.423193,15676
1659432828.461465,15699
1659432828.499737,15707
1659432828.53835,15686
1659432828.576963,15693
1659432828.615577,15716
1659432828.657607,15735
1659432828.699638,15765
1659432828.737909,15773
1659432828.776181,15795
1659432828.814453,15802
1659432828.855971,15824
1659432828.897489,15825
1659432828.936785,15837
1659432828.976082,15809
1659432829.015379,15679
1659432829.056384,15572
1659432829.09739,15557
1659432829.136345,15589
1659432829.1753,15635
1659432829.214255,15666
1659432829.256286,15683
1659432829.298316,15681
1659432829.336588,15678
1659432829.374859,15699
1659432829.413131,15718
1659432829.45687,15733
1659432829.500609,15768
1659432829.544348,15771
1659432829.586379,15782
1659432829.628409,15793
1659432829.666681,15802
1659432829.704953,15805
1659432829.743224,15735
1659432829.782179,15593
1659432829.821135,15543
1659432829.86009,15568
1659432829.90212,15610
1659432829.94415,15637
1659432829.982764,15649
1659432830.021377,15646
1659432830.059991,15639
1659432830.100996,15664
1659432830.142001,15673
1659432830.181982,15683
1659432830.221962,15710
1659432830.261942,15736
1659432830.300555,15751
1659432830.339169,15768
1659432830.377782,15780
1659432830.419813,15801
1659432830.461843,15783
1659432830.500457,15690
1659432830.53907,15592
1659432830.577683,15566
1659432830.619714,15604
1659432830.661744,15633
1659432830.700016,15664
1659432830.738288,15678
1659432830.77656,15689
1659432830.818077,15687
1659432830.859595,15702
1659432830.904018,15733
1659432830.94844,15742
1659432830.992863,15746
1659432831.026692,15757
1659432831.060522,15779
1659432831.105286,15787
1659432831.15005,15817
1659432831.194814,15832
1659432831.228131,15763
1659432831.261448,15614
1659432831.30587,15514
1659432831.350293,15517
1659432831.394715,15532
1659432831.434012,15560
1659432831.473309,15582
1659432831.512606,15592
1659432831.555149,15591
1659432831.597692,15595
1659432831.635964,15607
1659432831.674235,15626
1659432831.712507,15638
1659432831.750779,15652
1659432831.78905,15675
1659432831.827322,15689
1659432831.86884,15708
1659432831.910358,15737
1659432831.94863,15729
1659432831.986901,15584
1659432832.025173,15451
1659432832.067203,15377
1659432832.109234,15367
1659432832.147847,15365
1659432832.186461,15399
1659432832.225074,15411
1659432832.264371,15404
1659432832.303668,15405
1659432832.342964,15417
1659432832.38397,15453
1659432832.424975,15476
1659432832.467006,15495
1659432832.509036,15523
1659432832.548333,15547
1659432832.58763,15562
1659432832.626927,15581
1659432832.668188,15608
1659432832.70945,15584
1659432832.750711,15448
1659432832.791973,15265
1659432832.832978,15202
1659432832.873984,15191
1659432832.912939,15191
1659432832.951894,15210
1659432832.990849,15250
1659432833.029121,15258
1659432833.067393,15263
1659432833.105664,15278
1659432833.147695,15300
1659432833.189725,15351
1659432833.228339,15368
1659432833.266952,15397
1659432833.305565,15425
1659432833.346571,15451
1659432833.387576,15478
1659432833.426873,15509
1659432833.46617,15508
1659432833.505466,15397
1659432833.54801,15235
1659432833.590553,15159
1659432833.628824,15148
1659432833.667096,15146
1659432833.705368,15174
1659432833.747911,15209
1659432833.790454,15226
1659432833.834876,15229
1659432833.879299,15226
1659432833.923721,15262
1659432833.962335,15294
1659432834.000948,15332
1659432834.039562,15365
1659432834.077235,15385
1659432834.114909,15399
1659432834.152582,15420
1659432834.190256,15441
1659432834.231261,15459
1659432834.272267,15402
1659432834.311564,15216
1659432834.350861,15086
1659432834.390157,15039
1659432834.432188,15037
1659432834.474218,15042
1659432834.518641,15077
1659432834.563063,15111
1659432834.607486,15120
1659432834.639777,15130
1659432834.672069,15154
1659432834.717175,15195
1659432834.762281,15232
1659432834.807387,15261
1659432834.840191,15290
1659432834.872996,15321
1659432834.916734,15344
1659432834.960474,15364
1659432835.004213,15401
1659432835.043168,15414
1659432835.082123,15399
1659432835.121078,15233
1659432835.162083,15114
1659432835.203089,15071
1659432835.241702,15058
1659432835.280315,15053
1659432835.318929,15104
1659432835.357884,15139
1659432835.396839,15153
1659432835.435794,15157
1659432835.474407,15166
1659432835.513021,15205
1659432835.551634,15232
1659432835.593152,15276
1659432835.63467,15299
1659432835.673625,15326
1659432835.71258,15344
1659432835.751535,15380
1659432835.793566,15392
1659432835.835597,15418
1659432835.879677,15440
1659432835.923758,15349
1659432835.967839,15191
1659432836.006794,15113
1659432836.045749,15108
1659432836.084704,15122
1659432836.12571,15141
1659432836.166715,15182
1659432836.204987,15198
1659432836.243258,15222
1659432836.28153,15235
1659432836.318947,15272
1659432836.356364,15300
1659432836.393782,15328
1659432836.431199,15345
1659432836.472717,15381
1659432836.514235,15405
1659432836.552849,15425
1659432836.591462,15447
1659432836.630075,15465
1659432836.672106,15497
1659432836.714136,15409
1659432836.758901,15243
1659432836.803665,15142
1659432836.848429,15110
1659432836.882258,15115
1659432836.916088,15120
1659432836.960852,15157
1659432837.005616,15177
1659432837.05038,15185
1659432837.08421,15192
1659432837.118039,15218
1659432837.161778,15243
1659432837.205517,15271
1659432837.249256,15302
1659432837.288212,15332
1659432837.327167,15357
1659432837.366122,15377
1659432837.408152,15389
1659432837.450183,15415
1659432837.488454,15437
1659432837.526726,15449
1659432837.564998,15370
1659432837.603611,15190
1659432837.642225,15105
1659432837.680838,15084
1659432837.720476,15107
1659432837.760115,15106
1659432837.799753,15144
1659432837.840759,15184
1659432837.881764,15189
1659432837.920377,15199
1659432837.958991,15220
1659432837.997604,15249
1659432838.04271,15287
1659432838.087816,15315
1659432838.132922,15343
1659432838.17444,15359
1659432838.215958,15390
1659432838.254571,15406
1659432838.293185,15429
1659432838.331798,15446
1659432838.370753,15473
1659432838.409708,15409
1659432838.448663,15270
1659432838.489156,15173
1659432838.529649,15155
1659432838.567066,15170
1659432838.604484,15203
1659432838.641901,15250
1659432838.679319,15273
1659432838.721349,15280
1659432838.76338,15298
1659432838.80746,15329
1659432838.851541,15352
1659432838.895622,15385
1659432838.928939,15407
1659432838.962255,15440
1659432839.006678,15463
1659432839.0511,15470
1659432839.095523,15490
1659432839.133795,15508
1659432839.172066,15535
1659432839.210338,15537
1659432839.252368,15457
1659432839.294399,15328
1659432839.333696,15285
1659432839.372993,15294
1659432839.412289,15316
1659432839.450219,15350
1659432839.488149,15370
1659432839.526079,15380
1659432839.56811,15384
1659432839.61014,15407
1659432839.648754,15434
1659432839.687367,15475
1659432839.725981,15485
1659432839.768011,15504
1659432839.810041,15542
1659432839.848997,15556
1659432839.887952,15575
1659432839.926907,15592
1659432839.966204,15618
1659432840.0055,15631
1659432840.044797,15595
1659432840.085803,15473
1659432840.126808,15396
1659432840.169351,15401
1659432840.211894,15415
1659432840.251191,15435
1659432840.290488,15464
1659432840.329785,15496
1659432840.371302,15498
1659432840.41282,15512
1659432840.451092,15523
1659432840.489364,15550
1659432840.527635,15578
1659432840.572058,15591
1659432840.61648,15614
1659432840.660903,15637
1659432840.69422,15651
1659432840.727537,15661
1659432840.771959,15674
1659432840.816381,15697
1659432840.860804,15696
1659432840.899417,15627
1659432840.938031,15496
1659432840.976644,15439
1659432841.018162,15438
1659432841.05968,15452
1659432841.098635,15476
1659432841.13759,15504
1659432841.176545,15515
1659432841.218576,15527
1659432841.260606,15543
1659432841.29922,15549
1659432841.337833,15580
1659432841.376446,15584
1659432841.415401,15606
1659432841.454357,15632
1659432841.493312,15646
1659432841.535342,15656
1659432841.577373,15680
1659432841.615986,15688
1659432841.654599,15718
1659432841.693213,15685
1659432841.733706,15598
1659432841.774199,15492
1659432841.812812,15453
1659432841.851425,15470
1659432841.890039,15500
1659432841.932069,15514
1659432841.9741,15533
1659432842.012713,15548
1659432842.051327,15551
1659432842.08994,15560
1659432842.130945,15591
1659432842.171951,15616
1659432842.211589,15626
1659432842.251228,15633
1659432842.290866,15660
1659432842.334605,15667
1659432842.378344,15693
1659432842.422083,15703
1659432842.464114,15715
1659432842.506144,15705
1659432842.545099,15591
1659432842.584054,15494
1659432842.62301,15469
1659432842.66504,15462
1659432842.707071,15483
1659432842.745342,15519
1659432842.783614,15541
1659432842.821886,15542
1659432842.861182,15560
1659432842.900479,15567
1659432842.939776,15588
1659432842.981807,15593
1659432843.023837,15620
1659432843.064842,15644
1659432843.105848,15669
1659432843.146853,15673
1659432843.187859,15677
1659432843.228044,15690
1659432843.268229,15713
1659432843.308414,15716
1659432843.348599,15618
1659432843.388785,15498
1659432843.421589,15456
1659432843.454393,15452
1659432843.499499,15464
1659432843.544605,15490
1659432843.589711,15523
1659432843.629008,15529
1659432843.668305,15537
1659432843.707602,15540
1659432843.74912,15569
1659432843.790637,15589
1659432843.829592,15607
1659432843.868548,15636
1659432843.907503,15653
1659432843.948508,15664
1659432843.989513,15687
1659432844.028127,15698
1659432844.06674,15707
1659432844.105354,15743
1659432844.14465,15697
1659432844.183947,15587
1659432844.223244,15498
1659432844.263737,15484
1659432844.304229,15483
1659432844.342843,15506
1659432844.381456,15519
1659432844.42007,15531
1659432844.462613,15547
1659432844.505156,15553
1659432844.543769,15564
1659432844.582383,15579
1659432844.620996,15608
1659432844.662001,15621
1659432844.703007,15657
1659432844.742304,15670
1659432844.7816,15682
1659432844.820897,15697
1659432844.864978,15720
1659432844.909059,15733
1659432844.95314,15662
1659432844.986456,15539
1659432845.019773,15465
1659432845.063854,15456
1659432845.107935,15473
1659432845.152015,15496
1659432845.18482,15515
1659432845.217624,15535
1659432845.261363,15544
1659432845.305102,15552
1659432845.348841,15563
1659432845.386771,15591
1659432845.424701,15623
1659432845.462631,15645
1659432845.500561,15662
1659432845.542079,15672
1659432845.583597,15688
1659432845.622552,15711
1659432845.661507,15721
1659432845.700462,15735
1659432845.745568,15706
1659432845.790674,15599
1659432845.83578,15511
1659432845.868584,15510
1659432845.901389,15488
1659432845.946153,15495
1659432845.990917,15514
1659432846.035681,15533
1659432846.077199,15546
1659432846.118717,15554
1659432846.158014,15572
1659432846.197311,15581
1659432846.236607,15610
1659432846.274879,15625
1659432846.313151,15654
1659432846.351423,15659
1659432846.39294,15679
1659432846.434458,15697
1659432846.47273,15698
1659432846.511002,15719
1659432846.549273,15732
1659432846.588228,15678
1659432846.627183,15573
1659432846.666139,15511
1659432846.708169,15495
1659432846.7502,15496
1659432846.789496,15520
1659432846.828793,15542
1659432846.86809,15543
1659432846.909096,15542
1659432846.950101,15553
1659432846.989056,15566
1659432847.028011,15595
1659432847.066966,15616
1659432847.109509,15637
1659432847.152052,15648
1659432847.190665,15666
1659432847.229279,15687
1659432847.267892,15700
1659432847.308898,15723
1659432847.349903,15738
1659432847.394325,15718
1659432847.438748,15636
1659432847.483171,15551
1659432847.521442,15528
1659432847.559714,15524
1659432847.597986,15543
1659432847.63771,15560
1659432847.677433,15575
1659432847.717157,15569
1659432847.756881,15571
1659432847.796605,15583
1659432847.836329,15607
1659432847.876053,15618
1659432847.915777,15648
1659432847.955757,15668
1659432847.995738,15685
1659432848.035718,15715
1659432848.075698,15713
1659432848.115678,15723
1659432848.156684,15743
1659432848.197689,15767
1659432848.238694,15768
1659432848.2797,15718
1659432848.318313,15590
1659432848.356926,15526
1659432848.39554,15520
1659432848.437314,15503
1659432848.479088,15519
1659432848.520863,15550
1659432848.562637,15564
1659432848.595441,15562
1659432848.628245,15582
1659432848.673351,15591
1659432848.718457,15606
1659432848.763563,15626
1659432848.802176,15642
1659432848.84079,15664
1659432848.879403,15676
1659432848.920921,15695
1659432848.962439,15717
1659432849.002078,15733
1659432849.041716,15745
1659432849.081355,15763
1659432849.119968,15751
1659432849.158581,15657
1659432849.197195,15559
1659432849.238713,15514
1659432849.280231,15520
1659432849.319869,15515
1659432849.359508,15542
1659432849.399146,15558
1659432849.440152,15570
1659432849.481157,15562
1659432849.51977,15585
1659432849.558384,15599
1659432849.596997,15619
1659432849.639028,15636
1659432849.681058,15662
1659432849.719671,15680
1659432849.758285,15687
1659432849.796898,15712
1659432849.837391,15722
1659432849.877884,15744
1659432849.917181,15753
1659432849.956477,15779
1659432849.995774,15742
1659432850.040539,15645
1659432850.085303,15567
1659432850.130067,15540
1659432850.163384,15550
1659432850.196701,15565
1659432850.241465,15588
1659432850.286229,15605
1659432850.330993,15593
1659432850.373024,15607
1659432850.415054,15617
1659432850.452984,15637
1659432850.490914,15663
1659432850.528844,15688
1659432850.567799,15699
1659432850.606754,15722
1659432850.645709,15736
1659432850.68774,15749
1659432850.72977,15774
1659432850.768042,15784
1659432850.806314,15802
1659432850.844585,15816
1659432850.882857,15792
1659432850.921129,15700
1659432850.9594,15605
1659432851.001431,15575
1659432851.043461,15571
1659432851.082417,15571
1659432851.121372,15596
1659432851.160327,15611
1659432851.201845,15627
1659432851.243363,15633
1659432851.282318,15663
1659432851.321273,15677
1659432851.360228,15685
1659432851.402258,15717
1659432851.444289,15728
1659432851.483244,15746
1659432851.522199,15762
1659432851.561154,15790
1659432851.60216,15791
1659432851.643165,15816
1659432851.687246,15827
1659432851.731326,15851
1659432851.775407,15841
1659432851.814021,15761
1659432851.852634,15677
1659432851.891247,15646
1659432851.932765,15650
1659432851.974283,15657
1659432852.01358,15666
1659432852.052877,15676
1659432852.092174,15692
1659432852.133179,15683
1659432852.174184,15695
1659432852.21314,15712
1659432852.252095,15732
1659432852.29105,15751
1659432852.330346,15772
1659432852.369643,15790
1659432852.40894,15793
1659432852.450458,15816
1659432852.491976,15825
1659432852.530931,15840
1659432852.569886,15857
1659432852.608841,15868
1659432852.651384,15849
1659432852.693927,15779
1659432852.732199,15697
1659432852.770471,15664
1659432852.808742,15678
1659432852.847697,15676
1659432852.886652,15722
1659432852.925608,15713
1659432852.968151,15706
1659432853.010694,15709
1659432853.051187,15715
1659432853.091679,15733
1659432853.129951,15746
1659432853.168223,15766
1659432853.206494,15788
1659432853.2516,15810
1659432853.296706,15814
1659432853.341812,15836
1659432853.375129,15856
1659432853.408446,15862
1659432853.452868,15877
1659432853.497291,15891
1659432853.541713,15861
1659432853.575543,15772
1659432853.609372,15712
1659432853.650634,15671
1659432853.691895,15677
1659432853.733157,15682
1659432853.774419,15692
1659432853.813032,15710
1659432853.851645,15716
1659432853.890259,15726
1659432853.931264,15730
1659432853.97227,15744
1659432854.010883,15752
1659432854.049496,15779
1659432854.08811,15795
1659432854.129628,15813
1659432854.171146,15827
1659432854.209417,15845
1659432854.247689,15858
1659432854.285961,15883
1659432854.330383,15893
1659432854.374806,15904
1659432854.419228,15864
1659432854.460233,15773
1659432854.501239,15710
1659432854.541219,15693
1659432854.581199,15704
1659432854.62118,15707
1659432854.659451,15727
1659432854.697723,15730
1659432854.735995,15731
1659432854.777513,15743
1659432854.819031,15748
1659432854.857985,15783
1659432854.896941,15791
1659432854.935896,15801
1659432854.977926,15817
1659432855.019957,15835
1659432855.05857,15843
1659432855.097183,15860
1659432855.135797,15876
1659432855.174752,15883
1659432855.213707,15907
1659432855.252662,15882
1659432855.293155,15802
1659432855.333648,15737
1659432855.372603,15705
