LocalTimestamp,PG
1659430439.626089,7736
1659430439.664685,8155
1659430439.706697,8331
1659430439.748708,8587
1659430439.787646,8878
1659430439.826583,9165
1659430439.86552,9384
1659430439.903775,9674
1659430439.942029,9918
1659430439.980283,10110
1659430440.02127,10305
1659430440.062257,10390
1659430440.101194,10405
1659430440.140132,10442
1659430440.179069,10439
1659430440.220568,10395
1659430440.262067,10417
1659430440.306128,10461
1659430440.350189,10483
1659430440.39425,10499
1659430440.427552,10474
1659430440.460853,10505
1659430440.505597,10573
1659430440.550341,10648
1659430440.595085,10690
1659430440.628386,10720
1659430440.661688,10757
1659430440.706432,10744
1659430440.751176,10794
1659430440.79592,10828
1659430440.834516,10833
1659430440.873112,10824
1659430440.911708,10830
1659430440.952182,10841
1659430440.992656,10864
1659430441.031252,10898
1659430441.069848,10940
1659430441.108444,11000
1659430441.150968,11024
1659430441.193492,11051
1659430441.231746,11073
1659430441.27,11079
1659430441.308254,11082
1659430441.347192,11104
1659430441.386129,11116
1659430441.425067,11129
1659430441.466566,11165
1659430441.508065,11183
1659430441.547686,11222
1659430441.587306,11256
1659430441.626927,11271
1659430441.667913,11288
1659430441.7089,11302
1659430441.748179,11325
1659430441.787458,11339
1659430441.826737,11369
1659430441.868236,11387
1659430441.909735,11415
1659430441.948673,11434
1659430441.98761,11462
1659430442.026548,11495
1659430442.067534,11539
1659430442.108521,11568
1659430442.1478,11599
1659430442.187079,11639
1659430442.226358,11656
1659430442.270077,11656
1659430442.313797,11656
1659430442.357516,11666
1659430442.391842,11695
1659430442.426169,11699
1659430442.470229,11710
1659430442.51429,11732
1659430442.558351,11744
1659430442.59985,11759
1659430442.641349,11781
1659430442.680287,11798
1659430442.719224,11810
1659430442.758162,11837
1659430442.797441,11845
1659430442.83672,11864
1659430442.875998,11883
1659430442.917497,11891
1659430442.958997,11888
1659430442.997934,11897
1659430443.036871,11911
1659430443.075809,11918
1659430443.117308,11950
1659430443.158807,11967
1659430443.19672,11996
1659430443.234632,12022
1659430443.272545,12046
1659430443.311141,12066
1659430443.349737,12070
1659430443.388333,12084
1659430443.430857,12094
1659430443.473381,12111
1659430443.511293,12129
1659430443.549206,12144
1659430443.587119,12169
1659430443.62913,12180
1659430443.671142,12213
1659430443.709738,12212
1659430443.748333,12215
1659430443.786929,12231
1659430443.828941,12238
1659430443.870952,12254
1659430443.909548,12259
1659430443.948144,12283
1659430443.98674,12305
1659430444.028751,12333
1659430444.070763,12345
1659430444.114823,12343
1659430444.158884,12349
1659430444.202945,12352
1659430444.241199,12361
1659430444.279454,12365
1659430444.317708,12378
1659430444.360744,12386
1659430444.40378,12403
1659430444.442923,12405
1659430444.482065,12409
1659430444.521207,12419
1659430444.560349,12427
1659430444.599492,12438
1659430444.639112,12446
1659430444.678733,12459
1659430444.718354,12469
1659430444.760365,12479
1659430444.802377,12496
1659430444.841314,12504
1659430444.880251,12517
1659430444.919189,12522
1659430444.958126,12542
1659430444.997064,12561
1659430445.036001,12561
1659430445.078012,12569
1659430445.120024,12571
1659430445.158278,12578
1659430445.196532,12585
1659430445.234787,12594
1659430445.277311,12616
1659430445.319834,12622
1659430445.35843,12629
1659430445.397026,12639
1659430445.435622,12656
1659430445.476609,12661
1659430445.517596,12665
1659430445.556191,12672
1659430445.594787,12689
1659430445.633383,12688
1659430445.675907,12699
1659430445.718431,12697
1659430445.757027,12714
1659430445.795622,12723
1659430445.834218,12740
1659430445.878962,12746
1659430445.923706,12752
1659430445.96845,12753
1659430446.001752,12774
1659430446.035053,12780
1659430446.079456,12790
1659430446.123858,12799
1659430446.16826,12830
1659430446.209759,12830
1659430446.251259,12844
1659430446.290538,12846
1659430446.329817,12854
1659430446.369096,12864
1659430446.40735,12887
1659430446.445604,12883
1659430446.483859,12892
1659430446.524845,12906
1659430446.565832,12907
1659430446.604769,12913
1659430446.643707,12925
1659430446.682644,12925
1659430446.721582,12936
1659430446.760519,12950
1659430446.799457,12952
1659430446.837369,12956
1659430446.875282,12968
1659430446.913195,12959
1659430446.955719,12965
1659430446.998242,12956
1659430447.040254,12961
1659430447.082265,12974
1659430447.12052,12966
1659430447.158774,12966
1659430447.197028,12963
1659430447.23904,12961
1659430447.281051,12965
1659430447.32033,12977
1659430447.359609,12999
1659430447.398888,13029
1659430447.442607,13052
1659430447.486326,13050
1659430447.530046,13042
1659430447.564372,13039
1659430447.598699,13044
1659430447.643101,13043
1659430447.687503,13046
1659430447.731906,13048
1659430447.77238,13042
1659430447.812855,13047
1659430447.851109,13056
1659430447.889363,13069
1659430447.927617,13067
1659430447.967238,13069
1659430448.006859,13073
1659430448.046479,13070
1659430448.087978,13062
1659430448.129477,13071
1659430448.168756,13077
1659430448.208035,13082
1659430448.247314,13090
1659430448.286252,13101
1659430448.325189,13099
1659430448.364126,13109
1659430448.405626,13113
1659430448.447125,13120
1659430448.486404,13117
1659430448.525683,13139
1659430448.564962,13151
1659430448.607486,13150
1659430448.650009,13154
1659430448.688263,13159
1659430448.726518,13164
1659430448.764772,13176
1659430448.806271,13176
1659430448.84777,13184
1659430448.886708,13177
1659430448.925645,13169
1659430448.964583,13171
1659430449.006594,13172
1659430449.048605,13176
1659430449.08686,13176
1659430449.125114,13181
1659430449.163368,13195
1659430449.20538,13198
1659430449.247391,13199
1659430449.291794,13204
1659430449.336196,13210
1659430449.380598,13220
1659430449.419536,13229
1659430449.458473,13240
1659430449.497411,13248
1659430449.539422,13248
1659430449.581434,13258
1659430449.620029,13256
1659430449.658625,13264
1659430449.697221,13272
1659430449.736773,13267
1659430449.776325,13248
1659430449.815878,13260
1659430449.85543,13262
1659430449.894982,13265
1659430449.936994,13273
1659430449.979005,13274
1659430450.017259,13296
1659430450.055514,13298
1659430450.093768,13299
1659430450.132364,13299
1659430450.17096,13321
1659430450.209556,13327
1659430450.251055,13326
1659430450.292554,13336
1659430450.331491,13348
1659430450.370429,13364
1659430450.409366,13365
1659430450.448304,13370
1659430450.487241,13380
1659430450.526178,13379
1659430450.567165,13368
1659430450.608152,13355
1659430450.649651,13357
1659430450.69115,13362
1659430450.730088,13379
1659430450.769025,13385
1659430450.807962,13390
1659430450.852706,13398
1659430450.89745,13391
1659430450.942194,13401
1659430450.974983,13405
1659430451.007773,13413
1659430451.051834,13406
1659430451.095895,13422
1659430451.139955,13422
1659430451.173769,13426
1659430451.207583,13450
1659430451.251986,13446
1659430451.296388,13461
1659430451.340791,13466
1659430451.379728,13465
1659430451.418665,13469
1659430451.457603,13445
1659430451.499614,13434
1659430451.541625,13434
1659430451.580563,13447
1659430451.6195,13452
1659430451.658438,13468
1659430451.700449,13473
1659430451.742461,13480
1659430451.78174,13485
1659430451.821019,13484
1659430451.860298,13483
1659430451.898894,13490
1659430451.93749,13502
1659430451.976085,13502
1659430452.01656,13511
1659430452.057034,13512
1659430452.095972,13515
1659430452.134909,13518
1659430452.173846,13515
1659430452.215858,13521
1659430452.257869,13526
1659430452.295782,13508
1659430452.333695,13496
1659430452.371608,13505
1659430452.412594,13509
1659430452.453581,13505
1659430452.493202,13515
1659430452.532822,13501
1659430452.572443,13503
1659430452.613942,13503
1659430452.655441,13508
1659430452.694378,13511
1659430452.733316,13533
1659430452.772253,13532
1659430452.816997,13534
1659430452.861741,13545
1659430452.906485,13562
1659430452.947472,13585
1659430452.988458,13587
1659430453.026713,13593
1659430453.064967,13593
1659430453.103221,13601
1659430453.145745,13601
1659430453.188269,13587
1659430453.226523,13579
1659430453.264778,13580
1659430453.303032,13590
1659430453.341628,13596
1659430453.380224,13622
1659430453.418819,13615
1659430453.460319,13615
1659430453.501818,13616
1659430453.540072,13618
1659430453.578326,13628
1659430453.616581,13626
1659430453.65586,13645
1659430453.695139,13641
1659430453.734418,13649
1659430453.776429,13654
1659430453.81844,13646
1659430453.857036,13650
1659430453.895632,13668
1659430453.934228,13669
1659430453.97624,13665
1659430454.018251,13657
1659430454.057872,13653
1659430454.097492,13669
1659430454.137113,13663
1659430454.178099,13674
1659430454.219086,13691
1659430454.263147,13693
1659430454.307208,13695
1659430454.351269,13704
1659430454.38457,13715
1659430454.417872,13714
1659430454.462274,13724
1659430454.506677,13720
1659430454.551079,13725
1659430454.590358,13733
1659430454.629637,13739
1659430454.668916,13744
1659430454.710927,13752
1659430454.752939,13774
1659430454.791876,13769
1659430454.830814,13775
1659430454.869751,13728
1659430454.910738,13719
1659430454.951725,13730
1659430454.992301,13727
1659430455.032878,13734
1659430455.073455,13741
1659430455.114032,13754
1659430455.154609,13754
1659430455.192863,13772
1659430455.231118,13776
1659430455.269372,13773
1659430455.307968,13776
1659430455.346564,13777
1659430455.38516,13790
1659430455.427683,13781
1659430455.470207,13781
1659430455.508461,13776
1659430455.546716,13792
1659430455.58497,13790
1659430455.625957,13803
1659430455.666944,13807
1659430455.70554,13783
1659430455.744135,13779
1659430455.782731,13763
1659430455.824743,13752
1659430455.866754,13768
1659430455.905692,13773
1659430455.944629,13777
1659430455.983567,13787
1659430456.024553,13790
1659430456.06554,13797
1659430456.104819,13806
1659430456.144098,13810
1659430456.183377,13809
1659430456.227438,13813
1659430456.271498,13813
1659430456.315559,13818
1659430456.349373,13807
1659430456.383188,13820
1659430456.427248,13826
1659430456.471309,13826
1659430456.51537,13828
1659430456.553624,13824
1659430456.591878,13809
1659430456.630133,13802
1659430456.671632,13802
1659430456.713131,13810
1659430456.752068,13811
1659430456.791006,13823
1659430456.829943,13832
1659430456.868197,13837
1659430456.906452,13855
1659430456.944706,13858
1659430456.98723,13866
1659430457.029754,13875
1659430457.069033,13869
1659430457.108312,13868
1659430457.147591,13869
1659430457.188577,13875
1659430457.229564,13878
1659430457.268843,13888
1659430457.308122,13900
1659430457.347401,13907
1659430457.389925,13900
1659430457.432449,13875
1659430457.470361,13873
1659430457.508274,13878
1659430457.546187,13884
1659430457.587686,13889
1659430457.629185,13898
1659430457.668123,13901
1659430457.70706,13906
1659430457.745997,13907
1659430457.790058,13904
1659430457.834119,13914
1659430457.87818,13916
1659430457.920191,13918
1659430457.962203,13927
1659430458.001823,13931
1659430458.041444,13939
1659430458.081064,13932
1659430458.119319,13938
1659430458.157573,13934
1659430458.195827,13945
1659430458.237326,13930
1659430458.278826,13914
1659430458.318788,13921
1659430458.35875,13919
1659430458.398712,13929
1659430458.439698,13934
1659430458.480685,13942
1659430458.519281,13948
1659430458.557877,13954
1659430458.596473,13956
1659430458.635069,13968
1659430458.673665,13978
1659430458.71226,13971
1659430458.75376,13977
1659430458.795259,13976
1659430458.833855,13977
1659430458.87245,13975
1659430458.911046,13983
1659430458.952545,13989
1659430458.994045,13982
1659430459.032299,13988
1659430459.070553,13970
1659430459.108808,13956
1659430459.150819,13956
1659430459.19283,13968
1659430459.232109,13966
1659430459.271388,13978
1659430459.310667,13978
1659430459.354728,13987
1659430459.398789,13986
1659430459.44285,13993
1659430459.483836,14003
1659430459.524823,14011
1659430459.564102,14023
1659430459.603381,14024
1659430459.64266,14024
1659430459.684672,14024
1659430459.726683,14037
1659430459.764937,14025
1659430459.803192,14023
1659430459.841446,14031
1659430459.880383,14033
1659430459.919321,14018
1659430459.958258,14007
1659430459.999245,14010
1659430460.040232,14024
1659430460.078486,14020
1659430460.11674,14029
1659430460.154995,14023
1659430460.195367,14036
1659430460.235739,14025
1659430460.276111,14028
1659430460.316483,14031
1659430460.356854,14034
1659430460.395792,14030
1659430460.434729,14039
1659430460.473667,14055
1659430460.515166,14046
1659430460.556665,14056
1659430460.595944,14060
1659430460.635223,14063
1659430460.674502,14058
1659430460.718221,14058
1659430460.76194,14067
1659430460.80566,14051
1659430460.848183,14058
1659430460.890707,14053
1659430460.929303,14058
1659430460.967899,14062
1659430461.006495,14078
1659430461.047482,14074
1659430461.088468,14078
1659430461.127064,14086
1659430461.16566,14095
1659430461.204256,14098
1659430461.244628,14096
1659430461.285,14103
1659430461.325372,14111
1659430461.365744,14125
1659430461.406116,14113
1659430461.445053,14120
1659430461.483991,14136
1659430461.522928,14135
1659430461.564939,14135
1659430461.606951,14111
1659430461.64623,14104
1659430461.685509,14109
1659430461.724788,14116
1659430461.763384,14115
1659430461.80198,14122
1659430461.840575,14135
1659430461.882587,14129
1659430461.924598,14144
1659430461.962853,14147
1659430462.001107,14143
1659430462.039361,14145
1659430462.08086,14158
1659430462.12236,14160
1659430462.161638,14157
1659430462.200917,14170
1659430462.240196,14172
1659430462.280671,14177
1659430462.321145,14179
1659430462.364865,14180
1659430462.408584,14172
1659430462.452303,14144
1659430462.491582,14143
1659430462.530861,14144
1659430462.57014,14151
1659430462.608736,14160
1659430462.647332,14170
1659430462.685928,14164
1659430462.727427,14164
1659430462.768926,14185
1659430462.808546,14188
1659430462.848167,14190
1659430462.887787,14185
1659430462.929286,14200
1659430462.970786,14203
1659430463.008698,14197
1659430463.046611,14210
1659430463.084524,14202
1659430463.123803,14214
1659430463.163082,14219
1659430463.202361,14219
1659430463.244372,14205
1659430463.286384,14200
1659430463.32498,14190
1659430463.363575,14193
1659430463.402171,14198
1659430463.443671,14196
1659430463.485169,14212
1659430463.526925,14215
1659430463.56868,14223
1659430463.610435,14215
1659430463.652191,14209
1659430463.693177,14213
1659430463.734164,14218
1659430463.774126,14225
1659430463.814088,14226
1659430463.85405,14235
1659430463.892646,14231
1659430463.931242,14237
1659430463.969838,14229
1659430464.011849,14237
1659430464.053861,14242
1659430464.092457,14227
1659430464.131053,14223
1659430464.169649,14225
1659430464.208244,14228
1659430464.24684,14230
1659430464.285436,14240
1659430464.327448,14238
1659430464.369459,14232
1659430464.410958,14240
1659430464.452457,14236
1659430464.491053,14242
1659430464.529649,14244
1659430464.568245,14250
1659430464.610256,14249
1659430464.652268,14261
1659430464.691205,14262
1659430464.730143,14262
1659430464.76908,14274
1659430464.813824,14267
1659430464.858568,14285
1659430464.903312,14267
1659430464.936101,14253
1659430464.96889,14252
1659430465.013634,14267
1659430465.058378,14280
1659430465.103122,14289
1659430465.136424,14300
1659430465.169726,14304
1659430465.213786,14312
1659430465.257847,14313
1659430465.301908,14306
1659430465.340162,14313
1659430465.378417,14308
1659430465.416671,14315
1659430465.456223,14314
1659430465.495775,14320
1659430465.535328,14323
1659430465.57488,14342
1659430465.614432,14335
1659430465.653028,14335
1659430465.691624,14328
1659430465.73022,14312
1659430465.76984,14302
1659430465.809461,14300
1659430465.849081,14309
1659430465.890324,14314
1659430465.931567,14319
1659430465.97281,14326
1659430466.014053,14324
1659430466.056065,14338
1659430466.098076,14340
1659430466.137355,14348
1659430466.176634,14353
1659430466.215913,14360
1659430466.2569,14359
1659430466.297886,14361
1659430466.336482,14374
1659430466.375078,14378
1659430466.413674,14382
1659430466.452611,14388
1659430466.491549,14389
1659430466.530486,14376
1659430466.571985,14351
1659430466.613485,14361
1659430466.654471,14355
1659430466.695458,14354
1659430466.734737,14363
1659430466.774016,14384
1659430466.813295,14382
1659430466.857356,14385
1659430466.901417,14390
1659430466.945477,14398
1659430466.978779,14411
1659430467.012081,14412
1659430467.057508,14424
1659430467.102935,14419
1659430467.148362,14418
1659430467.181151,14419
1659430467.213941,14428
1659430467.258343,14424
1659430467.302745,14433
1659430467.347148,14433
1659430467.386427,14412
1659430467.425706,14398
1659430467.464985,14397
1659430467.506484,14403
1659430467.547983,14404
1659430467.586237,14404
1659430467.624491,14411
1659430467.662746,14404
1659430467.704757,14417
1659430467.746769,14416
1659430467.785023,14424
1659430467.823277,14423
1659430467.861531,14419
1659430467.90081,14424
1659430467.940089,14431
1659430467.979368,14430
1659430468.018647,14433
1659430468.057926,14440
1659430468.097205,14437
1659430468.141608,14453
1659430468.18601,14441
1659430468.230412,14413
1659430468.26935,14428
1659430468.308287,14426
1659430468.347225,14440
1659430468.389236,14445
1659430468.431248,14451
1659430468.46916,14454
1659430468.507073,14471
1659430468.544986,14471
1659430468.58751,14469
1659430468.630033,14478
1659430468.668288,14482
1659430468.706542,14480
1659430468.744797,14481
1659430468.783051,14489
1659430468.821305,14484
1659430468.859559,14490
1659430468.900546,14504
1659430468.941533,14498
1659430468.98047,14509
1659430469.019408,14488
1659430469.058345,14461
1659430469.099844,14463
1659430469.141343,14459
1659430469.180281,14466
1659430469.219218,14474
1659430469.258156,14480
1659430469.300167,14478
1659430469.342179,14491
1659430469.381116,14494
1659430469.420053,14507
1659430469.458991,14502
1659430469.50049,14506
1659430469.541989,14524
1659430469.587075,14529
1659430469.63216,14529
1659430469.677245,14523
1659430469.7155,14532
1659430469.753754,14533
1659430469.792008,14546
1659430469.833507,14541
1659430469.875006,14518
1659430469.913602,14505
1659430469.952198,14498
1659430469.990794,14499
1659430470.033318,14496
1659430470.075842,14505
1659430470.114096,14504
1659430470.15235,14523
1659430470.190605,14517
1659430470.229884,14517
1659430470.269163,14525
1659430470.308442,14524
1659430470.349941,14526
1659430470.39144,14530
1659430470.43106,14537
1659430470.470681,14528
1659430470.510301,14536
1659430470.5518,14546
1659430470.5933,14550
1659430470.63292,14547
1659430470.672541,14549
1659430470.712161,14549
1659430470.751918,14512
1659430470.791676,14506
1659430470.831433,14509
1659430470.87119,14526
1659430470.910947,14525
1659430470.952446,14523
1659430470.993945,14532
1659430471.032541,14528
1659430471.071137,14538
1659430471.109733,14526
1659430471.150207,14535
1659430471.190682,14540
1659430471.230302,14542
1659430471.269923,14547
1659430471.309543,14549
1659430471.351043,14550
1659430471.392542,14549
1659430471.430796,14571
1659430471.46905,14565
1659430471.507304,14566
1659430471.548804,14559
1659430471.590303,14551
1659430471.629923,14541
1659430471.669544,14547
1659430471.709164,14544
1659430471.753225,14552
1659430471.797286,14559
1659430471.841347,14560
1659430471.882334,14573
1659430471.92332,14588
1659430471.962258,14586
1659430472.001195,14584
1659430472.040133,14588
1659430472.078045,14595
1659430472.115958,14603
1659430472.153871,14605
1659430472.196394,14611
1659430472.238918,14624
1659430472.277856,14623
1659430472.316793,14628
1659430472.355731,14620
1659430472.396205,14594
1659430472.436679,14580
1659430472.475958,14574
1659430472.515237,14577
1659430472.554516,14582
1659430472.593454,14599
1659430472.632391,14603
1659430472.671329,14594
1659430472.712828,14607
1659430472.754327,14605
1659430472.793264,14609
1659430472.832202,14617
1659430472.871139,14630
1659430472.913151,14633
1659430472.955162,14643
1659430472.993416,14642
1659430473.031671,14647
1659430473.069925,14654
1659430473.112449,14657
1659430473.154973,14657
1659430473.199716,14642
1659430473.24446,14610
1659430473.289204,14598
1659430473.321481,14597
1659430473.353758,14589
1659430473.397819,14598
1659430473.44188,14611
1659430473.485941,14616
1659430473.525561,14616
1659430473.565182,14623
1659430473.604802,14629
1659430473.646814,14630
1659430473.688825,14633
1659430473.727763,14634
1659430473.7667,14644
1659430473.805637,14650
1659430473.847649,14655
1659430473.88966,14678
1659430473.928256,14673
1659430473.966852,14676
1659430474.005448,14673
1659430474.043702,14654
1659430474.081957,14619
1659430474.120211,14608
1659430474.162735,14601
1659430474.205258,14606
1659430474.243513,14629
1659430474.281767,14636
1659430474.320021,14648
1659430474.361008,14649
1659430474.401995,14645
1659430474.440591,14648
1659430474.479187,14657
1659430474.517782,14658
1659430474.557061,14658
1659430474.59634,14679
1659430474.635619,14687
1659430474.676606,14704
1659430474.717593,14703
1659430474.759092,14699
1659430474.800591,14717
1659430474.840758,14719
1659430474.880925,14710
1659430474.921092,14667
1659430474.961259,14648
1659430475.001426,14646
1659430475.040364,14654
1659430475.079301,14659
1659430475.118239,14667
1659430475.158713,14683
1659430475.199188,14681
1659430475.238125,14680
1659430475.277062,14677
1659430475.316,14685
1659430475.357499,14682
1659430475.398998,14688
1659430475.443059,14697
1659430475.48712,14698
1659430475.53118,14709
1659430475.569435,14708
1659430475.607689,14708
1659430475.645943,14710
1659430475.686418,14710
1659430475.726892,14720
1659430475.766171,14708
1659430475.80545,14704
1659430475.844729,14702
1659430475.886741,14708
1659430475.928752,14702
1659430475.968919,14714
1659430476.009086,14713
1659430476.049253,14718
1659430476.08942,14720
1659430476.129587,14729
1659430476.171599,14737
1659430476.21361,14740
1659430476.252889,14742
1659430476.292168,14743
1659430476.331447,14756
1659430476.370043,14759
1659430476.408639,14763
1659430476.447235,14769
1659430476.489246,14773
1659430476.531257,14784
1659430476.569512,14775
1659430476.607766,14743
1659430476.64602,14724
1659430476.688032,14738
1659430476.730043,14722
1659430476.769322,14727
1659430476.808601,14749
1659430476.84788,14751
1659430476.886135,14741
1659430476.924389,14743
1659430476.962643,14751
1659430477.00363,14752
1659430477.044617,14761
1659430477.084579,14773
1659430477.124541,14785
1659430477.164503,14797
1659430477.204758,14792
1659430477.245013,14803
1659430477.285268,14792
1659430477.325522,14792
1659430477.365777,14793
1659430477.406032,14800
1659430477.446287,14772
1659430477.486044,14750
1659430477.525801,14744
1659430477.565558,14755
1659430477.605316,14757
1659430477.645073,14755
1659430477.687084,14754
1659430477.729096,14763
1659430477.771107,14764
1659430477.813119,14773
1659430477.853849,14780
1659430477.89458,14798
1659430477.93531,14800
1659430477.976041,14814
1659430478.015661,14807
1659430478.055282,14812
1659430478.094903,14825
1659430478.136402,14818
1659430478.177901,14828
1659430478.216155,14830
1659430478.25441,14839
1659430478.292664,14822
1659430478.331943,14787
1659430478.371222,14779
1659430478.410501,14762
1659430478.452512,14768
1659430478.494524,14764
1659430478.532778,14770
1659430478.571032,14774
1659430478.609287,14776
1659430478.647882,14779
1659430478.686478,14791
1659430478.725074,14793
1659430478.766573,14792
1659430478.808072,14803
1659430478.846327,14799
1659430478.884581,14811
1659430478.922835,14813
1659430478.965359,14819
1659430479.007883,14819
1659430479.049382,14811
1659430479.090881,14817
1659430479.129818,14819
1659430479.168756,14815
1659430479.207693,14787
1659430479.252437,14800
1659430479.297181,14800
1659430479.341925,14786
1659430479.375739,14800
1659430479.409553,14798
1659430479.453955,14803
1659430479.498358,14803
1659430479.54276,14812
1659430479.576062,14815
1659430479.609364,14824
1659430479.654108,14823
1659430479.698851,14832
1659430479.743595,14848
1659430479.782191,14854
1659430479.820787,14856
1659430479.859383,14855
1659430479.900882,14861
1659430479.942381,14864
1659430479.981319,14867
1659430480.020256,14867
1659430480.059193,14833
1659430480.097789,14834
1659430480.136385,14837
1659430480.174981,14836
1659430480.21648,14847
1659430480.257979,14858
1659430480.296917,14856
1659430480.335854,14862
1659430480.374792,14862
1659430480.417315,14873
1659430480.459839,14881
1659430480.498435,14888
1659430480.537031,14895
1659430480.575627,14898
1659430480.617126,14911
1659430480.658625,14911
1659430480.697562,14919
1659430480.7365,14915
1659430480.775437,14917
1659430480.819156,14920
1659430480.862876,14914
1659430480.906595,14875
1659430480.939897,14868
1659430480.973198,14863
1659430481.017601,14863
1659430481.062003,14878
1659430481.106405,14882
1659430481.14466,14888
1659430481.182914,14888
1659430481.221168,14886
1659430481.262923,14902
1659430481.304679,14893
1659430481.346434,14901
1659430481.388189,14899
1659430481.427127,14912
1659430481.466064,14910
1659430481.505002,14928
1659430481.545988,14929
1659430481.586975,14929
1659430481.626254,14933
1659430481.665533,14940
1659430481.704812,14925
1659430481.74375,14880
1659430481.782687,14854
1659430481.821625,14837
1659430481.862099,14854
1659430481.902573,14849
1659430481.941852,14857
1659430481.981131,14872
1659430482.02041,14864
1659430482.058665,14866
1659430482.096919,14868
1659430482.135173,14886
1659430482.176672,14894
1659430482.218171,14901
1659430482.25745,14899
1659430482.296729,14907
1659430482.336008,14916
1659430482.376995,14917
1659430482.417982,14939
1659430482.456919,14930
1659430482.495857,14943
1659430482.534794,14935
1659430482.577318,14899
1659430482.619842,14866
1659430482.658779,14859
1659430482.697716,14867
1659430482.736654,14861
1659430482.777641,14881
1659430482.818628,14874
1659430482.863713,14885
1659430482.908798,14898
1659430482.953884,14897
1659430482.987698,14905
1659430483.021512,14920
1659430483.065231,14927
1659430483.10895,14923
1659430483.15267,14947
1659430483.191607,14936
1659430483.230545,14943
1659430483.269482,14948
1659430483.310981,14949
1659430483.35248,14961
1659430483.390393,14949
1659430483.428306,14913
1659430483.466218,14882
1659430483.505497,14885
1659430483.544776,14881
1659430483.584055,14882
1659430483.626067,14898
1659430483.668078,14905
1659430483.706674,14906
1659430483.74527,14913
1659430483.783866,14920
1659430483.822803,14922
1659430483.861741,14933
1659430483.900678,14938
1659430483.94269,14947
1659430483.984701,14954
1659430484.022955,14960
1659430484.06121,14968
1659430484.099464,14963
1659430484.141475,14970
1659430484.183487,14977
1659430484.227889,14954
1659430484.272292,14913
1659430484.316694,14883
1659430484.348971,14888
1659430484.381248,14885
1659430484.424967,14905
1659430484.468687,14910
1659430484.512406,14917
1659430484.54622,14923
1659430484.580034,14921
1659430484.624436,14928
1659430484.668839,14942
1659430484.713241,14950
1659430484.752178,14947
1659430484.791116,14977
1659430484.830053,14968
1659430484.872065,14969
1659430484.914076,14989
1659430484.953013,14978
1659430484.991951,14982
1659430485.030888,14990
1659430485.072387,14957
1659430485.113887,14915
1659430485.152824,14896
1659430485.191761,14885
1659430485.230699,14883
1659430485.269636,14901
1659430485.308574,14910
1659430485.347511,14917
1659430485.387985,14918
1659430485.42846,14923
1659430485.467739,14937
1659430485.507018,14940
1659430485.546297,14950
1659430485.585576,14953
1659430485.624855,14955
1659430485.664134,14947
1659430485.704608,14957
1659430485.745083,14940
1659430485.786582,14941
1659430485.828081,14935
1659430485.868043,14921
1659430485.908005,14888
1659430485.947967,14840
1659430485.988954,14826
1659430486.029941,14822
1659430486.068537,14834
1659430486.107132,14843
1659430486.145728,14860
1659430486.191155,14873
1659430486.236582,14879
1659430486.282009,14892
1659430486.315311,14908
1659430486.348613,14926
1659430486.392674,14929
1659430486.436734,14941
1659430486.480795,14944
1659430486.517939,14949
1659430486.555084,14946
1659430486.592228,14944
1659430486.629372,14943
1659430486.673433,14955
1659430486.717494,14966
1659430486.761554,14915
1659430486.795369,14873
1659430486.829183,14848
1659430486.873927,14853
1659430486.91867,14861
1659430486.963414,14864
1659430487.001669,14875
1659430487.039923,14861
1659430487.078177,14861
1659430487.120189,14868
1659430487.1622,14861
1659430487.201479,14865
1659430487.240758,14870
1659430487.280037,14894
1659430487.318291,14912
1659430487.356546,14939
1659430487.3948,14940
1659430487.436299,14964
1659430487.477798,14993
1659430487.516394,15000
1659430487.55499,14999
1659430487.593586,14969
1659430487.63184,14977
1659430487.670094,14983
1659430487.708349,14988
1659430487.750873,14978
1659430487.793396,14965
1659430487.834383,14956
1659430487.87537,14944
1659430487.913966,14928
1659430487.952562,14926
1659430487.991158,14936
1659430488.033681,14930
1659430488.076205,14929
1659430488.115484,14935
1659430488.154763,14934
1659430488.194042,14941
1659430488.238103,14935
1659430488.282164,14956
1659430488.326224,14975
1659430488.360039,14992
1659430488.393852,14991
1659430488.438596,14987
1659430488.48334,14971
1659430488.528084,14968
1659430488.561898,14985
1659430488.595712,14998
1659430488.639773,14993
1659430488.683834,14995
1659430488.727895,15000
1659430488.766832,15010
1659430488.805769,15015
1659430488.844707,15027
1659430488.885181,15033
1659430488.925656,15050
1659430488.964252,15042
1659430489.002848,15051
1659430489.041443,15047
1659430489.083967,15048
1659430489.126491,15067
1659430489.165428,15072
1659430489.204366,15064
1659430489.243303,15052
1659430489.282241,15056
1659430489.321178,15058
1659430489.360116,15059
1659430489.402127,15069
1659430489.444139,15081
1659430489.483076,15079
1659430489.522013,15082
1659430489.560951,15085
1659430489.602962,15090
1659430489.644974,15094
1659430489.683569,15100
1659430489.722165,15113
1659430489.760761,15116
1659430489.80226,15115
1659430489.843759,15142
1659430489.882014,15142
1659430489.920268,15158
1659430489.958522,15142
1659430490.000534,15136
1659430490.042545,15133
1659430490.086606,15126
1659430490.130667,15140
1659430490.174728,15137
1659430490.213323,15153
1659430490.251919,15153
1659430490.290515,15166
1659430490.332014,15164
1659430490.373513,15155
1659430490.412451,15168
1659430490.451388,15172
1659430490.490326,15171
1659430490.532337,15175
1659430490.574348,15188
1659430490.613286,15186
1659430490.652223,15212
1659430490.691161,15208
1659430490.729757,15221
1659430490.768353,15233
1659430490.806948,15229
1659430490.847935,15226
1659430490.888922,15214
1659430490.927518,15217
1659430490.966114,15210
1659430491.004709,15223
1659430491.043988,15229
1659430491.083267,15224
1659430491.122546,15236
1659430491.163021,15242
1659430491.203496,15263
1659430491.242091,15260
1659430491.280687,15261
1659430491.319283,15258
1659430491.362319,15265
1659430491.405355,15268
1659430491.444293,15272
1659430491.48323,15284
1659430491.522167,15290
1659430491.563154,15311
1659430491.604141,15300
1659430491.649226,15274
1659430491.694312,15268
1659430491.739397,15261
1659430491.77936,15257
1659430491.819322,15273
1659430491.859284,15279
1659430491.899246,15272
1659430491.939208,15288
1659430491.971997,15280
1659430492.004787,15288
1659430492.049531,15295
1659430492.094275,15301
1659430492.139018,15313
1659430492.176931,15308
1659430492.214844,15308
1659430492.252757,15313
1659430492.295793,15321
1659430492.338829,15325
1659430492.377425,15318
1659430492.416021,15328
1659430492.454617,15291
1659430492.495603,15258
1659430492.53659,15253
1659430492.575869,15242
1659430492.615148,15254
1659430492.654427,15270
1659430492.693364,15277
1659430492.732302,15279
1659430492.771239,15289
1659430492.812738,15289
1659430492.854238,15290
1659430492.893517,15293
1659430492.932796,15293
1659430492.972075,15304
1659430493.013573,15311
1659430493.055073,15314
1659430493.093327,15316
1659430493.131581,15328
1659430493.169836,15325
1659430493.211335,15326
1659430493.252834,15318
1659430493.291771,15285
1659430493.330709,15284
1659430493.369646,15281
1659430493.41012,15285
1659430493.450595,15296
1659430493.489532,15307
1659430493.52847,15315
1659430493.567407,15336
1659430493.611809,15327
1659430493.656212,15330
1659430493.700614,15340
1659430493.742626,15342
1659430493.784637,15348
1659430493.823233,15356
1659430493.861829,15369
1659430493.900425,15361
1659430493.942436,15372
1659430493.984447,15378
1659430494.022702,15374
1659430494.060956,15379
1659430494.099211,15343
1659430494.137806,15333
1659430494.176402,15339
1659430494.214998,15342
1659430494.254277,15344
1659430494.293556,15358
1659430494.332835,15359
1659430494.374334,15363
1659430494.415833,15362
1659430494.454087,15365
1659430494.492342,15370
1659430494.530596,15376
1659430494.572608,15376
1659430494.614619,15387
1659430494.65424,15385
1659430494.69386,15393
1659430494.733481,15390
1659430494.774467,15402
1659430494.815454,15394
1659430494.854392,15368
1659430494.893329,15338
1659430494.932266,15335
1659430494.97479,15347
1659430495.017314,15361
1659430495.056252,15365
1659430495.095189,15362
1659430495.134126,15372
1659430495.175113,15367
1659430495.2161,15375
1659430495.260502,15378
1659430495.304904,15379
1659430495.349307,15386
1659430495.388244,15384
1659430495.427182,15376
1659430495.466119,15385
1659430495.507106,15381
1659430495.548093,15389
1659430495.588055,15383
1659430495.628017,15381
1659430495.667979,15349
1659430495.708453,15336
1659430495.748928,15344
1659430495.787865,15346
1659430495.826803,15351
1659430495.86574,15346
1659430495.905361,15359
1659430495.944981,15361
1659430495.984602,15368
1659430496.026101,15363
1659430496.0676,15380
1659430496.105854,15377
1659430496.144109,15392
1659430496.182363,15388
1659430496.224887,15389
1659430496.267411,15398
1659430496.305665,15400
1659430496.343919,15404
1659430496.382174,15408
1659430496.420769,15412
1659430496.459365,15380
1659430496.497961,15378
1659430496.539973,15375
1659430496.581984,15371
1659430496.622971,15386
1659430496.663957,15389
1659430496.70187,15393
1659430496.739783,15389
1659430496.777696,15396
1659430496.822781,15390
1659430496.867867,15401
1659430496.912952,15405
1659430496.946254,15408
1659430496.979556,15407
1659430497.019518,15415
1659430497.05948,15427
1659430497.099442,15412
1659430497.139404,15401
1659430497.179366,15398
1659430497.221377,15409
1659430497.263389,15393
1659430497.301985,15381
1659430497.340581,15394
1659430497.379177,15400
1659430497.423579,15399
1659430497.467981,15387
1659430497.512383,15386
1659430497.553883,15394
1659430497.595382,15399
1659430497.634729,15394
1659430497.674076,15402
1659430497.713424,15411
1659430497.752771,15415
1659430497.792118,15426
1659430497.831397,15416
1659430497.870676,15420
1659430497.909955,15437
1659430497.948551,15440
1659430497.987147,15444
1659430498.025743,15427
1659430498.067754,15409
1659430498.109766,15409
1659430498.149045,15415
1659430498.188324,15418
1659430498.227603,15424
1659430498.269614,15431
1659430498.311625,15437
1659430498.350563,15439
1659430498.3895,15445
1659430498.428438,15447
1659430498.467375,15439
1659430498.506313,15447
1659430498.54525,15443
1659430498.586237,15443
1659430498.627223,15459
1659430498.665819,15458
1659430498.704415,15475
1659430498.743011,15474
1659430498.785535,15462
1659430498.828059,15435
1659430498.872461,15427
1659430498.916863,15426
1659430498.961266,15421
1659430498.993543,15436
1659430499.02582,15447
1659430499.070564,15455
1659430499.115308,15453
1659430499.160052,15462
1659430499.193353,15475
1659430499.226655,15473
1659430499.271057,15472
1659430499.31546,15482
1659430499.359862,15489
1659430499.398799,15491
1659430499.437737,15504
1659430499.476674,15491
1659430499.518173,15497
1659430499.559673,15490
1659430499.597927,15448
1659430499.636181,15430
1659430499.674435,15436
1659430499.716447,15438
1659430499.758458,15447
1659430499.796115,15453
1659430499.833771,15460
1659430499.871428,15459
1659430499.909085,15448
1659430499.949559,15433
1659430499.990034,15403
1659430500.028288,15373
1659430500.066542,15357
1659430500.104797,15358
1659430500.14732,15347
1659430500.189844,15340
1659430500.233905,15344
1659430500.277966,15348
1659430500.322026,15345
1659430500.360964,15341
1659430500.399901,15327
1659430500.438839,15332
1659430500.480338,15338
1659430500.521837,15339
1659430500.560774,15340
1659430500.599712,15340
1659430500.638649,15338
1659430500.680148,15337
1659430500.721648,15333
1659430500.760926,15317
1659430500.800205,15318
1659430500.839484,15332
1659430500.877739,15331
1659430500.915993,15329
1659430500.954247,15330
1659430500.995234,15339
1659430501.036221,15352
1659430501.0755,15330
1659430501.114779,15331
1659430501.154058,15331
1659430501.196069,15312
1659430501.238081,15307
1659430501.276676,15302
1659430501.315272,15313
1659430501.353868,15319
1659430501.393489,15325
1659430501.433109,15314
1659430501.47273,15304
1659430501.514229,15310
1659430501.555728,15319
1659430501.594666,15317
1659430501.633603,15311
1659430501.67254,15303
1659430501.715064,15291
1659430501.757588,15279
1659430501.80199,15261
1659430501.846393,15247
1659430501.890795,15239
1659430501.928708,15210
1659430501.96662,15215
1659430502.004533,15229
1659430502.046545,15224
1659430502.088556,15213
1659430502.1257,15209
1659430502.162845,15199
1659430502.199989,15171
1659430502.237133,15165
1659430502.2773,15160
1659430502.317467,15162
1659430502.357634,15157
1659430502.397801,15158
1659430502.437968,15176
1659430502.482371,15178
1659430502.526773,15177
1659430502.571175,15169
1659430502.603965,15177
1659430502.636754,15173
1659430502.681839,15176
1659430502.726925,15176
1659430502.77201,15170
1659430502.8048,15184
1659430502.837589,15178
1659430502.881992,15170
1659430502.926394,15174
1659430502.970796,15179
1659430503.009392,15183
1659430503.047988,15213
1659430503.086584,15199
1659430503.127571,15202
1659430503.168557,15208
1659430503.206812,15204
1659430503.245066,15204
1659430503.28332,15197
1659430503.322258,15203
1659430503.361195,15204
1659430503.400133,15209
1659430503.441632,15213
1659430503.483131,15215
1659430503.521727,15230
1659430503.560323,15219
1659430503.598918,15206
1659430503.64093,15184
1659430503.682941,15184
1659430503.721879,15184
1659430503.760816,15192
1659430503.799754,15201
1659430503.839033,15200
1659430503.878312,15208
1659430503.917591,15204
1659430503.959602,15216
1659430504.001613,15209
1659430504.0426,15204
1659430504.083587,15214
1659430504.122524,15201
1659430504.161462,15206
1659430504.200399,15202
1659430504.24446,15212
1659430504.288521,15203
1659430504.332582,15211
1659430504.370238,15205
1659430504.407895,15202
1659430504.445551,15216
1659430504.483208,15218
1659430504.521804,15228
1659430504.5604,15233
1659430504.598995,15240
1659430504.641519,15241
1659430504.684043,15240
1659430504.726054,15250
1659430504.768066,15255
1659430504.806662,15254
1659430504.845258,15260
1659430504.883854,15258
1659430504.928597,15264
1659430504.973341,15262
1659430505.018085,15262
1659430505.052412,15258
1659430505.086738,15252
1659430505.130457,15259
1659430505.174176,15280
1659430505.217896,15271
1659430505.250173,15267
1659430505.28245,15260
1659430505.327194,15251
1659430505.371938,15248
1659430505.416682,15242
1659430505.454936,15243
1659430505.49319,15248
1659430505.531445,15266
1659430505.573456,15259
1659430505.615467,15270
1659430505.654405,15267
1659430505.693342,15259
1659430505.73228,15270
1659430505.770534,15271
1659430505.808788,15282
1659430505.847043,15283
1659430505.888542,15282
1659430505.930041,15273
1659430505.969661,15291
1659430506.009282,15282
1659430506.048903,15278
1659430506.089889,15290
1659430506.130876,15288
1659430506.169813,15286
1659430506.208751,15288
1659430506.247688,15291
1659430506.289187,15289
1659430506.330687,15291
1659430506.369282,15298
1659430506.407878,15290
1659430506.446474,15305
1659430506.486948,15306
1659430506.527423,15314
1659430506.56636,15302
1659430506.605298,15299
1659430506.644235,15295
1659430506.685478,15295
1659430506.726721,15299
1659430506.767964,15294
1659430506.809207,15298
1659430506.848486,15289
1659430506.887765,15303
1659430506.927044,15302
1659430506.968543,15297
1659430507.010042,15304
1659430507.048638,15291
1659430507.087234,15289
1659430507.12583,15289
1659430507.168354,15295
1659430507.210877,15295
1659430507.250156,15301
1659430507.289435,15298
1659430507.328714,15296
1659430507.369189,15307
1659430507.409663,15305
1659430507.448601,15311
1659430507.487538,15310
1659430507.526475,15314
1659430507.568231,15319
1659430507.609986,15312
1659430507.651741,15317
1659430507.693496,15319
1659430507.731751,15332
1659430507.770005,15317
1659430507.808259,15312
1659430507.850783,15302
1659430507.893307,15304
1659430507.932244,15303
1659430507.971182,15296
1659430508.010119,15297
1659430508.054863,15297
1659430508.099607,15311
1659430508.144351,15302
1659430508.17714,15301
1659430508.20993,15286
1659430508.254674,15282
1659430508.299417,15299
1659430508.344161,15294
1659430508.38566,15300
1659430508.42716,15297
1659430508.466097,15317
1659430508.505034,15327
1659430508.543972,15330
1659430508.582568,15319
1659430508.621164,15322
1659430508.65976,15325
1659430508.698355,15330
1659430508.736951,15330
1659430508.775547,15342
1659430508.816534,15343
1659430508.857521,15342
1659430508.89902,15360
1659430508.940519,15357
1659430508.982018,15355
1659430509.023517,15356
1659430509.065528,15355
1659430509.10754,15361
1659430509.146819,15366
1659430509.186098,15372
1659430509.225377,15372
1659430509.266364,15375
1659430509.30735,15378
1659430509.345946,15377
1659430509.384542,15378
1659430509.423138,15373
1659430509.462075,15364
1659430509.501013,15368
1659430509.53995,15368
1659430509.581962,15374
1659430509.623973,15382
1659430509.662569,15376
1659430509.701165,15386
1659430509.739761,15382
1659430509.778357,15384
1659430509.816952,15379
1659430509.855548,15379
1659430509.897048,15376
1659430509.938547,15375
1659430509.976801,15373
1659430510.015055,15384
1659430510.05331,15390
1659430510.095321,15378
1659430510.137332,15388
1659430510.176953,15377
1659430510.216573,15375
1659430510.256194,15374
1659430510.297181,15376
1659430510.338168,15385
1659430510.377105,15387
1659430510.416043,15406
1659430510.45498,15399
1659430510.497504,15401
1659430510.540027,15388
1659430510.584088,15383
1659430510.628149,15382
1659430510.67221,15378
1659430510.710806,15366
1659430510.749402,15357
1659430510.787997,15363
1659430510.829496,15370
1659430510.870996,15380
1659430510.909591,15365
1659430510.948187,15368
1659430510.986783,15372
1659430511.028795,15377
1659430511.070806,15386
1659430511.109744,15386
1659430511.148681,15389
1659430511.187618,15393
1659430511.229374,15398
1659430511.271129,15393
1659430511.312884,15393
1659430511.35464,15389
1659430511.393919,15389
1659430511.433197,15409
1659430511.472476,15412
1659430511.511414,15411
1659430511.550351,15409
1659430511.589289,15408
1659430511.630275,15416
1659430511.671262,15423
1659430511.7102,15430
1659430511.749137,15431
1659430511.788074,15438
1659430511.830598,15430
1659430511.873122,15426
1659430511.911035,15432
1659430511.948948,15427
1659430511.98686,15429
1659430512.025798,15423
1659430512.064735,15432
1659430512.103673,15432
1659430512.144659,15435
1659430512.185646,15428
1659430512.224584,15422
1659430512.263521,15431
1659430512.302459,15437
1659430512.342933,15441
1659430512.383407,15432
1659430512.422686,15442
1659430512.461965,15432
1659430512.501244,15435
1659430512.542231,15424
1659430512.583218,15414
1659430512.627962,15418
1659430512.672706,15415
1659430512.717449,15410
1659430512.751264,15408
1659430512.785078,15418
1659430512.82463,15408
1659430512.864182,15417
1659430512.903734,15415
1659430512.943286,15417
1659430512.982839,15433
1659430513.025362,15435
1659430513.067886,15445
1659430513.106482,15429
1659430513.145078,15413
1659430513.183674,15407
1659430513.227735,15413
1659430513.271796,15413
1659430513.315856,15414
1659430513.348646,15423
1659430513.381435,15432
1659430513.426179,15459
1659430513.470923,15455
1659430513.515667,15450
1659430513.556361,15454
1659430513.597055,15458
1659430513.637749,15450
1659430513.678443,15444
1659430513.719137,15453
1659430513.759831,15452
1659430513.800525,15459
1659430513.839462,15443
1659430513.8784,15453
1659430513.917337,15461
1659430513.956275,15454
1659430513.995212,15439
1659430514.034149,15439
1659430514.073906,15445
1659430514.113664,15443
1659430514.153421,15440
1659430514.193178,15421
1659430514.232935,15418
1659430514.271531,15417
1659430514.310127,15420
1659430514.348723,15419
1659430514.393125,15419
1659430514.437527,15419
1659430514.48193,15420
1659430514.515744,15426
1659430514.549558,15420
1659430514.59396,15412
1659430514.638363,15427
1659430514.682765,15424
1659430514.722044,15440
1659430514.761323,15439
1659430514.800602,15434
1659430514.841589,15441
1659430514.882576,15443
1659430514.921513,15443
1659430514.96045,15447
1659430514.999388,15445
1659430515.041399,15442
1659430515.083411,15438
1659430515.122348,15437
1659430515.161285,15437
1659430515.200223,15453
1659430515.238136,15443
1659430515.276048,15448
1659430515.313961,15453
1659430515.355973,15460
1659430515.397984,15453
1659430515.436238,15471
1659430515.474493,15469
1659430515.512747,15466
1659430515.554246,15480
1659430515.595745,15485
1659430515.634683,15475
1659430515.67362,15473
1659430515.712558,15479
1659430515.754056,15475
1659430515.795556,15489
1659430515.83381,15493
1659430515.872064,15490
1659430515.910319,15496
1659430515.955404,15486
1659430516.000489,15502
1659430516.045575,15502
1659430516.078877,15504
1659430516.112178,15497
1659430516.156239,15499
1659430516.2003,15494
1659430516.244361,15491
1659430516.28364,15490
1659430516.322919,15490
1659430516.362198,15501
1659430516.403184,15488
1659430516.444171,15482
1659430516.482767,15475
1659430516.521363,15480
1659430516.559959,15478
1659430516.60197,15485
1659430516.643982,15487
1659430516.682578,15478
1659430516.721174,15482
1659430516.759769,15463
1659430516.798707,15453
1659430516.837644,15443
1659430516.876582,15436
1659430516.918593,15430
1659430516.960604,15428
1659430516.999883,15421
1659430517.039162,15419
1659430517.078441,15408
1659430517.119428,15399
1659430517.160415,15401
1659430517.199694,15402
1659430517.238973,15408
1659430517.278252,15405
1659430517.320776,15407
1659430517.363299,15417
1659430517.401554,15425
1659430517.439808,15432
1659430517.478062,15435
1659430517.519049,15440
1659430517.560036,15439
1659430517.598973,15432
1659430517.637911,15437
1659430517.676848,15431
1659430517.720909,15423
1659430517.76497,15434
1659430517.809031,15440
1659430517.851554,15432
1659430517.894078,15440
1659430517.933357,15429
1659430517.972636,15436
1659430518.011915,15440
1659430518.052902,15429
1659430518.093889,15433
1659430518.134056,15437
1659430518.174223,15443
1659430518.21439,15436
1659430518.254557,15437
1659430518.294724,15444
1659430518.33332,15451
1659430518.371916,15448
1659430518.410511,15443
1659430518.449107,15449
1659430518.487703,15448
1659430518.526299,15452
1659430518.567286,15442
1659430518.608273,15451
1659430518.646868,15448
1659430518.685464,15446
1659430518.72406,15438
1659430518.762315,15436
1659430518.800569,15442
1659430518.838823,15447
1659430518.880835,15445
1659430518.922846,15437
1659430518.961783,15442
1659430519.000721,15437
1659430519.039658,15457
1659430519.080645,15459
1659430519.121632,15453
1659430519.166376,15460
1659430519.21112,15461
1659430519.255863,15455
1659430519.289678,15454
1659430519.323492,15453
1659430519.367552,15451
1659430519.411613,15453
1659430519.455674,15452
1659430519.488976,15440
1659430519.522277,15452
1659430519.56668,15450
1659430519.611082,15456
1659430519.655484,15457
1659430519.69408,15453
1659430519.732676,15459
1659430519.771272,15467
1659430519.813283,15460
1659430519.855295,15455
1659430519.894574,15463
1659430519.933853,15466
1659430519.973132,15473
1659430520.014119,15463
1659430520.055105,15461
1659430520.093701,15465
1659430520.132297,15455
1659430520.170893,15453
1659430520.210855,15449
1659430520.250817,15452
1659430520.290779,15437
1659430520.332278,15457
1659430520.373778,15446
1659430520.412373,15433
1659430520.450969,15440
1659430520.489565,15435
1659430520.532089,15427
1659430520.574613,15429
1659430520.613892,15432
1659430520.653171,15427
1659430520.69245,15421
1659430520.732924,15413
1659430520.773398,15421
1659430520.812677,15423
1659430520.851956,15425
1659430520.891235,15420
1659430520.932222,15419
1659430520.973209,15410
1659430521.011805,15412
1659430521.050401,15410
1659430521.088997,15410
1659430521.13374,15412
1659430521.178484,15411
1659430521.223228,15406
1659430521.256018,15413
1659430521.288807,15404
1659430521.332868,15408
1659430521.376929,15416
1659430521.42099,15405
1659430521.462488,15406
1659430521.503988,15423
1659430521.543608,15422
1659430521.583229,15417
1659430521.622849,15433
1659430521.661103,15419
1659430521.699358,15416
1659430521.737612,15431
1659430521.779111,15427
1659430521.82061,15424
1659430521.859206,15426
1659430521.897802,15422
1659430521.936398,15438
1659430521.974652,15435
1659430522.012907,15413
1659430522.051161,15415
1659430522.093685,15428
1659430522.136209,15427
1659430522.175146,15424
1659430522.214083,15418
1659430522.253021,15414
1659430522.293495,15419
1659430522.33397,15423
1659430522.372907,15433
1659430522.411844,15434
1659430522.450782,15432
1659430522.493306,15434
1659430522.53583,15444
1659430522.574425,15436
1659430522.613021,15434
1659430522.651617,15441
1659430522.692604,15451
1659430522.733591,15448
1659430522.77287,15439
1659430522.812149,15440
1659430522.851428,15443
1659430522.895488,15437
1659430522.939549,15442
1659430522.98361,15438
1659430523.022547,15444
1659430523.061485,15440
1659430523.100422,15430
1659430523.142946,15436
1659430523.18547,15432
1659430523.224066,15435
1659430523.262661,15453
1659430523.301257,15447
1659430523.342244,15436
1659430523.383231,15431
1659430523.423603,15434
1659430523.463975,15434
1659430523.504347,15437
1659430523.544719,15432
1659430523.585091,15426
1659430523.624028,15423
1659430523.662966,15428
1659430523.701903,15427
1659430523.741182,15418
1659430523.780461,15403
1659430523.81974,15406
1659430523.861239,15401
1659430523.902738,15392
1659430523.941676,15386
1659430523.980613,15388
1659430524.019551,15392
1659430524.060537,15394
1659430524.101524,15394
1659430524.140461,15379
1659430524.179399,15389
1659430524.218336,15380
1659430524.262055,15378
1659430524.305775,15386
1659430524.349494,15384
1659430524.390481,15385
1659430524.431468,15381
1659430524.471088,15380
1659430524.510709,15376
1659430524.550329,15388
1659430524.591316,15377
1659430524.632303,15385
1659430524.67124,15396
1659430524.710177,15394
1659430524.749115,15391
1659430524.788394,15381
1659430524.827673,15384
1659430524.866952,15380
1659430524.908451,15394
1659430524.94995,15385
1659430524.988546,15390
1659430525.027142,15385
1659430525.065738,15395
1659430525.104675,15398
1659430525.143613,15397
1659430525.18255,15399
1659430525.223024,15408
1659430525.263499,15417
1659430525.302095,15409
1659430525.340691,15415
1659430525.379287,15419
1659430525.421298,15427
1659430525.463309,15434
1659430525.501222,15420
1659430525.539135,15421
1659430525.577048,15412
1659430525.617522,15410
1659430525.657996,15407
1659430525.703424,15406
1659430525.74885,15412
1659430525.794277,15418
1659430525.827579,15404
1659430525.860881,15407
1659430525.905283,15398
1659430525.949686,15404
1659430525.994088,15400
1659430526.033709,15396
1659430526.073329,15408
1659430526.11295,15404
1659430526.154449,15425
1659430526.195948,15415
1659430526.234202,15402
1659430526.272456,15405
1659430526.310711,15416
1659430526.353747,15420
1659430526.396783,15409
1659430526.435379,15407
1659430526.473975,15405
1659430526.512571,15412
1659430526.551167,15408
1659430526.589762,15415
1659430526.628358,15418
1659430526.669857,15418
1659430526.711356,15422
1659430526.750294,15419
1659430526.789231,15437
1659430526.828169,15443
1659430526.869668,15440
1659430526.911167,15430
1659430526.950446,15420
1659430526.989725,15436
1659430527.029004,15443
1659430527.067941,15441
1659430527.106879,15435
1659430527.145816,15442
1659430527.187315,15446
1659430527.228814,15443
1659430527.270826,15416
1659430527.312837,15416
1659430527.351775,15425
1659430527.390712,15421
1659430527.429649,15416
1659430527.473369,15413
1659430527.517088,15414
1659430527.560807,15408
1659430527.593596,15405
1659430527.626386,15405
1659430527.670788,15402
1659430527.715191,15403
1659430527.759593,15398
1659430527.792895,15400
1659430527.826196,15403
1659430527.870599,15407
1659430527.915001,15408
1659430527.959404,15400
1659430527.998341,15398
1659430528.037278,15403
1659430528.076216,15399
1659430528.117203,15395
1659430528.158189,15407
1659430528.197468,15401
1659430528.236747,15419
1659430528.276026,15428
1659430528.318038,15423
1659430528.360049,15420
1659430528.398645,15422
1659430528.437241,15428
1659430528.475837,15427
1659430528.514091,15442
1659430528.552345,15444
1659430528.5906,15446
1659430528.633123,15455
1659430528.675647,15451
1659430528.716634,15453
1659430528.757621,15467
1659430528.798608,15472
1659430528.839594,15465
1659430528.87819,15455
1659430528.916786,15452
1659430528.955382,15458
1659430528.995003,15454
1659430529.034623,15451
1659430529.074244,15456
1659430529.115743,15457
1659430529.157242,15465
1659430529.195837,15461
1659430529.234433,15463
1659430529.273029,15474
1659430529.315553,15479
1659430529.358077,15476
1659430529.397014,15477
1659430529.435952,15475
1659430529.474889,15484
1659430529.516388,15490
1659430529.557887,15497
1659430529.597166,15491
1659430529.636445,15496
1659430529.675724,15498
1659430529.719785,15483
1659430529.763846,15478
1659430529.807907,15480
1659430529.841208,15470
1659430529.87451,15470
1659430529.919254,15476
1659430529.963998,15478
1659430530.008742,15480
1659430530.041531,15494
1659430530.074321,15495
1659430530.118723,15490
1659430530.163125,15485
1659430530.207528,15480
1659430530.246807,15493
1659430530.286086,15498
1659430530.325365,15488
1659430530.367376,15484
1659430530.409387,15483
1659430530.447642,15476
1659430530.485896,15484
1659430530.52415,15462
1659430530.566674,15447
1659430530.609198,15454
1659430530.647452,15448
1659430530.685707,15450
1659430530.723961,15454
1659430530.762215,15451
1659430530.800469,15451
1659430530.838724,15456
1659430530.881248,15449
1659430530.923771,15445
1659430530.962026,15448
1659430531.00028,15445
1659430531.038534,15445
1659430531.079009,15448
1659430531.119483,15447
1659430531.158762,15446
1659430531.198041,15449
1659430531.23732,15448
1659430531.279331,15447
1659430531.321343,15456
1659430531.359939,15440
1659430531.398535,15434
1659430531.437131,15430
1659430531.478117,15424
1659430531.519104,15427
1659430531.56419,15428
1659430531.609275,15435
1659430531.654361,15436
1659430531.692273,15441
1659430531.730186,15437
1659430531.768099,15441
1659430531.810622,15431
1659430531.853146,15431
1659430531.891742,15436
1659430531.930338,15430
1659430531.968934,15430
1659430532.007188,15425
1659430532.045443,15439
1659430532.083697,15442
1659430532.125196,15466
1659430532.166695,15460
1659430532.205632,15443
1659430532.24457,15456
1659430532.283507,15439
1659430532.325006,15453
1659430532.366506,15450
1659430532.405785,15452
1659430532.445064,15456
1659430532.484343,15459
1659430532.52328,15459
1659430532.562217,15454
1659430532.601155,15456
1659430532.643166,15461
1659430532.685178,15467
1659430532.724115,15453
1659430532.763052,15452
1659430532.80199,15451
1659430532.844001,15469
1659430532.886013,15476
1659430532.924609,15479
1659430532.963205,15482
1659430533.001801,15481
1659430533.042787,15482
1659430533.083774,15471
1659430533.128176,15481
1659430533.172579,15489
1659430533.216981,15491
1659430533.255919,15491
1659430533.294856,15485
1659430533.333793,15488
1659430533.37478,15489
1659430533.415767,15502
1659430533.455046,15485
1659430533.494325,15485
1659430533.533604,15491
1659430533.575103,15496
1659430533.616602,15494
1659430533.655881,15495
1659430533.69516,15507
1659430533.734439,15491
1659430533.773376,15487
1659430533.812314,15492
1659430533.851251,15490
1659430533.893263,15483
1659430533.935274,15476
1659430533.974724,15477
1659430534.014174,15479
1659430534.053623,15472
1659430534.093073,15475
1659430534.132523,15472
1659430534.171973,15468
1659430534.211422,15467
1659430534.250872,15471
1659430534.291347,15472
1659430534.331821,15481
1659430534.372295,15477
1659430534.41277,15468
1659430534.454781,15469
1659430534.496793,15467
1659430534.536072,15465
1659430534.575351,15469
1659430534.61463,15478
1659430534.655617,15486
1659430534.696603,15500
1659430534.735541,15472
1659430534.774478,15473
1659430534.813416,15480
1659430534.853036,15469
1659430534.892657,15489
1659430534.932277,15488
1659430534.973264,15485
1659430535.014251,15477
1659430535.053188,15501
1659430535.092126,15493
1659430535.131063,15498
1659430535.172562,15498
1659430535.214061,15505
1659430535.252657,15510
1659430535.291253,15507
1659430535.329849,15511
1659430535.371348,15508
1659430535.412847,15516
1659430535.451443,15509
1659430535.490039,15511
1659430535.528635,15511
1659430535.569621,15508
1659430535.610608,15514
1659430535.649887,15511
1659430535.689166,15511
1659430535.728445,15502
1659430535.77353,15503
1659430535.818616,15503
1659430535.863701,15507
1659430535.895978,15515
1659430535.928256,15516
1659430535.972658,15520
1659430536.01706,15514
1659430536.061463,15507
1659430536.103986,15516
1659430536.14651,15522
1659430536.185789,15525
1659430536.225068,15520
1659430536.264347,15526
1659430536.302943,15527
1659430536.341539,15536
1659430536.380135,15514
1659430536.421634,15506
1659430536.463133,15507
1659430536.501387,15503
1659430536.539642,15502
1659430536.577896,15503
1659430536.616492,15514
1659430536.655088,15517
1659430536.693683,15522
1659430536.736207,15519
1659430536.778731,15516
1659430536.817327,15517
1659430536.855923,15516
1659430536.894519,15515
1659430536.936018,15514
1659430536.977517,15510
1659430537.016796,15525
1659430537.056075,15528
1659430537.095354,15517
1659430537.136853,15509
1659430537.178352,15503
1659430537.216948,15495
1659430537.255544,15496
1659430537.29414,15481
1659430537.335126,15482
1659430537.376113,15481
1659430537.420516,15476
1659430537.464918,15475
1659430537.50932,15471
1659430537.547575,15484
1659430537.585829,15477
1659430537.624083,15496
1659430537.666607,15493
1659430537.709131,15499
1659430537.747726,15504
1659430537.786322,15496
1659430537.824918,15491
1659430537.865905,15501
1659430537.906892,15518
1659430537.945829,15514
1659430537.984767,15530
1659430538.023704,15521
1659430538.062642,15507
1659430538.101579,15499
1659430538.140516,15494
1659430538.182528,15502
1659430538.224539,15508
1659430538.263477,15523
1659430538.302414,15525
1659430538.341352,15537
1659430538.380289,15537
1659430538.419226,15531
1659430538.458164,15543
1659430538.499151,15531
1659430538.540137,15544
1659430538.579075,15543
1659430538.618012,15557
1659430538.65695,15565
1659430538.698449,15560
1659430538.739948,15572
1659430538.778544,15572
1659430538.81714,15590
1659430538.855736,15583
1659430538.896722,15572
1659430538.937709,15570
1659430538.982453,15551
1659430539.027197,15563
1659430539.071941,15569
1659430539.11122,15577
1659430539.150499,15583
1659430539.189778,15589
1659430539.231277,15572
1659430539.272776,15559
1659430539.312943,15573
1659430539.35311,15597
1659430539.393277,15606
1659430539.433444,15600
1659430539.473611,15598
1659430539.510755,15590
1659430539.547899,15579
1659430539.585044,15578
1659430539.622188,15580
1659430539.665224,15587
1659430539.70826,15583
1659430539.746515,15569
1659430539.784769,15572
1659430539.823023,15567
1659430539.867084,15578
1659430539.911145,15573
1659430539.955205,15566
1659430539.988507,15577
1659430540.021809,15567
1659430540.06587,15567
1659430540.109931,15565
1659430540.153991,15573
1659430540.186781,15581
1659430540.21957,15582
1659430540.264656,15576
1659430540.309741,15577
1659430540.354826,15580
1659430540.393422,15571
1659430540.432018,15576
1659430540.470614,15570
1659430540.511601,15579
1659430540.552588,15571
1659430540.591525,15559
1659430540.630462,15547
1659430540.6694,15542
1659430540.711411,15546
1659430540.753423,15552
1659430540.791336,15557
1659430540.829248,15565
1659430540.867161,15554
1659430540.906098,15551
1659430540.945036,15549
1659430540.983973,15549
1659430541.02496,15543
1659430541.065947,15560
1659430541.104884,15562
1659430541.143822,15579
1659430541.182759,15571
1659430541.224771,15563
1659430541.266782,15573
1659430541.305719,15561
1659430541.344657,15577
1659430541.383594,15574
1659430541.424581,15574
1659430541.465568,15566
1659430541.505188,15569
1659430541.544809,15563
1659430541.58443,15561
1659430541.626441,15577
1659430541.668452,15567
1659430541.707048,15578
1659430541.745644,15576
1659430541.78424,15580
1659430541.828642,15583
1659430541.873045,15590
1659430541.917447,15589
1659430541.958946,15589
1659430542.000445,15593
1659430542.039383,15589
1659430542.07832,15593
1659430542.117257,15595
1659430542.156195,15599
1659430542.195132,15606
1659430542.23407,15603
1659430542.275569,15605
1659430542.317068,15602
1659430542.356005,15597
1659430542.394943,15581
1659430542.43388,15592
1659430542.475892,15592
1659430542.517903,15597
1659430542.557182,15604
1659430542.596461,15603
1659430542.63574,15605
1659430542.674677,15608
1659430542.713615,15617
1659430542.752552,15621
1659430542.794051,15632
1659430542.835551,15623
1659430542.874488,15618
1659430542.913425,15625
1659430542.952363,15621
1659430542.996765,15617
1659430543.041167,15618
1659430543.08557,15625
1659430543.118871,15637
1659430543.152173,15637
1659430543.196576,15635
1659430543.240978,15624
1659430543.28538,15614
1659430543.325855,15598
1659430543.366329,15594
1659430543.405267,15593
1659430543.444204,15590
1659430543.483141,15598
1659430543.521737,15604
1659430543.560333,15600
1659430543.598929,15591
1659430543.641453,15586
1659430543.683977,15583
1659430543.722573,15587
1659430543.761168,15592
1659430543.799764,15588
1659430543.841263,15591
1659430543.882762,15599
1659430543.9217,15604
1659430543.960637,15608
1659430543.999575,15608
1659430544.038171,15613
1659430544.076766,15623
1659430544.115362,15605
1659430544.156862,15597
1659430544.19836,15608
1659430544.237298,15608
1659430544.276235,15613
1659430544.315173,15607
1659430544.355647,15620
1659430544.396122,15612
1659430544.435742,15600
1659430544.475363,15608
1659430544.514983,15611
1659430544.55474,15623
1659430544.594498,15632
1659430544.634255,15645
1659430544.674012,15650
1659430544.713769,15645
1659430544.758172,15641
1659430544.802574,15642
1659430544.846976,15642
1659430544.8895,15637
1659430544.932024,15627
1659430544.970961,15626
1659430545.009898,15621
1659430545.048836,15609
1659430545.089823,15585
1659430545.13081,15578
1659430545.170089,15579
1659430545.209368,15574
1659430545.248646,15576
1659430545.286901,15587
1659430545.325155,15578
1659430545.363409,15559
1659430545.405421,15558
1659430545.447432,15549
1659430545.486711,15558
1659430545.52599,15555
1659430545.565269,15561
1659430545.606256,15562
1659430545.647243,15572
1659430545.68618,15578
1659430545.725118,15581
1659430545.764055,15587
1659430545.803334,15583
1659430545.842613,15591
1659430545.881892,15586
1659430545.923391,15580
1659430545.96489,15577
1659430546.003486,15570
1659430546.042082,15567
1659430546.080678,15569
1659430546.122689,15577
1659430546.164701,15580
1659430546.202955,15580
1659430546.241209,15593
1659430546.279464,15589
1659430546.321475,15583
1659430546.363487,15586
1659430546.407889,15580
1659430546.452291,15589
1659430546.496694,15595
1659430546.52897,15593
1659430546.561248,15606
1659430546.604967,15613
1659430546.648686,15615
1659430546.692405,15624
1659430546.731684,15611
1659430546.770963,15606
1659430546.810242,15599
1659430546.852254,15599
1659430546.894265,15597
1659430546.932861,15593
1659430546.971457,15590
1659430547.010053,15593
1659430547.051552,15598
1659430547.093051,15599
1659430547.131988,15602
1659430547.170926,15605
1659430547.209863,15603
1659430547.248117,15589
1659430547.286372,15589
1659430547.324626,15584
1659430547.366638,15586
1659430547.408649,15582
1659430547.447245,15586
1659430547.485841,15592
1659430547.524437,15610
1659430547.563033,15601
1659430547.601628,15616
1659430547.640224,15609
1659430547.680699,15608
1659430547.721173,15609
1659430547.763697,15595
1659430547.806221,15596
1659430547.8455,15591
1659430547.884779,15603
1659430547.924058,15604
1659430547.965044,15615
1659430548.006031,15601
1659430548.04531,15605
1659430548.084589,15619
1659430548.123868,15614
1659430548.168612,15609
1659430548.213356,15603
1659430548.2581,15604
1659430548.291914,15607
1659430548.325728,15628
1659430548.370472,15615
1659430548.415216,15604
1659430548.45996,15621
1659430548.500946,15612
1659430548.541933,15615
1659430548.580529,15606
1659430548.619125,15607
1659430548.657721,15607
1659430548.697341,15613
1659430548.736962,15621
1659430548.776582,15617
1659430548.817569,15630
1659430548.858556,15634
1659430548.89681,15640
1659430548.935065,15637
1659430548.973319,15626
1659430549.012598,15618
1659430549.051877,15623
1659430549.091156,15630
1659430549.13368,15628
1659430549.176203,15642
1659430549.214458,15639
1659430549.252712,15641
1659430549.290966,15641
1659430549.332465,15636
1659430549.373965,15649
1659430549.413585,15628
1659430549.453206,15625
1659430549.492826,15619
1659430549.534325,15627
1659430549.575824,15621
1659430549.61442,15619
1659430549.653016,15622
1659430549.691612,15631
1659430549.736014,15630
1659430549.780417,15626
1659430549.824819,15621
1659430549.861707,15625
1659430549.898595,15617
1659430549.935483,15612
1659430549.972371,15626
1659430550.01387,15625
1659430550.05537,15630
1659430550.096869,15626
1659430550.138368,15634
1659430550.179867,15629
1659430550.221366,15623
1659430550.260303,15608
1659430550.299241,15613
1659430550.338178,15630
1659430550.38019,15618
1659430550.422201,15616
1659430550.460455,15604
1659430550.49871,15618
1659430550.536964,15621
1659430550.57556,15638
1659430550.614156,15633
1659430550.652752,15632
1659430550.695276,15624
1659430550.737799,15610
1659430550.776053,15600
1659430550.814308,15586
1659430550.852562,15583
1659430550.894061,15582
1659430550.93556,15604
1659430550.974498,15612
1659430551.013435,15617
1659430551.052373,15631
1659430551.094384,15640
1659430551.136395,15668
1659430551.175333,15666
1659430551.21427,15665
1659430551.253208,15671
1659430551.295219,15682
1659430551.337231,15698
1659430551.376168,15695
1659430551.415106,15717
1659430551.454043,15720
1659430551.498787,15719
1659430551.543531,15705
1659430551.588275,15705
1659430551.630798,15720
1659430551.673322,15723
1659430551.71226,15717
1659430551.751197,15725
1659430551.790134,15733
1659430551.830609,15737
1659430551.871083,15752
1659430551.910021,15740
1659430551.948958,15740
1659430551.987895,15752
1659430552.027175,15752
1659430552.066454,15748
1659430552.105733,15746
1659430552.146719,15751
1659430552.187706,15747
1659430552.226302,15739
1659430552.264898,15747
1659430552.303494,15745
1659430552.345505,15753
1659430552.387516,15756
1659430552.426454,15760
1659430552.465391,15771
1659430552.504329,15765
1659430552.543266,15764
1659430552.582204,15775
1659430552.621141,15781
1659430552.66264,15782
1659430552.704139,15788
1659430552.743077,15776
1659430552.782014,15783
1659430552.820952,15789
1659430552.862963,15788
1659430552.904974,15782
1659430552.949035,15773
1659430552.993096,15773
1659430553.037157,15764
1659430553.069946,15768
1659430553.102736,15764
1659430553.146455,15761
1659430553.190174,15769
1659430553.233893,15769
1659430553.272489,15788
1659430553.311085,15792
1659430553.349681,15784
1659430553.391692,15783
1659430553.433704,15769
1659430553.4723,15773
1659430553.510895,15784
1659430553.549491,15787
1659430553.591503,15790
1659430553.633514,15787
1659430553.672793,15787
1659430553.712072,15793
1659430553.751351,15799
1659430553.789606,15787
1659430553.82786,15786
1659430553.866114,15789
1659430553.908638,15794
1659430553.951162,15794
1659430553.990099,15787
1659430554.029037,15792
1659430554.067974,15787
1659430554.108449,15808
1659430554.148923,15806
1659430554.18786,15805
1659430554.226798,15805
1659430554.265735,15803
1659430554.304331,15804
1659430554.342927,15806
1659430554.381523,15811
1659430554.423022,15811
1659430554.464521,15813
1659430554.506532,15828
1659430554.548544,15824
1659430554.587823,15829
1659430554.627102,15822
1659430554.666381,15813
1659430554.710783,15811
1659430554.755186,15814
1659430554.799588,15817
1659430554.833402,15810
1659430554.867216,15810
1659430554.912302,15806
1659430554.957387,15811
1659430555.002472,15807
1659430555.034237,15799
1659430555.066002,15796
1659430555.109653,15787
1659430555.153304,15802
1659430555.196954,15814
1659430555.240605,15820
1659430555.284256,15815
1659430555.322511,15833
1659430555.360765,15825
1659430555.399019,15825
1659430555.439494,15816
1659430555.479968,15819
1659430555.519247,15822
1659430555.558526,15811
1659430555.597805,15815
1659430555.63606,15811
1659430555.674314,15816
1659430555.712568,15823
1659430555.75458,15825
1659430555.796591,15824
1659430555.835528,15820
1659430555.874466,15829
1659430555.913403,15819
1659430555.954902,15820
1659430555.996401,15820
1659430556.034997,15810
1659430556.073593,15822
1659430556.112189,15829
1659430556.15181,15829
1659430556.19143,15830
1659430556.231051,15841
1659430556.271525,15833
1659430556.312,15825
1659430556.350254,15826
1659430556.388508,15814
1659430556.426763,15820
1659430556.467749,15824
1659430556.508736,15831
1659430556.548015,15819
1659430556.587294,15833
1659430556.626573,15837
1659430556.66756,15822
1659430556.708546,15827
1659430556.75329,15822
1659430556.798034,15828
1659430556.842778,15835
1659430556.875568,15834
1659430556.908357,15834
1659430556.952759,15834
1659430556.997162,15833
1659430557.041564,15833
1659430557.081185,15829
1659430557.120805,15828
1659430557.160426,15826
1659430557.202437,15834
1659430557.244448,15840
1659430557.282703,15852
1659430557.320957,15852
1659430557.359211,15844
1659430557.400711,15854
1659430557.44221,15850
1659430557.481489,15837
1659430557.520768,15837
1659430557.560047,15835
1659430557.598642,15843
1659430557.637238,15857
1659430557.675834,15849
1659430557.716821,15857
1659430557.757808,15864
1659430557.797087,15859
1659430557.836366,15849
1659430557.875645,15844
1659430557.917656,15835
1659430557.959668,15833
1659430557.998605,15846
1659430558.037542,15850
1659430558.07648,15841
1659430558.117979,15845
1659430558.159478,15844
1659430558.199099,15845
1659430558.238719,15842
1659430558.27834,15841
1659430558.319839,15829
1659430558.361338,15838
1659430558.400275,15842
1659430558.439213,15839
1659430558.47815,15862
1659430558.522211,15862
1659430558.566272,15864
1659430558.610332,15851
1659430558.64261,15850
1659430558.674887,15851
1659430558.719289,15854
1659430558.763691,15860
1659430558.808094,15857
1659430558.84242,15870
1659430558.876746,15873
1659430558.920466,15871
1659430558.964185,15865
1659430559.007904,15860
1659430559.046842,15860
1659430559.085779,15860
1659430559.124717,15852
1659430559.166728,15866
1659430559.208739,15868
1659430559.246994,15855
1659430559.285248,15848
1659430559.323502,15853
1659430559.36244,15854
1659430559.401377,15859
1659430559.440315,15853
1659430559.482838,15851
1659430559.525362,15852
1659430559.563275,15849
1659430559.601187,15849
1659430559.6391,15838
1659430559.680599,15835
1659430559.722099,15833
1659430559.760695,15842
1659430559.79929,15852
1659430559.837886,15851
1659430559.879898,15855
1659430559.921909,15857
1659430559.960505,15847
1659430559.999101,15855
1659430560.037697,15844
1659430560.082782,15829
1659430560.127867,15829
1659430560.172953,15842
1659430560.20523,15866
1659430560.237507,15878
1659430560.282251,15851
1659430560.326995,15860
1659430560.371739,15872
1659430560.411906,15868
1659430560.452073,15859
1659430560.49224,15847
1659430560.532407,15855
1659430560.572574,15859
1659430560.61117,15869
1659430560.649766,15884
1659430560.688362,15880
1659430560.729861,15882
1659430560.77136,15889
1659430560.810297,15899
1659430560.849235,15883
1659430560.888172,15877
1659430560.926768,15872
1659430560.965364,15869
1659430561.00396,15864
1659430561.045459,15860
1659430561.086958,15860
1659430561.125895,15860
1659430561.164833,15872
1659430561.20377,15860
1659430561.245782,15848
1659430561.287793,15845
1659430561.327072,15835
1659430561.366351,15834
1659430561.40563,15824
1659430561.447129,15824
1659430561.488628,15833
1659430561.527566,15852
1659430561.566503,15851
1659430561.60544,15846
1659430561.647452,15850
1659430561.689463,15847
1659430561.728742,15836
1659430561.768021,15829
1659430561.8073,15841
1659430561.847775,15840
1659430561.888249,15848
1659430561.932652,15855
1659430561.977054,15855
1659430562.021456,15858
1659430562.060052,15853
1659430562.098648,15853
1659430562.137244,15840
1659430562.179255,15845
1659430562.221267,15845
1659430562.259521,15846
1659430562.297775,15845
1659430562.33603,15850
1659430562.374967,15854
1659430562.413904,15857
1659430562.452842,15861
1659430562.494341,15862
1659430562.53584,15857
1659430562.574778,15865
1659430562.613715,15861
1659430562.652653,15851
1659430562.694151,15848
1659430562.735651,15864
1659430562.77493,15864
1659430562.814209,15870
1659430562.853487,15858
1659430562.8914,15856
1659430562.929313,15869
1659430562.967226,15874
1659430563.009237,15869
1659430563.051249,15873
1659430563.089503,15871
1659430563.127757,15868
1659430563.166012,15884
1659430563.207511,15866
1659430563.24901,15872
1659430563.293412,15882
1659430563.337815,15880
1659430563.382217,15876
1659430563.416031,15878
1659430563.449845,15890
1659430563.493906,15875
1659430563.537966,15878
1659430563.582027,15876
1659430563.616354,15873
1659430563.65068,15876
1659430563.695424,15883
1659430563.740168,15892
1659430563.784912,15884
1659430563.823508,15878
1659430563.862103,15877
1659430563.900699,15882
1659430563.941686,15879
1659430563.982673,15875
1659430564.021952,15887
1659430564.061231,15884
1659430564.10051,15905
1659430564.142009,15893
1659430564.183508,15889
1659430564.222445,15892
1659430564.261383,15890
1659430564.30032,15885
1659430564.338916,15887
1659430564.377512,15893
1659430564.416108,15899
1659430564.457095,15911
1659430564.498082,15902
1659430564.537702,15901
1659430564.577323,15913
1659430564.616943,15913
1659430564.658955,15913
1659430564.700966,15915
1659430564.73922,15918
1659430564.777475,15914
1659430564.815729,15911
1659430564.85774,15907
1659430564.899752,15896
1659430564.939373,15891
1659430564.978993,15888
1659430565.018614,15886
1659430565.059088,15877
1659430565.099562,15868
1659430565.137817,15868
1659430565.176071,15878
1659430565.214325,15892
1659430565.259069,15884
1659430565.303813,15902
1659430565.348557,15898
1659430565.381346,15901
1659430565.414136,15885
1659430565.458538,15884
1659430565.50294,15892
1659430565.547343,15899
1659430565.585597,15897
1659430565.623852,15911
1659430565.662106,15906
1659430565.703349,15898
1659430565.744592,15909
1659430565.785835,15893
1659430565.827077,15886
1659430565.866698,15887
1659430565.906319,15892
1659430565.945939,15901
1659430565.987438,15898
1659430566.028937,15899
1659430566.067533,15896
1659430566.106129,15913
1659430566.144725,15898
1659430566.183662,15902
1659430566.2226,15905
1659430566.261537,15909
1659430566.303549,15917
1659430566.34556,15910
1659430566.383814,15903
1659430566.422069,15897
1659430566.460323,15908
1659430566.501822,15907
1659430566.543321,15901
1659430566.581917,15909
1659430566.620513,15916
1659430566.659109,15925
1659430566.698046,15912
1659430566.736984,15920
1659430566.775921,15919
1659430566.817933,15919
1659430566.859944,15923
1659430566.899565,15920
1659430566.939185,15920
1659430566.978806,15918
1659430567.019792,15927
1659430567.060779,15924
1659430567.102791,15921
1659430567.144802,15926
1659430567.184081,15923
1659430567.22336,15929
1659430567.262639,15930
1659430567.307041,15918
1659430567.351444,15913
1659430567.395846,15923
1659430567.428635,15921
1659430567.461425,15924
1659430567.505827,15929
1659430567.55023,15928
1659430567.594632,15928
1659430567.633228,15929
1659430567.671824,15933
1659430567.710419,15927
1659430567.752431,15934
1659430567.794442,15931
1659430567.833721,15937
1659430567.873,15934
1659430567.912279,15927
1659430567.953778,15920
1659430567.995277,15925
1659430568.033873,15924
1659430568.072469,15924
1659430568.111065,15926
1659430568.153077,15937
1659430568.195088,15940
1659430568.234367,15945
1659430568.273646,15951
1659430568.312925,15956
1659430568.350838,15948
1659430568.388751,15948
1659430568.426663,15957
1659430568.46765,15956
1659430568.508637,15954
1659430568.547574,15953
1659430568.586512,15968
1659430568.625449,15963
1659430568.666948,15961
1659430568.708447,15946
1659430568.747043,15946
1659430568.785639,15948
1659430568.824235,15948
1659430568.865734,15949
1659430568.907233,15953
1659430568.945487,15950
1659430568.983742,15947
1659430569.021996,15950
1659430569.06674,15933
1659430569.111484,15933
1659430569.156228,15937
1659430569.198751,15944
1659430569.241275,15944
1659430569.279871,15943
1659430569.318467,15945
1659430569.357063,15941
1659430569.39805,15939
1659430569.439036,15942
1659430569.478315,15943
1659430569.517594,15958
1659430569.556873,15960
1659430569.595469,15953
1659430569.634065,15946
1659430569.672661,15942
1659430569.713135,15940
1659430569.75361,15944
1659430569.792889,15941
1659430569.832168,15944
1659430569.871447,15958
1659430569.909701,15954
1659430569.947955,15956
1659430569.98621,15949
1659430570.028733,15952
1659430570.071257,15952
1659430570.110536,15951
1659430570.149815,15955
1659430570.189094,15958
1659430570.230593,15959
1659430570.272092,15956
1659430570.31103,15972
1659430570.349967,15965
1659430570.388905,15958
1659430570.431428,15957
1659430570.473952,15955
1659430570.51289,15971
1659430570.551827,15962
1659430570.590765,15968
1659430570.635167,15960
1659430570.679569,15962
1659430570.723972,15965
1659430570.765471,15964
1659430570.80697,15965
1659430570.845224,15978
1659430570.883478,15978
1659430570.921733,15974
1659430570.961695,15965
1659430571.001657,15972
1659430571.041619,15967
1659430571.081581,15964
1659430571.121543,15958
1659430571.163042,15964
1659430571.204541,15964
1659430571.243137,15969
1659430571.281733,15959
1659430571.320329,15967
1659430571.359266,15968
1659430571.398204,15961
1659430571.437141,15973
1659430571.479153,15967
1659430571.521164,15978
1659430571.55976,15981
1659430571.598356,15987
1659430571.636952,15977
1659430571.675548,15979
1659430571.714144,15983
1659430571.752739,15983
1659430571.793726,15978
1659430571.834713,15994
1659430571.873309,15998
1659430571.911905,15986
1659430571.9505,15996
1659430571.992512,15982
1659430572.034523,15992
1659430572.078584,15998
1659430572.122645,15994
1659430572.166706,15990
1659430572.199495,15998
1659430572.232285,16006
1659430572.276345,15999
1659430572.320406,15995
1659430572.364467,15992
1659430572.398281,15986
1659430572.432095,15993
1659430572.476497,15983
1659430572.5209,15994
1659430572.565302,16002
1659430572.603898,16010
1659430572.642494,16004
1659430572.68109,15993
1659430572.723101,15980
1659430572.765112,15990
1659430572.80405,15993
1659430572.842987,16005
1659430572.881925,16004
1659430572.923424,15986
1659430572.964923,16003
1659430573.00386,16013
1659430573.042798,16008
1659430573.081735,16009
1659430573.120673,16015
1659430573.15961,16008
1659430573.198548,16003
1659430573.239534,16010
1659430573.280521,16004
1659430573.320142,16003
1659430573.359762,16002
1659430573.399383,16002
1659430573.441394,15985
1659430573.483406,15983
1659430573.52166,15975
1659430573.559914,15975
1659430573.598169,15973
1659430573.64018,15975
1659430573.682191,15977
1659430573.721812,15972
1659430573.761432,15990
1659430573.801053,15985
1659430573.84204,15981
1659430573.883027,15989
1659430573.921623,15986
1659430573.960218,15995
1659430573.998814,15985
1659430574.043558,15985
1659430574.088302,15999
1659430574.133046,15997
1659430574.165835,15999
1659430574.198625,16000
1659430574.242686,16008
1659430574.286746,16009
1659430574.330807,16007
1659430574.372818,16005
1659430574.41483,16011
1659430574.453426,16007
1659430574.492022,16004
1659430574.530617,16021
1659430574.569555,16014
1659430574.608492,16017
1659430574.64743,16016
1659430574.689954,16014
1659430574.732477,16019
1659430574.770732,16005
1659430574.808986,16012
1659430574.84724,16008
1659430574.888739,16029
1659430574.930238,16020
1659430574.968834,16021
1659430575.00743,16031
1659430575.046026,16029
1659430575.08428,16020
1659430575.122535,16018
1659430575.160789,16013
1659430575.202801,16020
1659430575.244812,16024
1659430575.283408,16030
1659430575.322004,16023
1659430575.3606,16027
1659430575.401074,16023
1659430575.441548,16027
1659430575.479803,16022
1659430575.518057,16027
1659430575.556311,16028
1659430575.598835,16034
1659430575.641359,16036
1659430575.680296,16035
1659430575.719234,16044
1659430575.758171,16042
1659430575.802915,16051
1659430575.847659,16046
1659430575.892403,16054
1659430575.934414,16063
1659430575.976426,16052
1659430576.015363,16048
1659430576.054301,16052
1659430576.093238,16049
1659430576.134737,16036
1659430576.176236,16050
1659430576.216198,16054
1659430576.25616,16045
1659430576.296123,16048
1659430576.336085,16050
1659430576.376047,16046
1659430576.414301,16046
1659430576.452555,16039
1659430576.49081,16043
1659430576.533333,16041
1659430576.575857,16045
1659430576.614453,16050
1659430576.653049,16047
1659430576.691645,16041
1659430576.730582,16047
1659430576.76952,16057
1659430576.808457,16055
1659430576.849956,16057
1659430576.891455,16063
1659430576.930734,16057
1659430576.970013,16064
1659430577.009292,16063
1659430577.051304,16061
1659430577.093315,16062
1659430577.132252,16066
1659430577.17119,16068
1659430577.210127,16064
1659430577.251114,16064
1659430577.292101,16072
1659430577.331038,16069
1659430577.369976,16073
1659430577.408913,16058
1659430577.450412,16069
1659430577.491911,16065
1659430577.530849,16065
1659430577.569786,16073
1659430577.608724,16056
1659430577.652443,16063
1659430577.696162,16059
1659430577.739881,16062
1659430577.772671,16050
1659430577.80546,16065
1659430577.849863,16068
1659430577.894265,16066
1659430577.938667,16067
1659430577.981191,16066
1659430578.023715,16072
1659430578.06231,16071
1659430578.100906,16062
1659430578.139502,16058
1659430578.17844,16061
1659430578.217377,16065
1659430578.256315,16064
1659430578.297814,16069
1659430578.339313,16069
1659430578.377909,16079
1659430578.416505,16069
1659430578.455101,16056
1659430578.495575,16065
1659430578.536049,16071
1659430578.575328,16067
1659430578.614607,16061
1659430578.653886,16062
1659430578.691799,16058
1659430578.729712,16060
1659430578.767625,16055
1659430578.810148,16047
1659430578.852672,16065
1659430578.891268,16066
1659430578.929864,16062
1659430578.96846,16057
1659430579.009959,16057
1659430579.051458,16059
1659430579.090395,16057
1659430579.129333,16050
1659430579.16827,16040
1659430579.210794,16050
1659430579.253318,16052
1659430579.291914,16064
1659430579.330509,16062
1659430579.369105,16059
1659430579.411117,16061
1659430579.453128,16061
1659430579.497872,16056
1659430579.542616,16060
1659430579.58736,16061
1659430579.625614,16060
1659430579.663868,16062
1659430579.702123,16060
1659430579.743622,16071
1659430579.785121,16076
1659430579.8244,16078
1659430579.863679,16073
1659430579.902958,16086
1659430579.941212,16086
1659430579.979467,16094
1659430580.017721,16093
1659430580.059732,16094
1659430580.101744,16089
1659430580.140681,16087
1659430580.179619,16089
1659430580.218556,16082
1659430580.260567,16090
1659430580.302579,16094
1659430580.341175,16093
1659430580.379771,16084
1659430580.418367,16078
1659430580.457646,16081
1659430580.496925,16074
1659430580.536204,16064
1659430580.576678,16057
1659430580.617152,16061
1659430580.655748,16061
1659430580.694344,16062
1659430580.73294,16061
1659430580.774951,16060
1659430580.816963,16067
1659430580.861365,16056
1659430580.905767,16057
1659430580.95017,16050
1659430580.988424,16067
1659430581.026679,16065
1659430581.064933,16072
1659430581.106944,16067
1659430581.148956,16058
1659430581.187551,16066
1659430581.226147,16065
1659430581.264743,16060
1659430581.303681,16074
1659430581.342618,16084
1659430581.381556,16077
1659430581.423055,16078
1659430581.464554,16066
1659430581.504311,16063
1659430581.544068,16067
1659430581.583825,16060
1659430581.623582,16071
1659430581.66334,16069
1659430581.702619,16072
1659430581.741898,16067
1659430581.781177,16063
1659430581.822163,16064
1659430581.86315,16067
1659430581.902087,16066
1659430581.941025,16065
1659430581.979962,16075
1659430582.018217,16074
1659430582.056471,16075
1659430582.094725,16068
1659430582.137761,16071
1659430582.180798,16056
1659430582.219052,16057
1659430582.257306,16070
1659430582.295561,16064
1659430582.337059,16074
1659430582.378559,16069
1659430582.423303,16072
1659430582.468046,16080
1659430582.51279,16074
1659430582.547117,16064
1659430582.581443,16072
1659430582.625504,16065
1659430582.669565,16061
1659430582.713625,16080
1659430582.74744,16086
1659430582.781254,16087
1659430582.825656,16095
1659430582.870058,16093
1659430582.914461,16094
1659430582.952715,16086
1659430582.990969,16084
1659430583.029224,16078
1659430583.071235,16099
1659430583.113246,16102
1659430583.152525,16096
1659430583.191804,16098
1659430583.231083,16090
1659430583.271558,16094
1659430583.312032,16088
1659430583.351311,16077
1659430583.39059,16083
1659430583.429869,16096
1659430583.468807,16102
1659430583.507744,16104
1659430583.546682,16104
1659430583.588181,16096
1659430583.62968,16097
1659430583.668959,16089
1659430583.708238,16084
1659430583.747517,16093
1659430583.789528,16092
1659430583.83154,16096
1659430583.869452,16100
1659430583.907365,16104
1659430583.945278,16091
1659430583.987802,16090
1659430584.030325,16079
1659430584.068921,16078
1659430584.107517,16091
1659430584.146113,16100
1659430584.186588,16104
1659430584.227062,16099
1659430584.265316,16098
1659430584.303571,16105
1659430584.341825,16110
1659430584.38691,16097
1659430584.431996,16095
1659430584.477081,16096
1659430584.51858,16115
1659430584.560079,16114
1659430584.599017,16102
1659430584.637954,16092
1659430584.676892,16089
1659430584.718903,16083
1659430584.760915,16076
1659430584.79951,16076
1659430584.838106,16085
1659430584.876702,16092
1659430584.915298,16100
1659430584.953894,16099
1659430584.99249,16104
1659430585.035013,16097
1659430585.077537,16088
1659430585.115792,16074
1659430585.154046,16080
1659430585.1923,16082
1659430585.230896,16092
1659430585.269492,16101
1659430585.308088,16096
1659430585.349075,16093
1659430585.390061,16079
1659430585.429682,16071
1659430585.469302,16060
1659430585.508923,16055
1659430585.549397,16058
1659430585.589872,16071
1659430585.629151,16069
1659430585.66843,16072
1659430585.707709,16075
1659430585.749208,16078
1659430585.790707,16080
1659430585.829986,16056
1659430585.869265,16069
1659430585.908544,16065
1659430585.950043,16074
1659430585.991542,16083
1659430586.036628,16081
1659430586.081713,16096
1659430586.126799,16092
1659430586.165053,16078
1659430586.203307,16067
1659430586.241561,16080
1659430586.283061,16084
1659430586.32456,16093
1659430586.363839,16076
1659430586.403118,16071
1659430586.442397,16074
1659430586.483383,16075
1659430586.52437,16068
1659430586.562966,16065
1659430586.601562,16074
1659430586.640158,16084
1659430586.679437,16088
1659430586.718716,16099
1659430586.757995,16081
1659430586.799494,16085
1659430586.840993,16070
1659430586.882492,16072
1659430586.923991,16070
1659430586.966003,16066
1659430587.008014,16075
1659430587.04661,16077
1659430587.085206,16084
1659430587.123802,16080
1659430587.162739,16087
1659430587.201677,16078
1659430587.240614,16077
1659430587.281601,16067
1659430587.322587,16071
1659430587.361525,16089
1659430587.400462,16092
1659430587.4394,16101
1659430587.477313,16102
1659430587.515225,16108
1659430587.553138,16093
1659430587.59515,16096
1659430587.637161,16080
1659430587.676098,16079
1659430587.715036,16087
1659430587.753973,16080
1659430587.79496,16082
1659430587.835947,16078
1659430587.874884,16087
1659430587.913822,16087
1659430587.952759,16086
1659430587.995283,16077
1659430588.037807,16078
1659430588.081867,16092
1659430588.125928,16093
1659430588.169989,16086
1659430588.202778,16082
1659430588.235568,16086
1659430588.280312,16082
1659430588.325056,16085
1659430588.369799,16079
1659430588.408054,16072
1659430588.446308,16087
1659430588.484562,16076
1659430588.526574,16078
1659430588.568585,16076
1659430588.607864,16067
1659430588.647143,16071
1659430588.686422,16065
1659430588.726897,16063
1659430588.767371,16065
1659430588.805625,16090
1659430588.84388,16087
1659430588.882134,16084
1659430588.921755,16074
1659430588.961375,16077
1659430589.000996,16080
1659430589.043007,16076
1659430589.085018,16087
1659430589.123956,16075
1659430589.162893,16081
1659430589.201831,16085
1659430589.243842,16092
1659430589.285854,16083
1659430589.32445,16067
1659430589.363045,16072
1659430589.401641,16071
1659430589.440237,16072
1659430589.478833,16074
1659430589.517429,16082
1659430589.559953,16103
1659430589.602476,16100
1659430589.643463,16099
1659430589.68445,16105
1659430589.722704,16100
1659430589.760959,16080
1659430589.799213,16078
1659430589.843957,16084
1659430589.888701,16084
1659430589.933444,16085
1659430589.966746,16082
1659430590.000048,16091
1659430590.044109,16080
1659430590.08817,16093
1659430590.13223,16105
1659430590.165532,16118
1659430590.198834,16104
1659430590.243578,16090
1659430590.288322,16103
1659430590.333066,16133
1659430590.371661,16164
1659430590.410257,16079
