LocalTimestamp,PG
1659521765.2797,10994
1659521765.318273,11109
1659521765.356845,11219
1659521765.395418,11309
1659521765.436892,11360
1659521765.478366,11418
1659521765.51728,11454
1659521765.556194,11542
1659521765.595108,11643
1659521765.637094,11710
1659521765.67908,11739
1659521765.717994,11758
1659521765.756908,11803
1659521765.795822,11879
1659521765.836784,11965
1659521765.877746,12000
1659521765.91666,11981
1659521765.955574,11970
1659521765.994488,11971
1659521766.035962,12006
1659521766.077436,12089
1659521766.122153,12129
1659521766.16687,12057
1659521766.211587,11851
1659521766.249818,11644
1659521766.288049,11430
1659521766.326281,11289
1659521766.368267,11246
1659521766.410253,11266
1659521766.449508,11254
1659521766.488763,11231
1659521766.528019,11210
1659521766.570005,11194
1659521766.611991,11199
1659521766.650905,11241
1659521766.689819,11308
1659521766.728733,11340
1659521766.770719,11371
1659521766.812705,11378
1659521766.85196,11363
1659521766.891216,11370
1659521766.930471,11391
1659521766.969385,11414
1659521767.008299,11365
1659521767.047213,11250
1659521767.088175,11150
1659521767.129137,11096
1659521767.168392,11075
1659521767.207647,11099
1659521767.246903,11147
1659521767.284793,11170
1659521767.322682,11163
1659521767.360572,11177
1659521767.40307,11197
1659521767.445569,11213
1659521767.484483,11243
1659521767.523396,11270
1659521767.56231,11295
1659521767.603272,11354
1659521767.644235,11391
1659521767.685709,11449
1659521767.727183,11512
1659521767.767121,11576
1659521767.807059,11589
1659521767.846997,11517
1659521767.891031,11433
1659521767.935065,11385
1659521767.979099,11378
1659521768.012381,11381
1659521768.045663,11405
1659521768.090038,11428
1659521768.134414,11446
1659521768.178789,11437
1659521768.217021,11447
1659521768.255252,11461
1659521768.293483,11485
1659521768.334957,11519
1659521768.376431,11553
1659521768.415686,11568
1659521768.454942,11606
1659521768.494197,11634
1659521768.534647,11677
1659521768.575097,11712
1659521768.61367,11680
1659521768.652242,11565
1659521768.690815,11422
1659521768.73007,11312
1659521768.769325,11220
1659521768.808581,11154
1659521768.850567,11132
1659521768.892553,11132
1659521768.931126,11092
1659521768.969698,11059
1659521769.008271,11050
1659521769.050257,11044
1659521769.092243,11064
1659521769.130474,11079
1659521769.168705,11113
1659521769.206937,11158
1659521769.248923,11199
1659521769.290909,11231
1659521769.329823,11275
1659521769.368737,11321
1659521769.407651,11354
1659521769.448613,11317
1659521769.489575,11181
1659521769.527806,11018
1659521769.566037,10906
1659521769.604269,10830
1659521769.649327,10754
1659521769.694385,10736
1659521769.739443,10742
1659521769.78143,10729
1659521769.823416,10721
1659521769.862329,10729
1659521769.901243,10767
1659521769.940157,10791
1659521769.979413,10837
1659521770.018668,10878
1659521770.057923,10916
1659521770.099909,10972
1659521770.141896,11009
1659521770.180468,11069
1659521770.219041,11113
1659521770.257613,11183
1659521770.29721,11262
1659521770.336807,11334
1659521770.376403,11292
1659521770.417365,11165
1659521770.458327,11049
1659521770.4969,10963
1659521770.535473,10900
1659521770.574045,10851
1659521770.615007,10856
1659521770.655969,10884
1659521770.695225,10892
1659521770.73448,10899
1659521770.773735,10912
1659521770.814697,10952
1659521770.855659,11009
1659521770.894573,11072
1659521770.933487,11115
1659521770.972401,11171
1659521771.016777,11230
1659521771.061152,11275
1659521771.105528,11334
1659521771.139321,11384
1659521771.173115,11447
1659521771.217149,11491
1659521771.261184,11558
1659521771.305218,11621
1659521771.347204,11673
1659521771.38919,11660
1659521771.427421,11539
1659521771.465652,11420
1659521771.503884,11325
1659521771.542456,11234
1659521771.581029,11169
1659521771.619601,11156
1659521771.661076,11151
1659521771.702549,11136
1659521771.741463,11138
1659521771.780377,11157
1659521771.819291,11195
1659521771.857181,11224
1659521771.895071,11258
1659521771.932961,11323
1659521771.974947,11375
1659521772.016933,11419
1659521772.055847,11465
1659521772.094761,11537
1659521772.133675,11589
1659521772.175149,11648
1659521772.216623,11699
1659521772.25622,11752
1659521772.295817,11826
1659521772.335413,11872
1659521772.377399,11945
1659521772.419385,11987
1659521772.457275,11929
1659521772.495165,11806
1659521772.533055,11723
1659521772.576065,11646
1659521772.619075,11592
1659521772.663451,11564
1659521772.707827,11568
1659521772.752202,11582
1659521772.790433,11588
1659521772.828665,11610
1659521772.866896,11637
1659521772.907858,11672
1659521772.94882,11701
1659521772.988417,11727
1659521773.028013,11747
1659521773.06761,11763
1659521773.109084,11792
1659521773.150558,11808
1659521773.189472,11820
1659521773.228386,11853
1659521773.2673,11882
1659521773.306555,11909
1659521773.34581,11946
1659521773.385066,11982
1659521773.426028,12030
1659521773.46699,12080
1659521773.506245,12082
1659521773.545501,11985
1659521773.584756,11801
1659521773.624011,11649
1659521773.663266,11547
1659521773.702522,11465
1659521773.742972,11415
1659521773.783422,11398
1659521773.822336,11399
1659521773.861249,11360
1659521773.900163,11330
1659521773.941638,11338
1659521773.983112,11360
1659521774.022026,11374
1659521774.06094,11403
1659521774.099854,11443
1659521774.140815,11476
1659521774.181777,11512
1659521774.226836,11551
1659521774.271894,11578
1659521774.316952,11609
1659521774.355184,11637
1659521774.393415,11651
1659521774.431646,11675
1659521774.47312,11698
1659521774.514594,11698
1659521774.553849,11605
1659521774.593105,11389
1659521774.63236,11192
1659521774.673834,11086
1659521774.715308,11002
1659521774.75354,10940
1659521774.791771,10893
1659521774.830002,10865
1659521774.868916,10835
1659521774.90783,10799
1659521774.946744,10795
1659521774.988218,10820
1659521775.029692,10858
1659521775.068264,10887
1659521775.106837,10924
1659521775.14541,10954
1659521775.186884,10992
1659521775.228358,11037
1659521775.269832,11070
1659521775.311306,11103
1659521775.35278,11152
1659521775.394254,11202
1659521775.43351,11242
1659521775.472765,11303
1659521775.51202,11339
1659521775.554006,11387
1659521775.595992,11407
1659521775.634906,11244
1659521775.67382,11004
1659521775.712734,10797
1659521775.751989,10663
1659521775.791245,10581
1659521775.8305,10549
1659521775.871974,10555
1659521775.913448,10558
1659521775.952021,10553
1659521775.990593,10550
1659521776.029166,10574
1659521776.067739,10607
1659521776.106311,10654
1659521776.144884,10704
1659521776.187382,10768
1659521776.22988,10817
1659521776.268453,10883
1659521776.307025,10938
1659521776.345598,10992
1659521776.387072,11053
1659521776.428546,11106
1659521776.473263,11164
1659521776.51798,11241
1659521776.562697,11298
1659521776.597003,11359
1659521776.631308,11352
1659521776.675342,11210
1659521776.719377,11021
1659521776.763411,10906
1659521776.796692,10838
1659521776.829974,10793
1659521776.874691,10787
1659521776.919408,10790
1659521776.964125,10799
1659521777.002356,10789
1659521777.040587,10799
1659521777.078819,10819
1659521777.120805,10867
1659521777.162791,10918
1659521777.201705,10961
1659521777.240619,11028
1659521777.279532,11082
1659521777.319983,11131
1659521777.360433,11173
1659521777.398664,11225
1659521777.436895,11300
1659521777.475126,11391
1659521777.514382,11490
1659521777.553637,11580
1659521777.592892,11656
1659521777.634366,11704
1659521777.67584,11632
1659521777.714754,11457
1659521777.753668,11311
1659521777.792582,11246
1659521777.834568,11194
1659521777.876554,11170
1659521777.914786,11163
1659521777.953017,11192
1659521777.991248,11198
1659521778.033234,11194
1659521778.07522,11195
1659521778.114476,11220
1659521778.153731,11283
1659521778.192986,11331
1659521778.233948,11374
1659521778.27491,11417
1659521778.313483,11477
1659521778.352056,11551
1659521778.390628,11627
1659521778.435345,11684
1659521778.480062,11756
1659521778.524779,11807
1659521778.566253,11836
1659521778.607727,11856
1659521778.6463,11868
1659521778.684872,11836
1659521778.723445,11722
1659521778.765943,11631
1659521778.808441,11621
1659521778.847355,11625
1659521778.886269,11625
1659521778.925183,11622
1659521778.964097,11633
1659521779.003011,11639
1659521779.041925,11626
1659521779.084423,11637
1659521779.126921,11666
1659521779.165493,11680
1659521779.204066,11713
1659521779.242639,11735
1659521779.283601,11746
1659521779.324563,11765
1659521779.363477,11785
1659521779.402391,11814
1659521779.441305,11842
1659521779.48056,11865
1659521779.519815,11922
1659521779.559071,11950
1659521779.600033,11951
1659521779.640995,11824
1659521779.68025,11629
1659521779.719505,11509
1659521779.75876,11440
1659521779.800747,11409
1659521779.842733,11403
1659521779.881647,11395
1659521779.920561,11386
1659521779.959475,11346
1659521780.000949,11327
1659521780.042423,11324
1659521780.08714,11335
1659521780.131856,11351
1659521780.176574,11374
1659521780.209343,11400
1659521780.242113,11449
1659521780.286147,11510
1659521780.330181,11555
1659521780.374215,11623
1659521780.411593,11685
1659521780.448971,11758
1659521780.486349,11822
1659521780.523727,11879
1659521780.561958,11828
1659521780.600189,11638
1659521780.638421,11501
1659521780.680407,11406
1659521780.722393,11360
1659521780.766427,11313
1659521780.810461,11326
1659521780.854495,11350
1659521780.887777,11363
1659521780.921059,11345
1659521780.965775,11338
1659521781.010493,11364
1659521781.055209,11396
1659521781.089003,11430
1659521781.122797,11471
1659521781.166831,11521
1659521781.210865,11579
1659521781.2549,11614
1659521781.293813,11663
1659521781.332727,11731
1659521781.371641,11786
1659521781.412603,11843
1659521781.453565,11847
1659521781.492479,11725
1659521781.531393,11562
1659521781.570307,11481
1659521781.609221,11437
1659521781.648135,11423
1659521781.687049,11448
1659521781.729035,11481
1659521781.771021,11484
1659521781.809253,11470
1659521781.847484,11479
1659521781.885715,11516
1659521781.927189,11573
1659521781.968663,11633
1659521782.008601,11684
1659521782.048539,11727
1659521782.088477,11765
1659521782.12705,11797
1659521782.165622,11849
1659521782.204195,11902
1659521782.245669,11965
1659521782.287143,11958
1659521782.329641,11830
1659521782.372139,11641
1659521782.411395,11502
1659521782.45065,11420
1659521782.489905,11373
1659521782.530355,11364
1659521782.570805,11381
1659521782.61006,11372
1659521782.649316,11358
1659521782.688571,11351
1659521782.732605,11363
1659521782.776639,11410
1659521782.820674,11468
1659521782.853443,11531
1659521782.886213,11584
1659521782.93093,11625
1659521782.975647,11674
1659521783.020364,11732
1659521783.061838,11785
1659521783.103312,11819
1659521783.141543,11715
1659521783.179774,11511
1659521783.218006,11330
1659521783.257261,11201
1659521783.296516,11125
1659521783.335772,11063
1659521783.377758,11042
1659521783.419744,11034
1659521783.457975,11020
1659521783.496206,11006
1659521783.534437,10999
1659521783.573693,11039
1659521783.612948,11103
1659521783.652203,11189
1659521783.693165,11255
1659521783.734128,11340
1659521783.772359,11390
1659521783.81059,11456
1659521783.848821,11514
1659521783.890807,11585
1659521783.932793,11655
1659521783.971707,11688
1659521784.010621,11589
1659521784.049535,11418
1659521784.089985,11282
1659521784.130435,11171
1659521784.169349,11046
1659521784.208263,10965
1659521784.247177,10950
1659521784.289675,10954
1659521784.332173,10942
1659521784.370746,10935
1659521784.409318,10941
1659521784.447891,10967
1659521784.492267,11011
1659521784.536642,11077
1659521784.581018,11139
1659521784.623004,11223
1659521784.66499,11302
1659521784.703221,11379
1659521784.741452,11450
1659521784.779684,11518
1659521784.822182,11594
1659521784.86468,11623
1659521784.903594,11513
1659521784.942508,11308
1659521784.981422,11135
1659521785.019994,11018
1659521785.058567,10933
1659521785.09714,10895
1659521785.138102,10912
1659521785.179064,10943
1659521785.218319,10935
1659521785.257574,10943
1659521785.29683,10971
1659521785.338816,10997
1659521785.380802,11038
1659521785.419716,11079
1659521785.45863,11122
1659521785.497544,11167
1659521785.536799,11219
1659521785.576054,11256
1659521785.615309,11306
1659521785.657296,11372
1659521785.699282,11398
1659521785.738196,11420
1659521785.77711,11345
1659521785.816024,11145
1659521785.858829,10955
1659521785.901634,10869
1659521785.94444,10822
1659521785.987245,10789
1659521786.03005,10801
1659521786.06282,10802
1659521786.09559,10780
1659521786.139624,10769
1659521786.183658,10781
1659521786.227692,10829
1659521786.267289,10888
1659521786.306885,10945
1659521786.346482,10986
1659521786.385055,11034
1659521786.423627,11078
1659521786.4622,11130
1659521786.503674,11185
1659521786.545148,11244
1659521786.584403,11316
1659521786.623659,11383
1659521786.662914,11451
1659521786.701145,11437
1659521786.739376,11308
1659521786.777608,11074
1659521786.819594,10930
1659521786.86158,10848
1659521786.900494,10801
1659521786.939408,10800
1659521786.978322,10818
1659521787.018772,10839
1659521787.059222,10827
1659521787.097794,10825
1659521787.136367,10844
1659521787.17494,10866
1659521787.217438,10894
1659521787.259936,10956
1659521787.30397,11009
1659521787.348004,11070
1659521787.392038,11116
1659521787.423784,11156
1659521787.455529,11211
1659521787.500929,11256
1659521787.546329,11309
1659521787.591728,11333
1659521787.630301,11242
1659521787.668874,10996
1659521787.707446,10763
1659521787.749432,10663
1659521787.791418,10624
1659521787.831015,10607
1659521787.870612,10624
1659521787.910208,10639
1659521787.951682,10643
1659521787.993156,10645
1659521788.031388,10671
1659521788.069619,10701
1659521788.10785,10744
1659521788.147105,10754
1659521788.186361,10784
1659521788.225616,10832
1659521788.267602,10874
1659521788.309588,10923
1659521788.348161,10979
1659521788.386734,11018
1659521788.425306,11053
1659521788.46678,11112
1659521788.508254,11107
1659521788.547168,10947
1659521788.586082,10679
1659521788.624996,10457
1659521788.66391,10330
1659521788.702824,10217
1659521788.741738,10145
1659521788.783724,10083
1659521788.82571,10042
1659521788.867696,9982
1659521788.909682,9927
1659521788.948255,9936
1659521788.986828,9952
1659521789.0254,9999
1659521789.069776,10050
1659521789.114151,10113
1659521789.158527,10171
1659521789.19232,10233
1659521789.226114,10300
1659521789.269807,10355
1659521789.3135,10428
1659521789.357193,10482
1659521789.389962,10480
1659521789.422732,10330
1659521789.467108,10074
1659521789.511483,9906
1659521789.555859,9824
1659521789.594773,9800
1659521789.633687,9814
1659521789.672601,9863
1659521789.714075,9864
1659521789.755549,9860
1659521789.794804,9860
1659521789.834059,9894
1659521789.873315,9953
1659521789.914277,10024
1659521789.955239,10085
1659521789.994494,10151
1659521790.033749,10216
1659521790.073004,10284
1659521790.111918,10330
1659521790.150832,10395
1659521790.189746,10438
1659521790.23122,10376
1659521790.272695,10166
1659521790.310926,9975
1659521790.349157,9879
1659521790.387388,9833
1659521790.429886,9823
1659521790.472384,9855
1659521790.511298,9891
1659521790.550212,9903
1659521790.589126,9901
1659521790.629576,9929
1659521790.670026,9971
1659521790.70894,10036
1659521790.747854,10089
1659521790.786768,10156
1659521790.829266,10228
1659521790.871764,10287
1659521790.911498,10343
1659521790.951231,10400
1659521790.990964,10471
1659521791.030697,10536
1659521791.07043,10546
1659521791.112417,10395
1659521791.154402,10167
1659521791.193658,10018
1659521791.232913,9959
1659521791.272168,9926
1659521791.316885,9913
1659521791.361602,9917
1659521791.406319,9924
1659521791.439601,9919
1659521791.472883,9922
1659521791.516917,9935
1659521791.560951,9971
1659521791.604985,10008
1659521791.638267,10063
1659521791.671548,10098
1659521791.716265,10120
1659521791.760982,10166
1659521791.805699,10209
1659521791.844272,10271
1659521791.882844,10339
1659521791.921417,10392
1659521791.962891,10348
1659521792.004365,10202
1659521792.04362,10042
1659521792.082876,9974
1659521792.122131,9938
1659521792.164117,9936
1659521792.206103,9960
1659521792.244334,9995
1659521792.282566,10037
1659521792.320797,10040
1659521792.360394,10075
1659521792.39999,10104
1659521792.439587,10133
1659521792.480037,10190
1659521792.520487,10240
1659521792.558718,10287
1659521792.596949,10351
1659521792.635181,10418
1659521792.677679,10466
1659521792.720177,10529
1659521792.758408,10583
1659521792.796639,10528
1659521792.834871,10353
1659521792.875321,10176
1659521792.915771,10094
1659521792.955026,10038
1659521792.994281,10020
1659521793.033537,10056
1659521793.075523,10113
1659521793.117509,10145
1659521793.156081,10173
1659521793.194654,10228
1659521793.233227,10286
1659521793.278285,10351
1659521793.323343,10402
1659521793.368401,10450
1659521793.410388,10509
1659521793.452374,10544
1659521793.490605,10594
1659521793.528836,10655
1659521793.567067,10717
1659521793.609053,10784
1659521793.65104,10785
1659521793.689953,10600
1659521793.728867,10378
1659521793.767781,10229
1659521793.806013,10136
1659521793.844244,10078
1659521793.882475,10048
1659521793.923949,10090
1659521793.965423,10116
1659521794.004337,10133
1659521794.043251,10159
1659521794.082165,10191
1659521794.121079,10245
1659521794.159993,10304
1659521794.198907,10358
1659521794.240893,10411
1659521794.282879,10453
1659521794.321793,10513
1659521794.360707,10577
1659521794.399621,10640
1659521794.441095,10707
1659521794.482569,10762
1659521794.521824,10683
1659521794.56108,10447
1659521794.600335,10222
1659521794.642321,10067
1659521794.684307,9981
1659521794.728341,9934
1659521794.772376,9953
1659521794.81641,9979
1659521794.84918,9982
1659521794.881949,9959
1659521794.926325,9942
1659521794.9707,9952
1659521795.015076,9977
1659521795.05399,10041
1659521795.092904,10136
1659521795.131818,10234
1659521795.17278,10329
1659521795.213742,10425
1659521795.252997,10544
1659521795.292252,10658
1659521795.331507,10699
1659521795.37247,10558
1659521795.413432,10351
1659521795.452687,10223
1659521795.491942,10145
1659521795.531198,10113
1659521795.570112,10127
1659521795.609025,10164
1659521795.647939,10200
1659521795.689414,10199
1659521795.730887,10213
1659521795.76946,10237
1659521795.808033,10287
1659521795.846605,10345
1659521795.888592,10420
1659521795.930578,10484
1659521795.969491,10553
1659521796.008405,10622
1659521796.047319,10684
1659521796.085209,10749
1659521796.123099,10785
1659521796.160989,10673
1659521796.205023,10413
1659521796.249058,10206
1659521796.293092,10088
1659521796.332347,10029
1659521796.371602,10024
1659521796.410857,10082
1659521796.45182,10161
1659521796.492782,10214
1659521796.531696,10257
1659521796.57061,10287
1659521796.609524,10332
1659521796.652022,10376
1659521796.69452,10419
1659521796.733092,10483
1659521796.771665,10541
1659521796.810237,10616
1659521796.849493,10685
1659521796.888748,10770
1659521796.928003,10849
1659521796.969477,10870
1659521797.010952,10744
1659521797.049524,10550
1659521797.088097,10455
1659521797.126669,10415
1659521797.168144,10424
1659521797.209617,10474
1659521797.248873,10565
1659521797.288128,10652
1659521797.327383,10699
1659521797.368345,10754
1659521797.409307,10813
1659521797.448563,10879
1659521797.487818,10946
1659521797.527073,11037
1659521797.569059,11109
1659521797.611046,11171
1659521797.655421,11249
1659521797.699797,11315
1659521797.744172,11377
1659521797.782745,11395
1659521797.821317,11302
1659521797.85989,11087
1659521797.902388,10934
1659521797.944886,10855
1659521797.9838,10799
1659521798.022714,10798
1659521798.061628,10824
1659521798.102078,10852
1659521798.142528,10825
1659521798.181783,10817
1659521798.221039,10846
1659521798.260294,10886
1659521798.298525,10930
1659521798.336756,10980
1659521798.374988,11042
1659521798.416974,11084
1659521798.45896,11137
1659521798.497874,11184
1659521798.536788,11229
1659521798.575702,11244
1659521798.617176,11077
1659521798.65865,10828
1659521798.697222,10663
1659521798.735795,10574
1659521798.774368,10508
1659521798.813623,10502
1659521798.852878,10520
1659521798.892134,10524
1659521798.93412,10532
1659521798.976106,10516
1659521799.014678,10533
1659521799.053251,10568
1659521799.091824,10617
1659521799.132786,10672
1659521799.173748,10739
1659521799.218123,10801
1659521799.262499,10850
1659521799.306875,10916
1659521799.340156,10975
1659521799.373438,11035
1659521799.417813,11037
1659521799.462189,10904
1659521799.506564,10710
1659521799.538822,10589
1659521799.57108,10530
1659521799.615455,10485
1659521799.659831,10498
1659521799.704206,10511
1659521799.743462,10528
1659521799.782717,10500
1659521799.821972,10492
1659521799.86447,10515
1659521799.906968,10550
1659521799.945541,10599
1659521799.984114,10658
1659521800.022686,10709
1659521800.064672,10735
1659521800.106658,10778
1659521800.145231,10813
1659521800.183804,10869
1659521800.222376,10953
1659521800.260949,11026
1659521800.299521,11038
1659521800.338094,10932
1659521800.38008,10799
1659521800.422066,10737
1659521800.46098,10726
1659521800.499894,10715
1659521800.538808,10737
1659521800.580282,10784
1659521800.621756,10782
1659521800.660329,10769
1659521800.698901,10767
1659521800.737474,10804
1659521800.77946,10828
1659521800.821446,10867
1659521800.861043,10919
1659521800.90064,10959
1659521800.940236,11003
1659521800.981198,11050
1659521801.02216,11106
1659521801.061074,11149
1659521801.099988,11188
1659521801.138902,11226
1659521801.183619,11149
1659521801.228336,10948
1659521801.273053,10758
1659521801.306334,10642
1659521801.339616,10578
1659521801.383992,10541
1659521801.428367,10530
1659521801.472743,10523
1659521801.511657,10526
1659521801.550571,10494
1659521801.589485,10491
1659521801.627374,10506
1659521801.665264,10541
1659521801.703154,10586
1659521801.745652,10637
1659521801.788151,10693
1659521801.826723,10746
1659521801.865296,10803
1659521801.903868,10847
1659521801.9421,10896
1659521801.980331,10948
1659521802.018562,11001
1659521802.060548,11049
1659521802.102534,10990
1659521802.145032,10778
1659521802.187531,10557
1659521802.225762,10431
1659521802.263993,10354
1659521802.302224,10298
1659521802.346941,10292
1659521802.391658,10306
1659521802.436375,10318
1659521802.469145,10316
1659521802.501914,10312
1659521802.545949,10333
1659521802.589983,10374
1659521802.634017,10424
1659521802.672931,10471
1659521802.711845,10531
1659521802.750759,10577
1659521802.793257,10640
1659521802.835755,10691
1659521802.873645,10739
1659521802.911535,10795
1659521802.949425,10855
1659521802.991411,10896
1659521803.033397,10877
1659521803.072994,10703
1659521803.11259,10494
1659521803.152187,10396
1659521803.190759,10345
1659521803.229332,10317
1659521803.267905,10336
1659521803.310403,10364
1659521803.352901,10364
1659521803.392156,10354
1659521803.431412,10361
1659521803.470667,10385
1659521803.511117,10427
1659521803.551567,10486
1659521803.590139,10534
1659521803.628712,10587
1659521803.667284,10616
1659521803.709783,10664
1659521803.752281,10717
1659521803.790853,10769
1659521803.829426,10814
1659521803.867999,10827
1659521803.908961,10720
1659521803.949923,10494
1659521803.988837,10332
1659521804.02775,10254
1659521804.066664,10225
1659521804.11104,10229
1659521804.155416,10248
1659521804.199791,10248
1659521804.233585,10230
1659521804.267379,10217
1659521804.312095,10229
1659521804.356812,10264
1659521804.401529,10303
1659521804.443003,10348
1659521804.484477,10408
1659521804.52305,10445
1659521804.561623,10494
1659521804.600195,10542
1659521804.642693,10594
1659521804.685191,10653
1659521804.723764,10722
1659521804.762337,10739
1659521804.800909,10589
1659521804.83914,10358
1659521804.877372,10187
1659521804.915603,10105
1659521804.956565,10037
1659521804.997527,10003
1659521805.036782,9992
1659521805.076038,9984
1659521805.115293,9957
1659521805.153866,9932
1659521805.192438,9946
1659521805.231011,9983
1659521805.272485,10034
1659521805.313959,10091
1659521805.353214,10159
1659521805.392469,10233
1659521805.431725,10295
1659521805.473711,10360
1659521805.515697,10425
1659521805.553928,10476
1659521805.59216,10523
1659521805.630391,10557
1659521805.672377,10467
1659521805.714363,10213
1659521805.758397,9972
1659521805.802431,9824
1659521805.846466,9747
1659521805.879747,9695
1659521805.913029,9700
1659521805.957404,9707
1659521806.00178,9705
1659521806.046155,9691
1659521806.085069,9683
1659521806.123983,9705
1659521806.162897,9754
1659521806.203347,9804
1659521806.243797,9850
1659521806.283053,9906
1659521806.322308,9957
1659521806.361563,10007
1659521806.404061,10068
1659521806.446559,10118
1659521806.485473,10189
1659521806.524387,10205
1659521806.563301,10078
1659521806.602557,9828
1659521806.641812,9645
1659521806.681067,9558
1659521806.723053,9496
1659521806.765039,9488
1659521806.802929,9516
1659521806.840819,9538
1659521806.878709,9530
1659521806.917964,9535
1659521806.95722,9552
1659521806.996475,9592
1659521807.038461,9660
1659521807.080447,9708
1659521807.118679,9762
1659521807.15691,9826
1659521807.195141,9888
1659521807.236615,9943
1659521807.278089,10011
1659521807.322465,10079
1659521807.36684,10147
1659521807.411216,10191
1659521807.443985,10086
1659521807.476755,9842
1659521807.521472,9631
1659521807.566189,9511
1659521807.610906,9447
1659521807.644187,9413
1659521807.677469,9436
1659521807.721503,9463
1659521807.765538,9452
1659521807.809572,9418
1659521807.848486,9416
1659521807.8874,9425
1659521807.926314,9440
1659521807.968812,9461
1659521808.01131,9490
1659521808.0492,9524
1659521808.08709,9563
1659521808.124979,9613
1659521808.163552,9649
1659521808.202125,9714
1659521808.240697,9767
1659521808.281659,9825
1659521808.322621,9873
1659521808.361535,9781
1659521808.400449,9528
1659521808.439363,9294
1659521808.480325,9158
1659521808.521287,9063
1659521808.560543,9024
1659521808.599798,9027
1659521808.639053,9054
1659521808.680015,9058
1659521808.720977,9058
1659521808.760233,9063
1659521808.799488,9093
1659521808.838743,9137
1659521808.880729,9195
1659521808.922715,9253
1659521808.961629,9291
1659521809.000543,9335
1659521809.039457,9401
1659521809.083833,9466
1659521809.128208,9571
1659521809.172584,9644
1659521809.206378,9687
1659521809.240171,9591
1659521809.284205,9356
1659521809.32824,9133
1659521809.372274,9043
1659521809.405044,9034
1659521809.437813,9063
1659521809.482189,9139
1659521809.526564,9191
1659521809.57094,9216
1659521809.609854,9233
1659521809.648768,9262
1659521809.687682,9312
1659521809.729668,9366
1659521809.771654,9427
1659521809.810909,9481
1659521809.850164,9543
1659521809.88942,9584
1659521809.930894,9633
1659521809.972368,9682
1659521810.011282,9739
1659521810.050196,9809
1659521810.08911,9864
1659521810.127682,9783
1659521810.166255,9550
1659521810.204828,9308
1659521810.247326,9168
1659521810.289824,9068
1659521810.328396,9011
1659521810.366969,9007
1659521810.405542,9039
1659521810.446504,9057
1659521810.487466,9049
1659521810.526721,9060
1659521810.565976,9097
1659521810.605232,9159
1659521810.647218,9236
1659521810.689204,9321
1659521810.727094,9399
1659521810.764984,9477
1659521810.802873,9543
1659521810.845371,9607
1659521810.88787,9685
1659521810.931904,9757
1659521810.975938,9840
1659521811.019972,9912
1659521811.058886,9886
1659521811.0978,9670
1659521811.136714,9440
1659521811.178188,9283
1659521811.219662,9192
1659521811.258918,9130
1659521811.298173,9120
1659521811.337428,9141
1659521811.375318,9152
1659521811.413208,9136
1659521811.451098,9142
1659521811.492572,9176
1659521811.534046,9209
1659521811.572619,9242
1659521811.611191,9274
1659521811.649764,9312
1659521811.691238,9332
1659521811.732712,9359
1659521811.771967,9378
1659521811.811223,9416
1659521811.850478,9447
1659521811.88905,9455
1659521811.927623,9419
1659521811.966196,9191
1659521812.007158,8920
1659521812.04812,8755
1659521812.088058,8684
1659521812.127996,8649
1659521812.167934,8669
1659521812.209408,8713
1659521812.250882,8727
1659521812.295599,8743
1659521812.340316,8747
1659521812.385033,8769
1659521812.417802,8809
1659521812.450572,8864
1659521812.495289,8920
1659521812.540006,8976
1659521812.584723,9030
1659521812.623295,9077
1659521812.661868,9122
1659521812.70044,9166
1659521812.741915,9241
1659521812.783389,9310
1659521812.822303,9318
1659521812.861216,9197
1659521812.90013,9001
1659521812.941604,8856
1659521812.983078,8780
1659521813.022675,8740
1659521813.062272,8739
1659521813.101868,8781
1659521813.141124,8814
1659521813.180379,8838
1659521813.219634,8880
1659521813.260597,8920
1659521813.301558,8983
1659521813.340814,9048
1659521813.380069,9123
1659521813.419324,9189
1659521813.461823,9251
1659521813.504321,9312
1659521813.542211,9379
1659521813.5801,9465
1659521813.61799,9558
1659521813.656563,9642
1659521813.695135,9646
1659521813.733708,9482
1659521813.775182,9262
1659521813.816656,9129
1659521813.85813,9060
1659521813.899604,9025
1659521813.938177,9064
1659521813.97675,9105
1659521814.015322,9114
1659521814.059356,9119
1659521814.10339,9119
1659521814.147425,9141
1659521814.180707,9180
1659521814.213988,9219
1659521814.258022,9254
1659521814.302057,9292
1659521814.346091,9340
1659521814.379884,9380
1659521814.413678,9451
1659521814.458054,9492
1659521814.502429,9545
1659521814.546805,9516
1659521814.585719,9320
1659521814.624633,9087
1659521814.663547,8919
1659521814.705021,8816
1659521814.746495,8733
1659521814.785067,8714
1659521814.82364,8723
1659521814.862212,8730
1659521814.900785,8722
1659521814.939358,8728
1659521814.97793,8762
1659521815.019916,8796
1659521815.061903,8837
1659521815.100816,8895
1659521815.13973,8952
1659521815.178644,9000
1659521815.219606,9055
1659521815.260568,9110
1659521815.299141,9165
1659521815.337714,9232
1659521815.376286,9286
1659521815.419296,9281
1659521815.462306,9104
1659521815.500879,8868
1659521815.539452,8719
1659521815.578024,8620
1659521815.619498,8572
1659521815.660972,8560
1659521815.700228,8604
1659521815.739483,8607
1659521815.778738,8604
1659521815.820724,8610
1659521815.86271,8637
1659521815.900942,8688
1659521815.939173,8735
1659521815.977404,8804
1659521816.022121,8868
1659521816.066838,8933
1659521816.111555,9001
1659521816.152517,9059
1659521816.193479,9130
1659521816.232393,9197
1659521816.271307,9268
1659521816.310221,9342
1659521816.352719,9395
1659521816.395217,9311
1659521816.434473,9103
1659521816.473728,8914
1659521816.512983,8831
1659521816.551214,8799
1659521816.589446,8774
1659521816.627677,8803
1659521816.670175,8819
1659521816.712673,8802
1659521816.751587,8793
1659521816.790501,8800
1659521816.829415,8830
1659521816.870377,8875
1659521816.911339,8939
1659521816.950253,8990
1659521816.989167,9049
1659521817.028081,9097
1659521817.066312,9147
1659521817.104543,9196
1659521817.142775,9237
1659521817.184249,9285
1659521817.225723,9339
1659521817.264637,9339
1659521817.303551,9187
1659521817.342465,8970
1659521817.383427,8828
1659521817.424389,8750
1659521817.462961,8701
1659521817.501534,8695
1659521817.540107,8725
1659521817.584823,8749
1659521817.62954,8749
1659521817.674257,8760
1659521817.716243,8797
1659521817.758229,8844
1659521817.796461,8898
1659521817.834692,8957
1659521817.872923,8995
1659521817.914909,9015
1659521817.956895,9063
1659521817.995468,9092
1659521818.03404,9139
1659521818.072613,9199
1659521818.110844,9267
1659521818.149076,9333
1659521818.187307,9377
1659521818.229805,9330
1659521818.272303,9112
1659521818.311217,8917
1659521818.350131,8786
1659521818.389045,8709
1659521818.427276,8661
1659521818.465508,8657
1659521818.503739,8687
1659521818.545725,8703
1659521818.587711,8705
1659521818.626625,8714
1659521818.665539,8752
1659521818.704453,8798
1659521818.746951,8860
1659521818.789449,8920
1659521818.828363,8972
1659521818.867277,9035
1659521818.906191,9082
1659521818.948177,9131
1659521818.990163,9182
1659521819.034197,9242
1659521819.078231,9317
1659521819.122266,9382
1659521819.156059,9447
1659521819.189853,9379
1659521819.23457,9189
1659521819.279287,9015
1659521819.324004,8925
1659521819.361894,8888
1659521819.399784,8865
1659521819.437673,8890
1659521819.478636,8909
1659521819.519598,8914
1659521819.558853,8909
1659521819.598108,8943
1659521819.637363,8976
1659521819.678838,9024
1659521819.720312,9083
1659521819.759225,9131
1659521819.798139,9178
1659521819.837053,9227
1659521819.875967,9278
1659521819.914881,9321
1659521819.953795,9369
1659521819.995781,9422
1659521820.037767,9477
1659521820.076681,9448
1659521820.115595,9257
1659521820.154509,9051
1659521820.193082,8915
1659521820.231654,8830
1659521820.270227,8778
1659521820.311701,8780
1659521820.353175,8804
1659521820.391065,8821
1659521820.428955,8828
1659521820.466845,8829
1659521820.508831,8868
1659521820.550817,8906
1659521820.592291,8953
1659521820.633765,9008
1659521820.675239,9056
1659521820.716713,9107
1659521820.754945,9162
1659521820.793176,9213
1659521820.831407,9266
1659521820.873905,9327
1659521820.916403,9380
1659521820.955317,9446
1659521820.994231,9467
1659521821.033145,9315
1659521821.074107,9085
1659521821.115069,8931
1659521821.154325,8841
1659521821.19358,8773
1659521821.232835,8754
1659521821.275333,8761
1659521821.317832,8777
1659521821.355721,8776
1659521821.393611,8775
1659521821.431501,8797
1659521821.472975,8849
1659521821.514449,8895
1659521821.553363,8950
1659521821.592277,9007
1659521821.631191,9070
1659521821.675567,9125
1659521821.719942,9188
1659521821.764318,9243
1659521821.798111,9319
1659521821.831905,9380
1659521821.876963,9454
1659521821.922022,9515
1659521821.96708,9448
1659521822.008042,9236
1659521822.049004,9057
1659521822.087918,8976
1659521822.126832,8925
1659521822.165746,8927
1659521822.205684,8951
1659521822.245622,8982
1659521822.28556,8995
1659521822.327034,9004
1659521822.368508,9023
1659521822.407081,9070
1659521822.445653,9126
1659521822.484226,9161
1659521822.52314,9231
1659521822.562054,9258
1659521822.600968,9299
1659521822.642442,9347
1659521822.683916,9388
1659521822.722488,9449
1659521822.761061,9520
1659521822.799634,9589
1659521822.844351,9564
1659521822.889067,9380
1659521822.933784,9141
1659521822.966042,8986
1659521822.9983,8898
1659521823.043016,8833
1659521823.087733,8825
1659521823.13245,8844
1659521823.166244,8862
1659521823.200037,8858
1659521823.244072,8864
1659521823.288106,8895
1659521823.33214,8929
1659521823.371054,8993
1659521823.409968,9055
1659521823.448882,9122
1659521823.489844,9173
1659521823.530806,9229
1659521823.569037,9297
1659521823.607269,9347
1659521823.6455,9400
1659521823.684072,9459
1659521823.722645,9533
1659521823.761218,9552
1659521823.803716,9448
1659521823.846214,9189
1659521823.884787,9015
1659521823.923359,8929
1659521823.961932,8865
1659521824.002382,8845
1659521824.042832,8865
1659521824.082087,8908
1659521824.121342,8917
1659521824.160598,8920
1659521824.202584,8937
1659521824.24457,8991
1659521824.283484,9048
1659521824.322398,9104
1659521824.361312,9167
1659521824.403298,9220
1659521824.445284,9277
1659521824.484539,9341
1659521824.523794,9398
1659521824.56305,9441
1659521824.606743,9494
1659521824.650435,9555
1659521824.694128,9610
1659521824.727922,9569
1659521824.761716,9359
1659521824.806091,9133
1659521824.850467,9031
1659521824.894842,8970
1659521824.935804,8944
1659521824.976767,8966
1659521825.01568,8998
1659521825.054594,8991
1659521825.093508,8988
1659521825.133105,8987
1659521825.172702,9017
1659521825.212298,9067
1659521825.25326,9118
1659521825.294222,9172
1659521825.333136,9223
1659521825.37205,9277
1659521825.410964,9317
1659521825.45295,9375
1659521825.494936,9418
1659521825.534192,9472
1659521825.573447,9548
1659521825.612702,9612
1659521825.651275,9610
1659521825.689847,9429
1659521825.72842,9185
1659521825.770406,9003
1659521825.812392,8911
1659521825.850624,8847
1659521825.888855,8815
1659521825.927086,8844
1659521825.96856,8852
1659521826.010034,8858
1659521826.049289,8848
1659521826.088545,8866
1659521826.1278,8909
1659521826.16825,8964
1659521826.2087,9015
1659521826.247273,9064
1659521826.285845,9125
1659521826.324418,9175
1659521826.366916,9237
1659521826.409414,9280
1659521826.454131,9334
1659521826.498848,9393
1659521826.543565,9467
1659521826.581796,9537
1659521826.620027,9550
1659521826.658259,9403
1659521826.700245,9144
1659521826.742231,8979
1659521826.781145,8884
1659521826.820059,8834
1659521826.858973,8819
1659521826.896863,8843
1659521826.934752,8846
1659521826.972642,8833
1659521827.015141,8818
1659521827.057639,8824
1659521827.096211,8866
1659521827.134784,8913
1659521827.173356,8978
1659521827.213806,9043
1659521827.254256,9107
1659521827.29317,9169
1659521827.332084,9234
1659521827.370998,9288
1659521827.409912,9353
1659521827.448826,9423
1659521827.48774,9488
1659521827.529214,9547
1659521827.570688,9555
1659521827.609944,9383
1659521827.649199,9142
1659521827.688454,8992
1659521827.733171,8936
1659521827.777888,8922
1659521827.822605,8947
1659521827.861519,9004
1659521827.900433,9039
1659521827.939347,9061
1659521827.980821,9086
1659521828.022295,9139
1659521828.061892,9200
1659521828.101488,9259
1659521828.141085,9346
1659521828.179316,9413
1659521828.217547,9487
1659521828.255779,9552
1659521828.297253,9616
1659521828.338727,9674
1659521828.377299,9757
1659521828.415872,9814
1659521828.454444,9878
1659521828.496431,9926
1659521828.538417,9805
1659521828.577331,9545
1659521828.616245,9327
1659521828.655159,9217
1659521828.697145,9143
1659521828.739131,9104
1659521828.777703,9106
1659521828.816276,9143
1659521828.854848,9147
1659521828.896835,9136
1659521828.938821,9149
1659521828.977735,9184
1659521829.016649,9235
1659521829.055562,9286
1659521829.099597,9354
1659521829.143631,9414
1659521829.187665,9489
1659521829.220435,9544
1659521829.253204,9602
1659521829.297239,9674
1659521829.341273,9732
1659521829.385307,9801
1659521829.423538,9867
1659521829.46177,9900
1659521829.500001,9761
1659521829.541987,9521
1659521829.583973,9323
1659521829.622887,9227
1659521829.661801,9175
1659521829.700715,9128
1659521829.742701,9151
1659521829.784687,9177
1659521829.82326,9182
1659521829.861832,9172
1659521829.900405,9197
1659521829.93966,9244
1659521829.978915,9288
1659521830.018171,9349
1659521830.060157,9405
1659521830.102143,9481
1659521830.140374,9532
1659521830.178605,9585
1659521830.216837,9631
1659521830.258311,9690
1659521830.299785,9753
1659521830.338699,9815
1659521830.377613,9853
1659521830.416527,9759
1659521830.458001,9536
1659521830.499475,9354
1659521830.538389,9263
1659521830.577303,9232
1659521830.616217,9231
1659521830.657691,9268
1659521830.699165,9291
1659521830.743199,9287
1659521830.787233,9278
1659521830.831267,9299
1659521830.870523,9326
1659521830.909778,9373
1659521830.949033,9437
1659521830.991531,9477
1659521831.034029,9532
1659521831.072602,9585
1659521831.111175,9641
1659521831.149747,9680
1659521831.191221,9736
1659521831.232695,9790
1659521831.271951,9845
1659521831.311206,9851
1659521831.350461,9663
1659521831.389034,9388
1659521831.427607,9195
1659521831.466179,9081
1659521831.507141,9000
1659521831.548103,8951
1659521831.587358,8967
1659521831.626614,8981
1659521831.665869,8971
1659521831.706831,8964
1659521831.747793,8980
1659521831.787049,9028
1659521831.826304,9077
1659521831.865559,9144
1659521831.904814,9199
1659521831.94407,9263
1659521831.983325,9320
1659521832.024287,9388
1659521832.065249,9448
1659521832.104163,9515
1659521832.143077,9578
1659521832.181991,9650
1659521832.224489,9718
1659521832.266987,9664
1659521832.308461,9446
1659521832.349935,9233
1659521832.388166,9122
1659521832.426398,9053
1659521832.464629,9007
1659521832.509346,9010
1659521832.554063,9029
1659521832.59878,9045
1659521832.631549,9031
1659521832.664319,9042
1659521832.708012,9063
1659521832.751705,9104
1659521832.795398,9151
1659521832.834311,9214
1659521832.873225,9259
1659521832.912139,9296
1659521832.950883,9356
1659521832.989626,9397
1659521833.028369,9470
1659521833.067112,9532
1659521833.105856,9594
1659521833.144599,9567
1659521833.186585,9386
1659521833.228571,9177
1659521833.267485,9060
1659521833.306399,8999
1659521833.345313,8970
1659521833.386787,8983
1659521833.428261,9013
1659521833.467175,9025
1659521833.506089,9022
1659521833.545003,9029
1659521833.589037,9058
1659521833.633071,9107
1659521833.677106,9160
1659521833.71858,9217
1659521833.760054,9276
1659521833.798968,9341
1659521833.837882,9398
1659521833.876796,9459
1659521833.919294,9498
1659521833.961792,9559
1659521834.000023,9627
1659521834.038254,9678
1659521834.076486,9631
1659521834.115741,9414
1659521834.154996,9166
1659521834.194252,9014
1659521834.235726,8930
1659521834.2772,8850
1659521834.316455,8815
1659521834.35571,8837
1659521834.394966,8838
1659521834.43388,8834
1659521834.472794,8831
1659521834.511708,8861
1659521834.554206,8906
1659521834.596704,8968
1659521834.634935,9038
1659521834.673166,9106
1659521834.711397,9170
1659521834.753384,9228
1659521834.79537,9296
1659521834.834625,9344
1659521834.87388,9391
1659521834.913136,9460
1659521834.953586,9532
1659521834.994035,9606
1659521835.032267,9613
1659521835.070498,9462
1659521835.108729,9210
1659521835.151739,9030
1659521835.19475,8931
1659521835.238784,8870
1659521835.282818,8853
1659521835.326852,8856
1659521835.359622,8871
1659521835.392391,8857
1659521835.437108,8846
1659521835.481825,8846
1659521835.526542,8895
1659521835.565798,8930
1659521835.605053,8979
1659521835.644308,9046
1659521835.685782,9100
1659521835.727256,9148
1659521835.76617,9208
1659521835.805084,9265
1659521835.843998,9325
1659521835.882229,9395
1659521835.92046,9456
1659521835.958692,9477
1659521835.999142,9333
1659521836.039592,9088
1659521836.078847,8932
1659521836.118103,8860
1659521836.157358,8809
1659521836.199344,8805
1659521836.24133,8843
1659521836.279561,8870
1659521836.317792,8864
1659521836.356024,8876
1659521836.39562,8893
1659521836.435217,8957
1659521836.474814,8998
1659521836.516288,9051
1659521836.557762,9110
1659521836.599236,9168
1659521836.64071,9236
1659521836.679965,9299
1659521836.719221,9360
1659521836.758476,9426
1659521836.79995,9506
1659521836.841424,9567
1659521836.879655,9640
1659521836.917886,9640
1659521836.956118,9444
1659521837.000835,9200
1659521837.045552,9028
1659521837.090268,8936
1659521837.124062,8857
1659521837.157856,8848
1659521837.20189,8864
1659521837.245924,8887
1659521837.289958,8902
1659521837.328872,8901
1659521837.367786,8933
1659521837.4067,8972
1659521837.448686,9043
1659521837.490672,9106
1659521837.529245,9172
1659521837.567818,9247
1659521837.60639,9312
1659521837.648888,9385
1659521837.691386,9452
1659521837.730642,9515
1659521837.769897,9573
1659521837.809152,9643
1659521837.847725,9719
1659521837.886297,9798
1659521837.92487,9765
1659521837.965832,9567
1659521838.006794,9359
1659521838.046391,9243
1659521838.085988,9186
1659521838.125584,9152
1659521838.166034,9169
1659521838.206484,9210
1659521838.246217,9222
1659521838.285951,9212
1659521838.325684,9219
1659521838.365417,9246
1659521838.40515,9281
1659521838.446624,9343
1659521838.488098,9405
1659521838.526671,9461
1659521838.565243,9527
1659521838.603816,9600
1659521838.64529,9668
1659521838.686764,9738
1659521838.725678,9790
1659521838.764592,9865
1659521838.803506,9945
1659521838.845492,9975
1659521838.887478,9829
1659521838.926392,9576
1659521838.965306,9386
1659521839.00422,9297
1659521839.04467,9265
1659521839.08512,9234
1659521839.124034,9254
1659521839.162948,9279
1659521839.201862,9282
1659521839.245555,9263
1659521839.289248,9277
1659521839.332941,9320
1659521839.366734,9368
1659521839.400528,9434
1659521839.444562,9492
1659521839.488596,9560
1659521839.532631,9618
1659521839.571545,9687
1659521839.610458,9749
1659521839.649372,9816
1659521839.691359,9878
1659521839.733345,9954
1659521839.772941,10034
1659521839.812538,10073
1659521839.852134,9955
1659521839.893097,9676
1659521839.934059,9441
1659521839.973314,9320
1659521840.012569,9229
1659521840.051825,9180
1659521840.090397,9186
1659521840.12897,9214
1659521840.167542,9212
1659521840.209528,9206
1659521840.251514,9227
1659521840.290428,9261
1659521840.329342,9334
1659521840.368256,9402
1659521840.40973,9469
1659521840.451205,9554
1659521840.489094,9629
1659521840.526984,9697
1659521840.564874,9778
1659521840.607372,9840
1659521840.64987,9907
1659521840.688784,9985
1659521840.727698,10043
1659521840.766612,10054
1659521840.810988,9911
1659521840.855363,9643
1659521840.899739,9471
1659521840.933021,9398
1659521840.966302,9364
1659521841.011019,9357
1659521841.055736,9396
1659521841.100453,9419
1659521841.141927,9431
1659521841.183401,9453
1659521841.222315,9471
1659521841.261229,9504
1659521841.300143,9544
1659521841.339398,9591
1659521841.378654,9642
1659521841.417909,9712
1659521841.458359,9788
1659521841.498809,9862
1659521841.537382,9939
1659521841.575954,10002
1659521841.614527,10071
1659521841.653099,10096
1659521841.691672,10020
1659521841.730245,9790
1659521841.771719,9564
1659521841.813193,9428
1659521841.852107,9341
1659521841.891021,9275
1659521841.929935,9252
1659521841.971409,9266
1659521842.012883,9260
1659521842.051455,9287
1659521842.090028,9369
1659521842.1286,9476
1659521842.170587,9582
1659521842.212573,9669
1659521842.251828,9729
1659521842.291083,9777
1659521842.330338,9808
1659521842.370789,9856
1659521842.411239,9908
1659521842.449811,9973
1659521842.488384,10052
1659521842.526956,10143
1659521842.571332,10232
1659521842.615707,10172
1659521842.660083,9949
1659521842.702069,9746
1659521842.744055,9613
1659521842.782628,9514
1659521842.8212,9439
1659521842.859773,9417
1659521842.901759,9427
1659521842.943745,9437
1659521842.982659,9413
1659521843.021573,9418
1659521843.060487,9457
1659521843.099742,9503
1659521843.138998,9555
1659521843.178253,9612
1659521843.220239,9675
1659521843.262225,9743
1659521843.301139,9793
1659521843.340053,9835
1659521843.378967,9882
1659521843.417881,9940
1659521843.456795,9995
1659521843.495709,10033
1659521843.538207,9944
1659521843.580705,9739
1659521843.619619,9581
1659521843.658533,9508
1659521843.697447,9456
1659521843.738409,9428
1659521843.779371,9414
1659521843.817944,9387
1659521843.856516,9365
1659521843.895089,9351
1659521843.937587,9371
1659521843.980085,9431
1659521844.024119,9481
1659521844.068153,9535
1659521844.112188,9571
1659521844.145469,9595
1659521844.178751,9606
1659521844.223468,9616
1659521844.268185,9611
1659521844.312902,9631
1659521844.351474,9666
1659521844.390047,9716
1659521844.428619,9680
1659521844.470606,9465
1659521844.512592,9197
1659521844.551506,9025
1659521844.59042,8938
1659521844.629333,8852
1659521844.667906,8836
1659521844.706479,8876
1659521844.745051,8912
1659521844.786013,8928
1659521844.826975,8931
1659521844.865548,8933
1659521844.904121,8941
1659521844.942693,8987
1659521844.980924,9038
1659521845.019156,9098
1659521845.057387,9165
1659521845.098861,9226
1659521845.140335,9308
1659521845.179932,9373
1659521845.219528,9444
1659521845.259125,9511
1659521845.300087,9562
1659521845.341049,9537
1659521845.379622,9323
1659521845.418194,9082
1659521845.456767,8930
1659521845.499777,8859
1659521845.542787,8793
1659521845.587504,8774
1659521845.632221,8792
1659521845.676938,8785
1659521845.715169,8767
1659521845.7534,8766
1659521845.791632,8784
1659521845.833106,8806
1659521845.87458,8850
1659521845.913152,8867
1659521845.951725,8902
1659521845.990298,8927
1659521846.031772,8959
1659521846.073246,8985
1659521846.11216,9019
1659521846.151074,9060
1659521846.189988,9079
1659521846.228902,8952
1659521846.267816,8724
1659521846.30673,8573
1659521846.347692,8528
1659521846.388654,8488
1659521846.428591,8493
1659521846.468529,8557
1659521846.508467,8636
1659521846.549942,8684
1659521846.591416,8725
1659521846.63033,8762
1659521846.669244,8817
1659521846.708158,8884
1659521846.747072,8951
1659521846.785985,9036
1659521846.824899,9114
1659521846.867398,9201
1659521846.909896,9291
1659521846.950346,9373
1659521846.990796,9463
1659521847.02971,9551
1659521847.068624,9621
1659521847.107538,9571
1659521847.149012,9337
1659521847.190486,9064
1659521847.2294,8903
1659521847.268314,8823
1659521847.307227,8773
1659521847.351603,8769
1659521847.395979,8812
1659521847.440354,8868
1659521847.473636,8889
1659521847.506917,8928
1659521847.550952,8976
1659521847.594986,9057
1659521847.63902,9155
1659521847.677934,9235
1659521847.716848,9305
1659521847.755762,9364
1659521847.797748,9416
1659521847.839734,9465
1659521847.878307,9516
1659521847.916879,9576
1659521847.955452,9622
1659521847.996414,9705
1659521848.037376,9730
1659521848.07629,9581
1659521848.115204,9317
1659521848.154118,9148
1659521848.192349,9069
1659521848.23058,9045
1659521848.268812,9027
1659521848.310798,9068
1659521848.352784,9106
1659521848.391015,9110
1659521848.429246,9123
1659521848.467478,9135
1659521848.508952,9183
1659521848.550426,9246
1659521848.58934,9289
1659521848.628253,9339
1659521848.667167,9367
1659521848.708898,9419
1659521848.750628,9478
1659521848.792358,9555
1659521848.834088,9613
1659521848.876074,9694
1659521848.91806,9771
1659521848.956974,9711
1659521848.995888,9486
1659521849.034802,9264
1659521849.076276,9182
1659521849.11775,9131
1659521849.156664,9127
1659521849.195578,9168
1659521849.234492,9213
1659521849.272723,9250
1659521849.310954,9255
1659521849.349186,9276
1659521849.391684,9325
1659521849.434182,9382
1659521849.473096,9443
1659521849.51201,9501
1659521849.550924,9555
1659521849.592398,9615
1659521849.633872,9684
1659521849.673127,9744
1659521849.712383,9818
1659521849.751638,9864
1659521849.794136,9930
1659521849.836634,10019
1659521849.880668,10065
1659521849.924702,9941
1659521849.968737,9661
1659521850.002018,9445
1659521850.0353,9316
1659521850.080017,9254
1659521850.124734,9190
1659521850.169451,9165
1659521850.207682,9180
1659521850.245913,9158
1659521850.284144,9128
1659521850.32613,9112
1659521850.368117,9149
1659521850.407031,9196
1659521850.445945,9288
1659521850.484859,9351
1659521850.525308,9407
1659521850.565758,9456
1659521850.60399,9492
1659521850.642221,9527
1659521850.680452,9558
1659521850.720049,9606
1659521850.759645,9650
1659521850.799242,9693
1659521850.840716,9636
1659521850.88219,9396
1659521850.921104,9130
1659521850.960018,8981
1659521850.998932,8921
1659521851.040918,8883
1659521851.082904,8893
1659521851.121136,8942
1659521851.159367,8981
1659521851.197598,8998
1659521851.236171,9019
1659521851.274743,9079
1659521851.313316,9141
1659521851.355814,9220
1659521851.398312,9286
1659521851.439274,9364
1659521851.480236,9459
1659521851.518467,9536
1659521851.556699,9611
1659521851.59493,9670
1659521851.639647,9731
1659521851.684364,9769
1659521851.729081,9819
1659521851.76185,9732
1659521851.79462,9447
1659521851.838654,9164
1659521851.882688,9019
1659521851.926723,8967
1659521851.960516,8949
1659521851.99431,8985
1659521852.039027,9059
1659521852.083744,9131
1659521852.128461,9157
1659521852.167375,9165
1659521852.206289,9198
1659521852.245203,9220
1659521852.287701,9272
1659521852.330199,9330
1659521852.368771,9381
1659521852.407344,9445
1659521852.445917,9528
1659521852.484489,9599
1659521852.523062,9671
1659521852.561634,9752
1659521852.603108,9823
1659521852.644583,9873
1659521852.683838,9820
1659521852.723093,9552
1659521852.762348,9256
1659521852.80331,9083
1659521852.844272,9002
1659521852.883528,8959
1659521852.922783,8968
1659521852.962038,8995
1659521853.004025,9014
1659521853.04601,9019
1659521853.085266,9036
1659521853.124521,9082
1659521853.163776,9139
1659521853.205251,9189
1659521853.246725,9234
1659521853.28598,9272
1659521853.325235,9305
1659521853.364491,9356
1659521853.405965,9425
1659521853.447439,9494
1659521853.491473,9594
1659521853.535507,9710
1659521853.579541,9827
1659521853.619138,9826
1659521853.658735,9679
1659521853.698331,9546
1659521853.738781,9500
1659521853.779231,9482
1659521853.817804,9469
1659521853.856376,9471
1659521853.894949,9445
1659521853.933522,9374
1659521853.972094,9296
1659521854.010667,9231
1659521854.052653,9219
1659521854.094639,9225
1659521854.133553,9257
1659521854.172467,9284
1659521854.211381,9334
1659521854.252343,9377
1659521854.293305,9404
1659521854.33256,9440
1659521854.371815,9487
1659521854.411071,9556
1659521854.449302,9604
1659521854.487533,9561
1659521854.525764,9360
1659521854.568263,9153
1659521854.610761,9071
1659521854.649675,9061
1659521854.688589,9096
1659521854.727503,9157
1659521854.767953,9227
1659521854.808403,9245
1659521854.847317,9249
1659521854.886231,9252
1659521854.925145,9269
1659521854.967643,9301
1659521855.010141,9353
1659521855.053834,9400
1659521855.097527,9451
1659521855.141219,9507
1659521855.174501,9561
1659521855.207783,9615
1659521855.252841,9677
1659521855.297899,9713
1659521855.342957,9659
1659521855.38153,9412
1659521855.420103,9178
1659521855.458675,9084
1659521855.500661,9072
1659521855.542647,9111
1659521855.582244,9172
1659521855.621841,9220
1659521855.661437,9206
1659521855.701887,9178
1659521855.742337,9162
1659521855.781081,9160
1659521855.819824,9183
1659521855.858567,9219
1659521855.89731,9262
1659521855.936054,9303
1659521855.974797,9363
1659521856.013711,9423
1659521856.052625,9467
1659521856.091539,9533
1659521856.133013,9519
1659521856.174487,9341
1659521856.213742,9037
1659521856.252998,8833
1659521856.292253,8718
1659521856.333215,8654
1659521856.374177,8618
1659521856.413432,8628
1659521856.452688,8637
1659521856.491943,8617
1659521856.533929,8619
1659521856.575915,8618
1659521856.620291,8652
1659521856.664666,8706
1659521856.709042,8760
1659521856.747614,8811
1659521856.786187,8872
1659521856.824759,8929
1659521856.866234,8976
1659521856.907708,9054
1659521856.94628,9088
1659521856.984853,9046
1659521857.023426,8845
1659521857.061998,8615
1659521857.100571,8479
1659521857.139143,8410
1659521857.180617,8375
1659521857.222091,8393
1659521857.260323,8425
1659521857.298554,8441
1659521857.336785,8444
1659521857.378771,8472
1659521857.420757,8504
1659521857.460013,8553
1659521857.499268,8604
1659521857.538523,8668
1659521857.577096,8721
1659521857.615669,8781
1659521857.654241,8835
1659521857.695203,8892
1659521857.736165,8954
1659521857.77542,8998
1659521857.814676,8968
1659521857.853931,8790
1659521857.895917,8618
1659521857.937903,8533
1659521857.981937,8463
1659521858.025972,8415
1659521858.070006,8414
1659521858.102776,8420
1659521858.135545,8412
1659521858.175688,8424
1659521858.215831,8441
1659521858.255974,8499
1659521858.296116,8571
1659521858.336259,8648
1659521858.376709,8725
1659521858.417159,8803
1659521858.456414,8871
1659521858.49567,8933
1659521858.534925,9001
1659521858.577423,9059
1659521858.619921,9119
1659521858.660883,9160
1659521858.701845,9098
1659521858.741101,8893
1659521858.780356,8698
1659521858.819611,8565
1659521858.864328,8471
1659521858.909045,8412
1659521858.953762,8415
1659521858.987556,8424
1659521859.021349,8441
1659521859.065725,8434
1659521859.110101,8459
1659521859.154476,8478
1659521859.187758,8502
1659521859.22104,8526
1659521859.262258,8541
1659521859.303476,8565
1659521859.344694,8581
1659521859.385912,8611
1659521859.426874,8647
1659521859.467836,8728
1659521859.507091,8805
1659521859.546346,8889
1659521859.585602,8968
1659521859.623833,8991
1659521859.662064,8863
1659521859.700295,8628
1659521859.742794,8443
1659521859.785292,8321
1659521859.824206,8255
1659521859.86312,8197
1659521859.902034,8198
1659521859.942996,8203
1659521859.983958,8193
1659521860.022871,8180
1659521860.061785,8192
1659521860.100699,8215
1659521860.142686,8256
1659521860.184672,8305
1659521860.228364,8354
1659521860.272057,8395
1659521860.31575,8435
1659521860.34852,8466
1659521860.381289,8513
1659521860.421227,8550
1659521860.461165,8617
1659521860.501103,8661
1659521860.541041,8701
1659521860.58098,8597
1659521860.621429,8391
1659521860.66188,8242
1659521860.701135,8146
1659521860.74039,8086
1659521860.779645,8042
1659521860.824021,8063
1659521860.868397,8077
1659521860.912772,8061
1659521860.954246,8061
1659521860.99572,8068
1659521861.035317,8106
1659521861.074914,8147
1659521861.11451,8207
1659521861.153083,8247
1659521861.191655,8306
1659521861.230228,8378
1659521861.270678,8425
1659521861.311128,8475
1659521861.350383,8522
1659521861.389639,8575
1659521861.428894,8626
1659521861.47088,8686
1659521861.512866,8732
1659521861.551439,8733
1659521861.590011,8585
1659521861.628584,8325
1659521861.667498,8146
1659521861.706412,8049
1659521861.745326,7975
1659521861.7868,7943
1659521861.828274,7962
1659521861.867188,7994
1659521861.906102,7993
1659521861.945016,7998
1659521861.987002,8016
1659521862.028988,8058
1659521862.067902,8105
1659521862.106816,8162
1659521862.14573,8218
1659521862.187204,8282
1659521862.228678,8342
1659521862.267933,8400
1659521862.307189,8464
1659521862.346444,8513
1659521862.387918,8569
1659521862.429392,8639
1659521862.473085,8707
1659521862.516778,8778
1659521862.560471,8808
1659521862.599385,8673
1659521862.638298,8454
1659521862.677212,8332
1659521862.718686,8262
1659521862.76016,8213
1659521862.799074,8202
1659521862.837988,8241
1659521862.876902,8261
1659521862.918376,8268
1659521862.959851,8272
1659521862.999106,8313
1659521863.038361,8359
1659521863.077616,8417
1659521863.116189,8480
1659521863.154762,8545
1659521863.193334,8609
1659521863.23532,8675
1659521863.277306,8743
1659521863.31622,8806
1659521863.355134,8874
1659521863.394048,8937
1659521863.435522,9001
1659521863.476996,9083
1659521863.515228,9061
1659521863.553459,8874
1659521863.59169,8663
1659521863.630604,8542
1659521863.669518,8452
1659521863.708432,8409
1659521863.750418,8395
1659521863.792404,8419
1659521863.832854,8436
1659521863.873304,8435
1659521863.911877,8441
1659521863.950449,8468
1659521863.989022,8503
1659521864.033739,8533
1659521864.078456,8571
1659521864.123173,8574
1659521864.156454,8606
1659521864.189736,8656
1659521864.234453,8716
1659521864.27917,8783
1659521864.323887,8831
1659521864.35768,8880
1659521864.391474,8939
1659521864.435508,9002
1659521864.479542,9035
1659521864.523577,8912
1659521864.564129,8712
1659521864.604681,8568
1659521864.645234,8514
1659521864.685786,8458
1659521864.726339,8449
1659521864.76457,8484
1659521864.802801,8517
1659521864.841033,8522
1659521864.881995,8529
1659521864.922957,8549
1659521864.962212,8586
1659521865.001467,8636
1659521865.040723,8681
1659521865.082197,8729
1659521865.123671,8781
1659521865.162243,8832
1659521865.200816,8870
1659521865.239388,8914
1659521865.278985,8973
1659521865.318582,9022
1659521865.358178,9095
1659521865.399652,9147
1659521865.441127,9064
1659521865.480041,8839
1659521865.518955,8661
1659521865.557868,8576
1659521865.600367,8534
1659521865.642865,8507
1659521865.681096,8536
1659521865.719327,8589
1659521865.757558,8627
1659521865.798521,8646
1659521865.839483,8701
1659521865.878397,8743
1659521865.91731,8817
1659521865.956224,8869
1659521865.99821,8904
1659521866.040197,8957
1659521866.083889,8984
1659521866.127582,9025
1659521866.171275,9046
1659521866.205069,9092
1659521866.238863,9124
1659521866.283579,9165
1659521866.328296,9098
1659521866.373013,8895
1659521866.411244,8727
1659521866.449476,8630
1659521866.487707,8577
1659521866.530205,8540
1659521866.572703,8534
1659521866.611617,8555
1659521866.650531,8580
1659521866.689445,8579
1659521866.727676,8596
1659521866.765908,8636
1659521866.804139,8688
1659521866.845613,8753
1659521866.887087,8797
1659521866.926342,8844
1659521866.965598,8897
1659521867.004853,8944
1659521867.045303,8986
1659521867.085753,9042
1659521867.124667,9099
1659521867.163581,9150
1659521867.202495,9184
1659521867.241067,9098
1659521867.27964,8879
1659521867.318213,8733
1659521867.360198,8661
1659521867.402185,8613
1659521867.44144,8594
1659521867.480695,8626
1659521867.519951,8655
1659521867.561425,8664
1659521867.602899,8706
1659521867.647274,8771
1659521867.69165,8847
1659521867.736025,8927
1659521867.769819,8978
1659521867.803613,9022
1659521867.848671,9068
1659521867.893729,9109
1659521867.938787,9141
1659521867.971557,9195
1659521868.004327,9246
1659521868.048361,9292
1659521868.092395,9318
1659521868.136429,9201
1659521868.175343,9011
1659521868.214257,8871
1659521868.253171,8804
1659521868.295157,8766
1659521868.337143,8739
1659521868.375716,8756
1659521868.414289,8760
1659521868.452861,8755
1659521868.494847,8766
1659521868.536834,8822
1659521868.575747,8869
1659521868.614661,8941
1659521868.653575,9015
1659521868.692489,9089
1659521868.731403,9148
1659521868.770317,9213
1659521868.812303,9284
1659521868.854289,9342
1659521868.893545,9424
1659521868.9328,9470
1659521868.972055,9525
1659521869.012505,9499
1659521869.052955,9294
1659521869.091528,9052
1659521869.1301,8915
1659521869.168673,8836
1659521869.211171,8749
1659521869.253669,8720
1659521869.291559,8732
1659521869.329449,8744
1659521869.367339,8737
1659521869.407789,8719
1659521869.448239,8730
1659521869.488587,8732
1659521869.528934,8772
1659521869.569282,8829
1659521869.609629,8898
1659521869.649977,8956
1659521869.68855,9012
1659521869.727122,9066
1659521869.765695,9100
1659521869.809115,9162
1659521869.852535,9203
1659521869.895954,9271
1659521869.939374,9312
1659521869.982794,9185
1659521870.021025,8963
1659521870.059256,8803
1659521870.097487,8727
1659521870.139986,8667
1659521870.182484,8655
1659521870.221056,8669
1659521870.259629,8667
1659521870.298202,8659
1659521870.336433,8647
1659521870.374664,8675
1659521870.412895,8703
1659521870.454881,8769
1659521870.496867,8817
1659521870.53544,8874
1659521870.574013,8936
1659521870.612585,8983
1659521870.654059,9045
1659521870.695534,9100
1659521870.73513,9168
1659521870.774727,9234
1659521870.814323,9265
1659521870.852896,9162
1659521870.891469,8926
1659521870.930041,8725
1659521870.971515,8598
1659521871.012989,8513
1659521871.052586,8460
1659521871.092183,8482
1659521871.131779,8478
1659521871.173765,8462
1659521871.215751,8465
1659521871.259444,8467
1659521871.303137,8499
1659521871.34683,8544
1659521871.380112,8614
1659521871.413393,8663
1659521871.457769,8705
1659521871.502144,8718
1659521871.54652,8741
1659521871.579802,8775
1659521871.613083,8796
1659521871.657459,8829
1659521871.701834,8865
1659521871.74621,8906
1659521871.785124,8910
1659521871.824038,8775
1659521871.862952,8517
1659521871.903621,8329
1659521871.944291,8219
1659521871.98496,8123
1659521872.02563,8052
1659521872.066299,8052
1659521872.106969,8049
1659521872.147638,8035
1659521872.187166,8040
1659521872.226695,8068
1659521872.266223,8110
1659521872.305752,8191
1659521872.34528,8260
1659521872.382658,8334
1659521872.420036,8405
1659521872.457414,8465
1659521872.494792,8527
1659521872.536777,8580
1659521872.578764,8639
1659521872.617336,8704
1659521872.655909,8773
1659521872.694481,8838
1659521872.738516,8827
1659521872.78255,8653
1659521872.826584,8432
1659521872.867546,8316
1659521872.908508,8248
1659521872.947422,8219
1659521872.986336,8230
1659521873.02525,8268
1659521873.067748,8265
1659521873.110246,8260
1659521873.148819,8269
1659521873.187392,8311
1659521873.225964,8351
1659521873.264878,8404
1659521873.303792,8459
1659521873.342706,8507
1659521873.383668,8554
1659521873.42463,8605
1659521873.463544,8669
1659521873.502458,8733
1659521873.541372,8800
1659521873.582846,8883
1659521873.62432,8909
1659521873.663234,8761
1659521873.702148,8524
1659521873.741062,8343
1659521873.779976,8260
1659521873.81889,8204
1659521873.857804,8176
1659521873.898766,8203
1659521873.939728,8241
1659521873.979324,8252
1659521874.018921,8280
1659521874.058518,8317
1659521874.100504,8346
1659521874.14249,8385
1659521874.186524,8425
1659521874.230558,8471
1659521874.274592,8524
1659521874.307874,8594
1659521874.341156,8667
1659521874.386214,8723
1659521874.431272,8780
1659521874.476331,8830
1659521874.509612,8901
1659521874.542894,8961
1659521874.58727,9002
1659521874.631645,8919
1659521874.676021,8652
1659521874.709302,8412
1659521874.742584,8287
1659521874.786618,8211
1659521874.830652,8170
1659521874.874686,8204
1659521874.913942,8258
1659521874.953197,8303
1659521874.992452,8337
1659521875.032186,8369
1659521875.071919,8408
1659521875.111652,8459
1659521875.151385,8508
1659521875.191118,8552
1659521875.230032,8598
1659521875.268946,8638
1659521875.30786,8694
1659521875.346774,8746
1659521875.385688,8801
1659521875.424602,8884
1659521875.466076,8978
1659521875.50755,9071
1659521875.546464,9151
1659521875.585378,9135
1659521875.624292,8945
1659521875.665254,8741
1659521875.706216,8658
1659521875.75025,8610
1659521875.794285,8587
1659521875.838319,8603
1659521875.8716,8636
1659521875.904882,8648
1659521875.949599,8644
1659521875.994316,8655
1659521876.039033,8680
1659521876.070778,8726
1659521876.102524,8782
1659521876.146899,8850
1659521876.191275,8917
1659521876.235651,8978
1659521876.275247,9038
1659521876.314844,9104
1659521876.35444,9172
1659521876.396427,9261
1659521876.438413,9349
1659521876.477327,9397
1659521876.516241,9280
1659521876.555155,9009
1659521876.597141,8795
1659521876.639127,8698
1659521876.677699,8634
1659521876.716272,8614
1659521876.754844,8643
1659521876.793076,8681
1659521876.831307,8694
1659521876.869538,8722
1659521876.912036,8755
1659521876.954535,8826
1659521876.993107,8897
1659521877.03168,8969
1659521877.070252,9051
1659521877.111214,9113
1659521877.152176,9171
1659521877.19109,9227
1659521877.230004,9287
1659521877.268918,9354
1659521877.313635,9426
1659521877.358352,9473
1659521877.403069,9386
1659521877.436863,9136
1659521877.470656,8921
1659521877.515373,8804
1659521877.56009,8741
1659521877.604807,8696
1659521877.638089,8704
1659521877.67137,8730
1659521877.715746,8742
1659521877.760122,8737
1659521877.804497,8752
1659521877.844094,8776
1659521877.88369,8827
1659521877.923287,8876
1659521877.964761,8935
1659521878.006235,8990
1659521878.044466,9050
1659521878.082698,9108
1659521878.120929,9172
1659521878.159502,9243
1659521878.198074,9305
1659521878.236647,9384
1659521878.278633,9385
1659521878.320619,9191
1659521878.359191,8945
1659521878.397764,8812
1659521878.436337,8756
1659521878.474909,8735
1659521878.513482,8754
1659521878.552054,8784
1659521878.594041,8824
1659521878.636027,8822
1659521878.678013,8832
1659521878.719999,8878
1659521878.75823,8922
1659521878.796461,8981
1659521878.834692,9047
1659521878.876679,9109
1659521878.918665,9171
1659521878.957237,9234
1659521878.99581,9287
1659521879.034383,9342
1659521879.078417,9417
1659521879.122451,9480
1659521879.166485,9521
1659521879.200279,9415
1659521879.234072,9168
1659521879.278107,8987
1659521879.322141,8909
1659521879.366175,8886
1659521879.404065,8885
1659521879.441955,8936
1659521879.479845,8971
1659521879.521831,8980
1659521879.563817,8979
1659521879.603072,8999
1659521879.642328,9046
1659521879.681583,9103
1659521879.723057,9169
1659521879.764531,9229
1659521879.803786,9306
1659521879.843042,9364
1659521879.882297,9426
1659521879.921211,9499
1659521879.960125,9554
1659521879.999039,9631
1659521880.040001,9669
1659521880.080963,9557
1659521880.120218,9325
1659521880.159473,9164
1659521880.198729,9110
1659521880.238667,9111
1659521880.278605,9124
1659521880.318543,9180
1659521880.358481,9211
1659521880.398419,9207
1659521880.443136,9220
1659521880.487853,9252
1659521880.532569,9319
1659521880.571142,9380
1659521880.609715,9463
1659521880.648287,9524
1659521880.689249,9588
1659521880.730211,9655
1659521880.770149,9714
1659521880.810087,9776
1659521880.850025,9846
1659521880.888598,9874
1659521880.927171,9726
1659521880.965743,9482
1659521881.006705,9299
1659521881.047667,9231
1659521881.086923,9199
1659521881.126178,9190
1659521881.165433,9247
1659521881.207419,9267
1659521881.249405,9277
1659521881.287637,9282
1659521881.325868,9312
1659521881.364099,9356
1659521881.402672,9412
1659521881.441244,9486
1659521881.479817,9548
1659521881.521291,9615
1659521881.562765,9674
1659521881.606458,9727
1659521881.650151,9802
1659521881.693844,9868
1659521881.727637,9911
1659521881.761431,9808
1659521881.806148,9569
1659521881.850865,9354
1659521881.895582,9263
1659521881.934154,9210
1659521881.972727,9195
1659521882.011299,9228
1659521882.052773,9260
1659521882.094248,9266
1659521882.133503,9268
1659521882.172758,9292
1659521882.212013,9332
1659521882.250245,9386
1659521882.288476,9448
1659521882.326707,9503
1659521882.368693,9573
1659521882.410679,9631
1659521882.449252,9687
1659521882.487825,9753
1659521882.526397,9816
1659521882.567359,9870
1659521882.608321,9791
1659521882.646553,9557
1659521882.684784,9361
1659521882.723015,9284
1659521882.762953,9253
1659521882.802891,9267
1659521882.842829,9300
1659521882.884303,9334
1659521882.925777,9342
1659521882.966739,9344
1659521883.007701,9359
1659521883.046957,9396
1659521883.086212,9456
1659521883.125467,9518
1659521883.167965,9576
1659521883.210464,9628
1659521883.249377,9687
1659521883.288291,9752
1659521883.327205,9812
1659521883.371581,9852
1659521883.415956,9788
1659521883.460332,9564
1659521883.498904,9331
1659521883.537477,9229
1659521883.57605,9167
1659521883.617012,9148
1659521883.657974,9186
1659521883.697571,9229
1659521883.737167,9243
1659521883.776764,9257
1659521883.81875,9275
1659521883.860736,9319
1659521883.898967,9375
1659521883.937198,9436
1659521883.97543,9502
1659521884.014685,9558
1659521884.05394,9619
1659521884.093196,9680
1659521884.135694,9745
1659521884.178192,9806
1659521884.216423,9852
1659521884.254654,9765
1659521884.292886,9520
1659521884.33436,9302
1659521884.375834,9190
1659521884.41543,9126
1659521884.455027,9088
1659521884.494624,9105
1659521884.536098,9124
1659521884.577572,9137
1659521884.616144,9140
1659521884.654717,9153
1659521884.69329,9216
1659521884.734764,9263
1659521884.776238,9325
1659521884.814128,9390
1659521884.852018,9445
1659521884.889907,9512
1659521884.933942,9571
1659521884.977976,9628
1659521885.02201,9697
1659521885.055804,9771
1659521885.089597,9762
1659521885.133973,9604
1659521885.178349,9373
1659521885.222724,9254
1659521885.263686,9199
1659521885.304648,9171
1659521885.344245,9187
1659521885.383842,9226
1659521885.423438,9241
1659521885.462011,9231
1659521885.500583,9261
1659521885.539156,9287
1659521885.580886,9346
1659521885.622616,9414
1659521885.664346,9471
1659521885.706076,9536
1659521885.744649,9590
1659521885.783221,9664
1659521885.821794,9729
1659521885.863268,9801
1659521885.904742,9869
1659521885.943998,9908
1659521885.983253,9801
1659521886.022508,9579
1659521886.061081,9402
1659521886.099653,9329
1659521886.138226,9279
1659521886.179188,9269
1659521886.22015,9289
1659521886.259405,9303
1659521886.298661,9292
1659521886.337916,9299
1659521886.380414,9306
1659521886.422912,9362
1659521886.461485,9395
1659521886.500057,9450
1659521886.53863,9527
1659521886.580616,9585
1659521886.622602,9660
1659521886.661516,9725
1659521886.70043,9802
1659521886.739344,9870
1659521886.78133,9934
1659521886.823316,9975
1659521886.861889,9902
1659521886.900461,9668
1659521886.939034,9428
1659521886.983751,9297
1659521887.028468,9217
1659521887.073185,9171
1659521887.105442,9173
1659521887.1377,9234
1659521887.181734,9231
1659521887.225768,9217
1659521887.269803,9227
1659521887.312301,9240
1659521887.354799,9278
1659521887.393371,9320
1659521887.431944,9385
1659521887.470516,9443
1659521887.50943,9511
1659521887.548344,9581
1659521887.587258,9644
1659521887.629245,9724
1659521887.671231,9808
1659521887.709803,9884
1659521887.748376,9920
1659521887.786948,9822
1659521887.828934,9600
1659521887.870921,9437
1659521887.909493,9356
1659521887.948066,9321
1659521887.986638,9320
1659521888.025552,9353
1659521888.064466,9399
1659521888.10338,9399
1659521888.14383,9406
1659521888.18428,9445
1659521888.223536,9492
1659521888.262791,9565
1659521888.302046,9624
1659521888.34352,9690
1659521888.384994,9747
1659521888.423226,9814
1659521888.461457,9855
1659521888.499688,9901
1659521888.54065,9973
1659521888.581612,10056
1659521888.62155,10128
1659521888.661488,10102
1659521888.701426,9918
1659521888.742388,9719
1659521888.78335,9609
1659521888.827726,9540
1659521888.872101,9502
1659521888.916477,9520
1659521888.955391,9546
1659521888.994305,9557
1659521889.033219,9568
1659521889.074181,9583
1659521889.115143,9639
1659521889.154057,9713
1659521889.192971,9787
1659521889.231885,9858
1659521889.273359,9935
1659521889.314833,9997
1659521889.353405,10060
1659521889.391978,10112
1659521889.430551,10185
1659521889.469465,10256
1659521889.508379,10333
1659521889.547292,10364
1659521889.590303,10245
1659521889.633313,10019
1659521889.672227,9829
1659521889.711141,9748
1659521889.750055,9699
1659521889.791017,9674
1659521889.831979,9716
1659521889.871575,9748
1659521889.911172,9774
1659521889.950769,9788
1659521889.989,9813
1659521890.027231,9863
1659521890.065462,9930
1659521890.107449,9984
1659521890.149435,10059
1659521890.190909,10113
1659521890.232383,10172
1659521890.270955,10234
1659521890.309528,10299
1659521890.3481,10360
1659521890.391793,10420
1659521890.435486,10426
1659521890.479179,10276
1659521890.513485,10063
1659521890.547791,9949
1659521890.591825,9903
1659521890.635859,9891
1659521890.679893,9903
1659521890.718466,9940
1659521890.757038,9950
1659521890.795611,9954
1659521890.833245,9967
1659521890.870879,9994
1659521890.908513,10050
1659521890.946146,10106
1659521890.990181,10176
1659521891.034215,10236
1659521891.078249,10293
1659521891.117504,10336
1659521891.15676,10384
1659521891.196015,10428
1659521891.236977,10489
1659521891.277939,10552
1659521891.31617,10546
1659521891.354402,10394
1659521891.392633,10134
1659521891.431205,9968
1659521891.469778,9878
1659521891.508351,9813
1659521891.550849,9772
1659521891.593347,9764
1659521891.631578,9762
1659521891.669809,9736
1659521891.70804,9726
1659521891.749515,9728
1659521891.790989,9774
1659521891.829903,9837
1659521891.868817,9893
1659521891.907731,9962
1659521891.952106,10023
1659521891.996482,10084
1659521892.040857,10141
1659521892.074651,10202
1659521892.108444,10256
1659521892.153503,10325
1659521892.198561,10391
1659521892.243619,10403
1659521892.280741,10255
1659521892.317863,9993
1659521892.354985,9775
1659521892.392107,9646
1659521892.433581,9555
1659521892.475055,9511
1659521892.513969,9526
1659521892.552883,9531
1659521892.591797,9525
1659521892.633271,9528
1659521892.674745,9538
1659521892.713317,9573
1659521892.75189,9623
1659521892.790463,9676
1659521892.83518,9735
1659521892.879896,9798
1659521892.924613,9856
1659521892.957895,9917
1659521892.991177,9977
1659521893.035552,10029
1659521893.079928,10094
1659521893.124303,10156
1659521893.166801,10211
1659521893.2093,10134
1659521893.248214,9910
1659521893.287127,9702
1659521893.326041,9596
1659521893.364614,9546
1659521893.403187,9524
1659521893.441759,9560
1659521893.483233,9592
1659521893.524707,9583
1659521893.56328,9580
1659521893.601853,9588
1659521893.640425,9626
1659521893.682411,9682
1659521893.724397,9727
1659521893.763311,9789
1659521893.802225,9856
1659521893.841139,9911
1659521893.87937,9970
1659521893.917602,10035
1659521893.955833,10098
1659521893.996795,10161
1659521894.037757,10232
1659521894.077695,10286
1659521894.117633,10224
1659521894.157571,9994
1659521894.198533,9727
1659521894.239495,9576
1659521894.277726,9475
1659521894.315958,9410
1659521894.354189,9405
1659521894.396175,9441
1659521894.438161,9457
1659521894.477416,9454
1659521894.516672,9460
1659521894.555927,9490
1659521894.59962,9552
1659521894.643313,9604
1659521894.687006,9653
1659521894.72848,9710
1659521894.769954,9749
1659521894.808868,9787
1659521894.847782,9824
1659521894.886696,9874
1659521894.924585,9925
1659521894.962475,9989
1659521895.000365,10035
1659521895.043375,10101
1659521895.086385,10122
1659521895.125299,9944
1659521895.164213,9648
1659521895.203127,9418
1659521895.242041,9295
1659521895.280955,9225
1659521895.319869,9192
1659521895.361855,9219
1659521895.403841,9255
1659521895.443097,9273
1659521895.482352,9274
1659521895.521607,9312
1659521895.563081,9362
1659521895.604555,9435
1659521895.643469,9503
1659521895.682383,9577
1659521895.721297,9636
1659521895.762771,9699
1659521895.804245,9762
1659521895.842477,9826
1659521895.880708,9903
1659521895.918939,9952
1659521895.960925,10019
1659521896.002911,10082
1659521896.042849,10064
1659521896.082787,9867
1659521896.122725,9619
1659521896.162663,9476
1659521896.202601,9434
1659521896.247318,9428
1659521896.292035,9452
1659521896.336752,9501
1659521896.376007,9515
1659521896.415263,9501
1659521896.454518,9512
1659521896.495992,9553
1659521896.537466,9608
1659521896.57638,9672
1659521896.615294,9744
1659521896.654208,9806
1659521896.693122,9876
1659521896.732036,9941
1659521896.77095,10004
1659521896.8114,10064
1659521896.85185,10145
1659521896.890422,10222
1659521896.928995,10285
1659521896.967568,10236
1659521897.010066,10022
1659521897.052564,9795
1659521897.091136,9658
1659521897.129709,9583
1659521897.168282,9529
1659521897.206513,9522
1659521897.244744,9548
1659521897.282975,9574
1659521897.32445,9561
1659521897.365924,9579
1659521897.40791,9623
1659521897.449896,9671
1659521897.48881,9737
1659521897.527724,9802
1659521897.566638,9871
1659521897.611355,9933
1659521897.656071,10007
1659521897.700788,10076
1659521897.73407,10143
1659521897.767352,10221
1659521897.811044,10283
1659521897.854737,10375
1659521897.89843,10406
1659521897.931712,10294
1659521897.964993,10068
1659521898.009369,9892
1659521898.053745,9802
1659521898.09812,9752
1659521898.136693,9736
1659521898.175265,9759
1659521898.213838,9804
1659521898.2548,9794
1659521898.295762,9797
1659521898.335359,9824
1659521898.374955,9872
1659521898.414552,9927
1659521898.453125,9980
1659521898.491697,10045
1659521898.53027,10108
1659521898.571744,10179
1659521898.613218,10239
1659521898.652815,10306
1659521898.692411,10379
1659521898.732008,10449
1659521898.773994,10517
1659521898.81598,10571
1659521898.854553,10490
1659521898.893125,10268
1659521898.931698,10101
1659521898.973684,10025
1659521899.01567,9999
1659521899.054243,10012
1659521899.092815,10050
1659521899.131388,10071
1659521899.172862,10073
1659521899.214336,10070
1659521899.253591,10087
1659521899.292847,10145
1659521899.332102,10201
1659521899.373064,10258
1659521899.414026,10328
1659521899.452599,10380
1659521899.491171,10449
1659521899.529744,10497
1659521899.574802,10546
1659521899.61986,10607
1659521899.664919,10663
1659521899.706905,10728
1659521899.748891,10734
1659521899.787122,10563
1659521899.825353,10296
1659521899.863585,10095
1659521899.905571,9976
1659521899.947557,9886
1659521899.986471,9840
1659521900.025385,9844
1659521900.064299,9853
1659521900.102188,9841
1659521900.140078,9831
1659521900.177968,9837
1659521900.220466,9860
1659521900.262964,9901
1659521900.301537,9947
1659521900.34011,10013
1659521900.378682,10069
1659521900.416914,10123
1659521900.455145,10185
1659521900.493376,10232
1659521900.534338,10288
1659521900.5753,10348
1659521900.614214,10400
1659521900.653128,10456
1659521900.692042,10442
1659521900.733516,10234
1659521900.77499,9983
1659521900.813904,9829
1659521900.852818,9723
1659521900.891732,9662
1659521900.933718,9633
1659521900.975704,9648
1659521901.014277,9660
1659521901.052849,9666
1659521901.091422,9681
1659521901.133408,9713
1659521901.175394,9775
1659521901.220111,9850
1659521901.264828,9936
1659521901.309545,10005
1659521901.349073,10050
1659521901.388602,10088
1659521901.42813,10125
1659521901.467658,10176
1659521901.507187,10215
1659521901.546101,10270
1659521901.585015,10335
1659521901.623929,10394
1659521901.665403,10403
1659521901.706877,10246
1659521901.745791,10007
1659521901.784705,9840
1659521901.823618,9771
1659521901.865605,9740
1659521901.907591,9743
1659521901.946505,9748
1659521901.985419,9741
1659521902.024333,9724
1659521902.063588,9731
1659521902.102843,9766
1659521902.142098,9811
1659521902.184085,9873
1659521902.226071,9938
1659521902.264643,9986
1659521902.303216,10039
1659521902.341789,10086
1659521902.382751,10151
1659521902.423712,10207
1659521902.462968,10279
1659521902.502223,10323
1659521902.541478,10247
1659521902.582952,10027
1659521902.624427,9807
1659521902.662999,9670
1659521902.701572,9589
1659521902.740144,9534
1659521902.781618,9518
1659521902.823092,9546
1659521902.86303,9556
1659521902.902968,9531
1659521902.942907,9544
1659521902.986941,9571
1659521903.030975,9635
1659521903.075009,9676
1659521903.107779,9733
1659521903.140548,9788
1659521903.185265,9850
1659521903.229982,9906
1659521903.274699,9964
1659521903.308493,10038
1659521903.342287,10106
1659521903.386321,10132
1659521903.430355,9984
1659521903.474389,9753
1659521903.512962,9585
1659521903.551534,9477
1659521903.590107,9408
1659521903.631069,9381
1659521903.672031,9404
1659521903.709921,9416
1659521903.747811,9437
1659521903.785701,9422
1659521903.824956,9445
1659521903.864211,9491
1659521903.903466,9544
1659521903.944941,9596
1659521903.986415,9660
1659521904.024987,9714
1659521904.06356,9767
1659521904.102133,9819
1659521904.144631,9873
1659521904.187129,9933
1659521904.225701,9998
1659521904.264274,10031
1659521904.302846,9937
1659521904.344321,9712
1659521904.385795,9520
1659521904.425391,9396
1659521904.464988,9311
1659521904.504585,9265
1659521904.54896,9284
1659521904.593336,9311
1659521904.637711,9319
1659521904.669969,9342
1659521904.702227,9383
1659521904.746943,9460
1659521904.79166,9537
1659521904.836377,9604
1659521904.878875,9670
1659521904.921373,9748
1659521904.959263,9825
1659521904.997153,9894
1659521905.035043,9965
1659521905.07464,10022
1659521905.114236,10078
1659521905.153833,10097
1659521905.195307,9996
1659521905.236781,9686
1659521905.275695,9406
1659521905.314609,9317
1659521905.353523,9288
1659521905.396021,9332
1659521905.438519,9398
1659521905.477775,9426
1659521905.51703,9453
1659521905.556285,9458
1659521905.594517,9488
1659521905.632748,9534
1659521905.670979,9594
1659521905.712453,9650
1659521905.753927,9706
1659521905.793182,9754
1659521905.832438,9791
1659521905.871693,9838
1659521905.912143,9876
1659521905.952593,9934
1659521905.991166,9951
1659521906.029738,9881
1659521906.068311,9630
1659521906.110297,9349
1659521906.152283,9150
1659521906.191197,9006
1659521906.230111,8927
1659521906.269025,8910
1659521906.310499,8951
1659521906.351973,8955
1659521906.396349,8952
1659521906.440724,8966
1659521906.4851,8991
1659521906.523843,9024
1659521906.562586,9041
1659521906.60133,9042
1659521906.640073,9039
1659521906.678816,9046
1659521906.717559,9044
1659521906.756132,9066
1659521906.794704,9087
1659521906.833277,9109
1659521906.87185,9117
