LocalTimestamp,PG
1659431083.512377,11116
1659431083.553387,11358
1659431083.592005,11518
1659431083.630623,11639
1659431083.669241,11764
1659431083.707517,11912
1659431083.745793,12051
1659431083.784069,12213
1659431083.826617,12398
1659431083.869165,12669
1659431083.907783,13100
1659431083.946401,13489
1659431083.985018,13730
1659431084.026029,13841
1659431084.067039,13816
1659431084.106682,13773
1659431084.146325,13768
1659431084.185968,13796
1659431084.227491,13834
1659431084.269014,13864
1659431084.30729,13791
1659431084.345566,13711
1659431084.383842,13650
1659431084.425877,13540
1659431084.467913,13498
1659431084.506531,13446
1659431084.545148,13384
1659431084.583766,13345
1659431084.627852,13327
1659431084.671938,13344
1659431084.716024,13409
1659431084.75037,13477
1659431084.784716,13531
1659431084.828802,13577
1659431084.872887,13580
1659431084.916973,13557
1659431084.955591,13535
1659431084.994209,13511
1659431085.032827,13465
1659431085.075375,13425
1659431085.117923,13397
1659431085.156883,13371
1659431085.195842,13397
1659431085.234802,13434
1659431085.276324,13499
1659431085.317847,13567
1659431085.35749,13603
1659431085.397133,13646
1659431085.436776,13696
1659431085.477787,13756
1659431085.518797,13813
1659431085.557073,13852
1659431085.595349,13885
1659431085.633625,13925
1659431085.672585,13979
1659431085.711544,14029
1659431085.750504,14084
1659431085.793052,14134
1659431085.8356,14178
1659431085.873876,14226
1659431085.912152,14271
1659431085.950428,14312
1659431085.991438,14347
1659431086.032448,14390
1659431086.07175,14424
1659431086.111051,14470
1659431086.150352,14490
1659431086.191875,14513
1659431086.233398,14548
1659431086.278167,14550
1659431086.322937,14557
1659431086.367706,14556
1659431086.401027,14570
1659431086.434347,14609
1659431086.478433,14668
1659431086.522519,14733
1659431086.566605,14788
1659431086.605223,14849
1659431086.643841,14909
1659431086.682458,14938
1659431086.724494,14958
1659431086.766529,14992
1659431086.804805,15006
1659431086.843081,15056
1659431086.881357,15070
1659431086.919975,15080
1659431086.958593,15082
1659431086.997211,15087
1659431087.038734,15103
1659431087.080256,15093
1659431087.119216,15081
1659431087.158176,15059
1659431087.197135,15027
1659431087.238145,15023
1659431087.279155,15005
1659431087.318115,15018
1659431087.357075,15024
1659431087.396034,15045
1659431087.435336,15048
1659431087.474637,15046
1659431087.513938,15054
1659431087.555461,15078
1659431087.596984,15079
1659431087.636285,15082
1659431087.675587,15080
1659431087.714888,15075
1659431087.756411,15088
1659431087.797933,15076
1659431087.841677,15070
1659431087.885422,15088
1659431087.929166,15070
1659431087.968125,15035
1659431088.007085,15006
1659431088.046045,14981
1659431088.08808,14952
1659431088.130115,14928
1659431088.168733,14901
1659431088.207351,14882
1659431088.245969,14861
1659431088.288004,14842
1659431088.33004,14807
1659431088.369341,14797
1659431088.408642,14769
1659431088.447944,14744
1659431088.486562,14735
1659431088.525179,14708
1659431088.563797,14694
1659431088.605833,14675
1659431088.647868,14668
1659431088.687511,14652
1659431088.727154,14638
1659431088.766797,14587
1659431088.807295,14538
1659431088.847792,14498
1659431088.886068,14466
1659431088.924344,14430
1659431088.96262,14397
1659431089.00158,14376
1659431089.04054,14348
1659431089.079499,14323
1659431089.121022,14291
1659431089.162545,14281
1659431089.203042,14253
1659431089.24354,14241
1659431089.282841,14224
1659431089.322142,14199
1659431089.361444,14186
1659431089.40553,14165
1659431089.449615,14160
1659431089.493701,14136
1659431089.527022,14074
1659431089.560343,14026
1659431089.605112,13970
1659431089.649882,13930
1659431089.694651,13895
1659431089.727459,13854
1659431089.760267,13838
1659431089.804353,13831
1659431089.848439,13816
1659431089.892525,13799
1659431089.931826,13790
1659431089.971128,13767
1659431090.010429,13769
1659431090.051951,13743
1659431090.093474,13741
1659431090.131409,13738
1659431090.169343,13739
1659431090.207277,13744
1659431090.246579,13757
1659431090.28588,13760
1659431090.325181,13725
1659431090.366191,13718
1659431090.407202,13710
1659431090.446161,13700
1659431090.485121,13703
1659431090.52408,13702
1659431090.566116,13724
1659431090.608151,13764
1659431090.646769,13813
1659431090.685387,13861
1659431090.724005,13918
1659431090.765015,13974
1659431090.806025,14038
1659431090.845668,14093
1659431090.885311,14149
1659431090.924954,14195
1659431090.96699,14221
1659431091.009025,14254
1659431091.047301,14288
1659431091.085577,14326
1659431091.123853,14351
1659431091.168622,14343
1659431091.213392,14337
1659431091.258161,14333
1659431091.291482,14345
1659431091.324803,14330
1659431091.368889,14331
1659431091.412975,14351
1659431091.45706,14366
1659431091.498583,14369
1659431091.540106,14377
1659431091.579407,14397
1659431091.618709,14408
1659431091.65801,14437
1659431091.696628,14434
1659431091.735245,14455
1659431091.773864,14476
1659431091.812823,14501
1659431091.851783,14516
1659431091.890742,14533
1659431091.930044,14548
1659431091.969345,14540
1659431092.008646,14524
1659431092.05239,14507
1659431092.096134,14519
1659431092.139879,14529
1659431092.173712,14548
1659431092.207545,14574
1659431092.251631,14594
1659431092.295717,14613
1659431092.339803,14630
1659431092.378421,14661
1659431092.417039,14684
1659431092.455657,14706
1659431092.496667,14745
1659431092.537677,14765
1659431092.576978,14789
1659431092.616279,14825
1659431092.655581,14839
1659431092.696078,14859
1659431092.736576,14888
1659431092.775535,14912
1659431092.814495,14914
1659431092.853455,14899
1659431092.892756,14896
1659431092.932057,14885
1659431092.971359,14892
1659431093.012881,14899
1659431093.054404,14901
1659431093.09268,14921
1659431093.130956,14931
1659431093.169232,14934
1659431093.211268,14948
1659431093.253303,14959
1659431093.291579,14967
1659431093.329855,14986
1659431093.368131,14993
1659431093.409654,14993
1659431093.451177,15015
1659431093.490478,15030
1659431093.52978,15061
1659431093.569081,15060
1659431093.613167,15073
1659431093.657253,15095
1659431093.701339,15089
1659431093.741836,15075
1659431093.782334,15042
1659431093.821977,15037
1659431093.86162,15031
1659431093.901263,15016
1659431093.943298,14993
1659431093.985333,14990
1659431094.023951,14977
1659431094.062569,14971
1659431094.101187,14958
1659431094.14083,14949
1659431094.180473,14953
1659431094.220116,14933
1659431094.261639,14944
1659431094.303162,14932
1659431094.341096,14919
1659431094.37903,14911
1659431094.416965,14910
1659431094.460026,14904
1659431094.503086,14892
1659431094.541704,14892
1659431094.580322,14847
1659431094.61894,14808
1659431094.657557,14769
1659431094.696175,14739
1659431094.734793,14716
1659431094.775803,14693
1659431094.816813,14689
1659431094.855431,14651
1659431094.894049,14631
1659431094.932667,14623
1659431094.97419,14623
1659431095.015712,14624
1659431095.055014,14620
1659431095.094315,14632
1659431095.133617,14632
1659431095.175139,14655
1659431095.216662,14665
1659431095.260748,14679
1659431095.304834,14692
1659431095.34892,14704
1659431095.387879,14725
1659431095.426839,14700
1659431095.465798,14672
1659431095.507834,14648
1659431095.549869,14638
1659431095.587804,14612
1659431095.625738,14597
1659431095.663672,14607
1659431095.705195,14586
1659431095.746718,14583
1659431095.785336,14577
1659431095.823953,14573
1659431095.862571,14566
1659431095.901531,14567
1659431095.94049,14563
1659431095.97945,14568
1659431096.019948,14564
1659431096.060445,14559
1659431096.099746,14554
1659431096.139048,14557
1659431096.178349,14555
1659431096.216967,14552
1659431096.255585,14551
1659431096.294203,14522
1659431096.336238,14473
1659431096.378273,14448
1659431096.417233,14419
1659431096.456192,14403
1659431096.495152,14365
1659431096.536675,14350
1659431096.578198,14343
1659431096.618695,14313
1659431096.659193,14303
1659431096.698836,14292
1659431096.738479,14283
1659431096.778122,14275
1659431096.822208,14279
1659431096.866294,14268
1659431096.910379,14264
1659431096.943188,14272
1659431096.975996,14276
1659431097.01786,14289
1659431097.059725,14290
1659431097.101589,14280
1659431097.143454,14247
1659431097.185318,14226
1659431097.227183,14208
1659431097.2658,14179
1659431097.304418,14172
1659431097.343036,14163
1659431097.382338,14144
1659431097.421639,14136
1659431097.46094,14136
1659431097.502975,14134
1659431097.545011,14135
1659431097.583971,14137
1659431097.62293,14143
1659431097.66189,14154
1659431097.7029,14161
1659431097.74391,14173
1659431097.78287,14181
1659431097.821829,14187
1659431097.860789,14202
1659431097.902312,14187
1659431097.943834,14160
1659431097.982794,14130
1659431098.021754,14110
1659431098.060713,14089
1659431098.104799,14055
1659431098.148885,14043
1659431098.192971,14039
1659431098.234493,14025
1659431098.276016,14015
1659431098.314976,14007
1659431098.353935,13997
1659431098.392895,13997
1659431098.435443,13983
1659431098.477991,13984
1659431098.516609,13985
1659431098.555227,13995
1659431098.593844,13990
1659431098.632804,14003
1659431098.671764,14018
1659431098.710723,14028
1659431098.752246,14028
1659431098.793769,13992
1659431098.832386,13953
1659431098.871004,13923
1659431098.909622,13902
1659431098.94824,13883
1659431098.986858,13878
1659431099.025476,13865
1659431099.066486,13859
1659431099.107496,13835
1659431099.14543,13839
1659431099.183365,13835
1659431099.221299,13824
1659431099.263847,13827
1659431099.306395,13820
1659431099.345013,13831
1659431099.383631,13829
1659431099.422249,13841
1659431099.463771,13847
1659431099.505294,13854
1659431099.549722,13867
1659431099.594149,13871
1659431099.638577,13843
1659431099.672923,13804
1659431099.707269,13786
1659431099.751697,13772
1659431099.796124,13766
1659431099.840552,13768
1659431099.879511,13770
1659431099.918471,13776
1659431099.957431,13777
1659431099.999466,13791
1659431100.041501,13790
1659431100.079777,13803
1659431100.118053,13814
1659431100.15633,13834
1659431100.197852,13847
1659431100.239375,13876
1659431100.278677,13893
1659431100.317978,13923
1659431100.357279,13950
1659431100.395555,13960
1659431100.433831,13970
1659431100.472107,13945
1659431100.514143,13916
1659431100.556178,13901
1659431100.595138,13875
1659431100.634097,13873
1659431100.673057,13863
1659431100.715092,13876
1659431100.757128,13869
1659431100.795746,13874
1659431100.834363,13884
1659431100.872981,13884
1659431100.912283,13891
1659431100.951584,13902
1659431100.990885,13909
1659431101.031895,13917
1659431101.072906,13947
1659431101.114941,13949
1659431101.156976,13962
1659431101.195594,13986
1659431101.234212,13988
1659431101.27283,14014
1659431101.317257,14013
1659431101.361685,13976
1659431101.406113,13938
1659431101.438408,13909
1659431101.470704,13877
1659431101.515473,13847
1659431101.560242,13834
1659431101.605012,13824
1659431101.638332,13812
1659431101.671653,13796
1659431101.716081,13777
1659431101.760508,13781
1659431101.804936,13767
1659431101.843554,13761
1659431101.882172,13763
1659431101.920789,13765
1659431101.962825,13769
1659431102.00486,13777
1659431102.043136,13779
1659431102.081412,13785
1659431102.119689,13806
1659431102.161724,13816
1659431102.203759,13834
1659431102.242377,13823
1659431102.280995,13790
1659431102.319613,13766
1659431102.360879,13762
1659431102.402146,13748
1659431102.443412,13738
1659431102.484679,13753
1659431102.526201,13748
1659431102.567724,13751
1659431102.606342,13746
1659431102.64496,13759
1659431102.683578,13759
1659431102.725613,13769
1659431102.767648,13772
1659431102.80695,13770
1659431102.846251,13788
1659431102.885552,13792
1659431102.924854,13802
1659431102.964155,13806
1659431103.003456,13809
1659431103.044466,13818
1659431103.085477,13840
1659431103.124436,13832
1659431103.163396,13793
1659431103.202355,13766
1659431103.241657,13742
1659431103.280958,13722
1659431103.32026,13710
1659431103.361782,13693
1659431103.403305,13704
1659431103.441581,13701
1659431103.479857,13696
1659431103.518133,13693
1659431103.560169,13705
1659431103.602204,13700
1659431103.640822,13713
1659431103.67944,13709
1659431103.718057,13709
1659431103.75958,13719
1659431103.801103,13729
1659431103.840746,13730
1659431103.880389,13738
1659431103.920032,13746
1659431103.961555,13750
1659431104.003078,13759
1659431104.047505,13742
1659431104.091933,13693
1659431104.136361,13652
1659431104.170194,13611
1659431104.204027,13589
1659431104.248797,13550
1659431104.293566,13530
1659431104.338336,13515
1659431104.37627,13493
1659431104.414204,13480
1659431104.452138,13464
1659431104.493661,13452
1659431104.535184,13446
1659431104.573802,13441
1659431104.61242,13437
1659431104.651037,13449
1659431104.689655,13458
1659431104.728273,13465
1659431104.766891,13481
1659431104.808414,13488
1659431104.849936,13510
1659431104.888554,13531
1659431104.927172,13513
1659431104.96579,13472
1659431105.0068,13453
1659431105.04781,13455
1659431105.087453,13436
1659431105.127096,13427
1659431105.16674,13418
1659431105.205699,13410
1659431105.244659,13405
1659431105.283618,13409
1659431105.324629,13409
1659431105.365638,13403
1659431105.407674,13423
1659431105.449709,13423
1659431105.489352,13438
1659431105.528996,13450
1659431105.568639,13472
1659431105.612383,13488
1659431105.656127,13515
1659431105.699871,13542
1659431105.733192,13571
1659431105.766512,13577
1659431105.81094,13537
1659431105.855368,13512
1659431105.899795,13497
1659431105.933629,13473
1659431105.967462,13462
1659431106.011548,13456
1659431106.055634,13455
1659431106.09972,13448
1659431106.139021,13445
1659431106.178322,13439
1659431106.217624,13444
1659431106.258634,13427
1659431106.299644,13426
1659431106.338603,13433
1659431106.377563,13430
1659431106.416523,13437
1659431106.459071,13432
1659431106.501619,13436
1659431106.540236,13437
1659431106.578854,13439
1659431106.617472,13439
1659431106.65609,13410
1659431106.694708,13358
1659431106.733326,13302
1659431106.774848,13260
1659431106.816371,13213
1659431106.854989,13156
1659431106.893607,13107
1659431106.932225,13080
1659431106.97426,13055
1659431107.016295,13017
1659431107.054913,13021
1659431107.093531,13026
1659431107.132149,13026
1659431107.174184,13038
1659431107.21622,13055
1659431107.254838,13084
1659431107.293455,13114
1659431107.332073,13119
1659431107.374109,13143
1659431107.416144,13199
1659431107.455445,13230
1659431107.494747,13250
1659431107.534048,13250
1659431107.575315,13233
1659431107.616581,13251
1659431107.657847,13247
1659431107.699114,13246
1659431107.740124,13252
1659431107.781134,13250
1659431107.820094,13238
1659431107.859053,13233
1659431107.898013,13235
1659431107.935947,13239
1659431107.973881,13245
1659431108.011816,13253
1659431108.054364,13267
1659431108.096912,13283
1659431108.13553,13270
1659431108.174148,13287
1659431108.212765,13301
1659431108.253776,13302
1659431108.294785,13251
1659431108.333745,13193
1659431108.372705,13128
1659431108.411664,13052
1659431108.454212,12989
1659431108.49676,12952
1659431108.540846,12913
1659431108.584932,12906
1659431108.629018,12882
1659431108.667978,12863
1659431108.706937,12842
1659431108.745897,12817
1659431108.78742,12795
1659431108.828942,12799
1659431108.867218,12781
1659431108.905494,12789
1659431108.943771,12813
1659431108.985806,12844
1659431109.027841,12878
1659431109.067143,12910
1659431109.106444,12919
1659431109.145745,12891
1659431109.18368,12821
1659431109.221614,12742
1659431109.259548,12688
1659431109.300559,12661
1659431109.341569,12624
1659431109.381212,12613
1659431109.420855,12610
1659431109.460498,12581
1659431109.502362,12570
1659431109.544227,12563
1659431109.586091,12547
1659431109.627956,12549
1659431109.66982,12557
1659431109.711685,12554
1659431109.745518,12575
1659431109.779351,12583
1659431109.823437,12594
1659431109.867523,12612
1659431109.911609,12614
1659431109.952619,12590
1659431109.993629,12541
1659431110.032931,12506
1659431110.072232,12463
1659431110.111533,12432
1659431110.150151,12402
1659431110.188769,12390
1659431110.227387,12386
1659431110.26891,12367
1659431110.310432,12351
1659431110.34905,12350
1659431110.387668,12327
1659431110.426286,12316
1659431110.464904,12318
1659431110.503522,12324
1659431110.54214,12325
1659431110.583662,12344
1659431110.625185,12353
1659431110.664145,12371
1659431110.703104,12391
1659431110.742064,12366
1659431110.783074,12339
1659431110.824084,12331
1659431110.863044,12323
1659431110.902003,12325
1659431110.940963,12340
1659431110.982998,12351
1659431111.025033,12371
1659431111.063651,12398
1659431111.102269,12411
1659431111.140887,12438
1659431111.181385,12458
1659431111.221882,12490
1659431111.2605,12523
1659431111.299118,12558
1659431111.337736,12598
1659431111.381822,12635
1659431111.425907,12677
1659431111.469993,12711
1659431111.512029,12736
1659431111.554064,12745
1659431111.593365,12755
1659431111.632667,12777
1659431111.671968,12818
1659431111.713491,12843
1659431111.755013,12870
1659431111.793631,12896
1659431111.832249,12909
1659431111.870867,12938
1659431111.908801,12975
1659431111.946736,12994
1659431111.98467,13033
1659431112.022604,13039
1659431112.064127,13057
1659431112.10565,13097
1659431112.149394,13118
1659431112.193138,13146
1659431112.236882,13171
1659431112.270716,13200
1659431112.304549,13232
1659431112.348635,13241
1659431112.392721,13225
1659431112.436806,13220
1659431112.475424,13229
1659431112.514042,13233
1659431112.55266,13227
1659431112.594183,13241
1659431112.635705,13260
1659431112.675007,13261
1659431112.714308,13281
1659431112.75361,13286
1659431112.792569,13296
1659431112.831529,13306
1659431112.870488,13318
1659431112.90979,13329
1659431112.949091,13350
1659431112.988393,13377
1659431113.032478,13389
1659431113.076564,13411
1659431113.12065,13435
1659431113.153458,13442
1659431113.186266,13441
1659431113.230694,13426
1659431113.275121,13430
1659431113.319549,13431
1659431113.353383,13427
1659431113.387216,13439
1659431113.43096,13455
1659431113.474704,13470
1659431113.518448,13480
1659431113.557408,13503
1659431113.596367,13518
1659431113.635327,13535
1659431113.676337,13553
1659431113.717347,13570
1659431113.755623,13606
1659431113.793899,13634
1659431113.832175,13674
1659431113.871819,13705
1659431113.911462,13729
1659431113.951105,13725
1659431113.992115,13727
1659431114.033125,13703
1659431114.071401,13686
1659431114.109677,13659
1659431114.147953,13640
1659431114.189989,13632
1659431114.232024,13630
1659431114.273547,13635
1659431114.315069,13624
1659431114.356592,13613
1659431114.398115,13599
1659431114.439638,13608
1659431114.48116,13636
1659431114.520462,13650
1659431114.559763,13650
1659431114.599065,13651
1659431114.637341,13645
1659431114.675617,13643
1659431114.713893,13663
1659431114.75439,13648
1659431114.794888,13614
1659431114.834531,13605
1659431114.874174,13615
1659431114.913817,13646
1659431114.955853,13669
1659431114.997888,13670
1659431115.036847,13676
1659431115.075807,13683
1659431115.114767,13682
1659431115.153726,13654
1659431115.192686,13642
1659431115.231645,13626
1659431115.273681,13610
1659431115.315716,13587
1659431115.353992,13580
1659431115.392268,13566
1659431115.430544,13558
1659431115.473093,13549
1659431115.51564,13561
1659431115.554258,13543
1659431115.592876,13501
1659431115.631494,13468
1659431115.672504,13466
1659431115.713514,13471
1659431115.752132,13456
1659431115.79075,13458
1659431115.829368,13456
1659431115.871916,13448
1659431115.914464,13442
1659431115.958549,13444
1659431116.002635,13439
1659431116.046721,13397
1659431116.086023,13377
1659431116.125324,13374
1659431116.164625,13389
1659431116.206661,13408
1659431116.248696,13425
1659431116.287314,13405
1659431116.325932,13411
1659431116.36455,13431
1659431116.406072,13434
1659431116.447595,13406
1659431116.486897,13410
1659431116.526198,13433
1659431116.565499,13442
1659431116.606766,13463
1659431116.648032,13488
1659431116.689298,13514
1659431116.730565,13516
1659431116.769183,13501
1659431116.807801,13492
1659431116.846418,13489
1659431116.885036,13495
1659431116.923654,13499
1659431116.962272,13515
1659431117.002769,13554
1659431117.043267,13597
1659431117.082227,13635
1659431117.121186,13662
1659431117.160146,13674
1659431117.202181,13662
1659431117.244216,13659
1659431117.283176,13676
1659431117.322136,13687
1659431117.361095,13691
1659431117.400055,13696
1659431117.439014,13692
1659431117.477974,13685
1659431117.52001,13680
1659431117.562045,13689
1659431117.601004,13683
1659431117.639964,13680
1659431117.678924,13671
1659431117.719934,13674
1659431117.760944,13670
1659431117.800245,13665
1659431117.839547,13671
1659431117.878848,13696
1659431117.919345,13713
1659431117.959843,13718
1659431118.003929,13683
1659431118.048015,13644
1659431118.092101,13547
1659431118.130035,13362
1659431118.167969,13244
1659431118.205904,13168
1659431118.243838,13120
1659431118.282114,13094
1659431118.32039,13065
1659431118.358666,13027
1659431118.401727,12960
1659431118.444788,12934
1659431118.483747,12898
1659431118.522707,12880
1659431118.561666,12885
1659431118.603189,12885
1659431118.644712,12877
1659431118.683671,12873
1659431118.722631,12839
1659431118.76159,12794
1659431118.80636,12760
1659431118.851129,12706
1659431118.895899,12646
1659431118.937421,12615
1659431118.978944,12579
1659431119.017562,12563
1659431119.05618,12541
1659431119.094798,12547
1659431119.136833,12552
1659431119.178868,12582
1659431119.216803,12578
1659431119.254737,12601
1659431119.292671,12632
1659431119.331973,12662
1659431119.371274,12665
1659431119.410575,12651
1659431119.452611,12648
1659431119.494646,12610
1659431119.532922,12568
1659431119.571198,12530
1659431119.609474,12494
1659431119.648434,12462
1659431119.687394,12430
1659431119.726353,12393
1659431119.768389,12374
1659431119.810424,12353
1659431119.8487,12325
1659431119.886976,12295
1659431119.925252,12267
1659431119.966262,12246
1659431120.007272,12247
1659431120.046232,12265
1659431120.085192,12295
1659431120.124151,12297
1659431120.165674,12301
1659431120.207197,12326
1659431120.251283,12340
1659431120.295369,12331
1659431120.339454,12330
1659431120.372775,12338
1659431120.406096,12379
1659431120.450523,12445
1659431120.494951,12477
1659431120.539379,12529
1659431120.578338,12569
1659431120.617298,12599
1659431120.656258,12620
1659431120.698806,12633
1659431120.741354,12662
1659431120.779971,12668
1659431120.818589,12683
1659431120.857207,12698
1659431120.899242,12732
1659431120.941278,12773
1659431120.979896,12796
1659431121.018513,12827
1659431121.057131,12830
1659431121.095749,12817
1659431121.134367,12815
1659431121.172985,12822
1659431121.21502,12826
1659431121.257056,12813
1659431121.298578,12807
1659431121.340101,12803
1659431121.381624,12809
1659431121.423146,12797
1659431121.462106,12799
1659431121.501066,12809
1659431121.540025,12820
1659431121.581548,12815
1659431121.623071,12823
1659431121.662372,12828
1659431121.701674,12816
1659431121.740975,12838
1659431121.779934,12831
1659431121.818894,12803
1659431121.857854,12772
1659431121.899889,12713
1659431121.941924,12675
1659431121.981226,12643
1659431122.020527,12626
1659431122.059829,12620
1659431122.101351,12608
1659431122.142874,12596
1659431122.18115,12600
1659431122.219426,12628
1659431122.257702,12658
1659431122.296662,12691
1659431122.335621,12717
1659431122.374581,12730
1659431122.416616,12735
1659431122.458652,12752
1659431122.499149,12764
1659431122.539647,12749
1659431122.577923,12740
1659431122.616199,12731
1659431122.654475,12740
1659431122.699244,12721
1659431122.744014,12675
1659431122.788783,12643
1659431122.822104,12633
1659431122.855425,12608
1659431122.899852,12572
1659431122.94428,12576
1659431122.988708,12568
1659431123.022541,12557
1659431123.056374,12567
1659431123.10046,12575
1659431123.144546,12598
1659431123.188632,12592
1659431123.22725,12588
1659431123.265867,12599
1659431123.304485,12620
1659431123.343445,12621
1659431123.382405,12624
1659431123.421364,12666
1659431123.462887,12688
1659431123.50441,12685
1659431123.543369,12688
1659431123.582329,12671
1659431123.621288,12675
1659431123.659906,12662
1659431123.698524,12671
1659431123.737142,12682
1659431123.778152,12690
1659431123.819162,12709
1659431123.858464,12719
1659431123.897765,12740
1659431123.937066,12738
1659431123.978589,12754
1659431124.020112,12761
1659431124.064539,12777
1659431124.108967,12808
1659431124.153394,12809
1659431124.186715,12815
1659431124.220036,12821
1659431124.264805,12836
1659431124.309575,12819
1659431124.354344,12795
1659431124.387665,12753
1659431124.420985,12729
1659431124.465071,12713
1659431124.509157,12717
1659431124.553243,12715
1659431124.592544,12723
1659431124.631846,12752
1659431124.671147,12753
1659431124.712157,12772
1659431124.753167,12803
1659431124.792469,12811
1659431124.83177,12842
1659431124.871071,12853
1659431124.913107,12869
1659431124.955142,12877
1659431124.99376,12886
1659431125.032378,12895
1659431125.070996,12921
1659431125.109614,12907
1659431125.148232,12878
1659431125.186849,12867
1659431125.229397,12852
1659431125.271945,12855
1659431125.310563,12851
1659431125.349181,12849
1659431125.387799,12832
1659431125.428809,12824
1659431125.469819,12837
1659431125.508437,12845
1659431125.547055,12842
1659431125.585673,12834
1659431125.627195,12840
1659431125.668718,12841
1659431125.706994,12854
1659431125.74527,12852
1659431125.783546,12847
1659431125.824556,12838
1659431125.865566,12842
1659431125.907218,12844
1659431125.948868,12785
1659431125.990519,12729
1659431126.03217,12651
1659431126.073821,12589
1659431126.115472,12552
1659431126.157123,12515
1659431126.198774,12493
1659431126.237562,12477
1659431126.276351,12474
1659431126.31514,12466
1659431126.353929,12465
1659431126.392717,12455
1659431126.431506,12460
1659431126.470466,12475
1659431126.509425,12483
1659431126.548385,12498
1659431126.587344,12471
1659431126.626304,12462
1659431126.665264,12471
1659431126.708666,12462
1659431126.752068,12462
1659431126.795471,12437
1659431126.829304,12391
1659431126.863137,12333
1659431126.907565,12291
1659431126.951993,12258
1659431126.99642,12223
1659431127.03743,12216
1659431127.07844,12208
1659431127.117742,12192
1659431127.157043,12177
1659431127.196345,12183
1659431127.235646,12180
1659431127.274947,12190
1659431127.314249,12176
1659431127.355771,12158
1659431127.397294,12140
1659431127.436254,12120
1659431127.475213,12103
1659431127.514173,12072
1659431127.556721,12080
1659431127.599269,12087
1659431127.637545,12087
1659431127.675821,12043
1659431127.714097,11956
1659431127.752715,11888
1659431127.791333,11830
1659431127.829951,11795
1659431127.873011,11739
1659431127.916072,11674
1659431127.954006,11631
1659431127.991941,11569
1659431128.029875,11533
1659431128.070373,11498
1659431128.11087,11497
1659431128.150513,11474
1659431128.190156,11462
1659431128.229799,11435
1659431128.271322,11426
1659431128.312845,11419
1659431128.357272,11405
1659431128.4017,11396
1659431128.446128,11376
1659431128.479448,11306
1659431128.512769,11216
1659431128.554292,11154
1659431128.595814,11091
1659431128.637337,11032
1659431128.67886,11009
1659431128.717478,10974
1659431128.756096,10931
1659431128.794713,10901
1659431128.836236,10898
1659431128.877759,10902
1659431128.916377,10916
1659431128.954995,10918
1659431128.993613,10959
1659431129.034623,11017
1659431129.075633,11044
1659431129.114251,11072
1659431129.152869,11124
1659431129.191486,11107
1659431129.232497,11067
1659431129.273507,11010
1659431129.312466,10951
1659431129.351426,10882
1659431129.390385,10836
1659431129.435497,10778
1659431129.480608,10764
1659431129.525719,10743
1659431129.558014,10748
1659431129.59031,10757
1659431129.634396,10774
1659431129.678481,10756
1659431129.722567,10747
1659431129.756913,10762
1659431129.791259,10747
1659431129.835687,10764
1659431129.880114,10776
1659431129.924542,10772
1659431129.96316,10780
1659431130.001778,10772
1659431130.040395,10724
1659431130.081918,10680
1659431130.123441,10659
1659431130.162059,10613
1659431130.200677,10584
1659431130.239295,10533
1659431130.277912,10490
1659431130.31653,10486
1659431130.355148,10461
1659431130.397696,10453
1659431130.440244,10451
1659431130.479204,10431
1659431130.518163,10428
1659431130.557123,10432
1659431130.598646,10449
1659431130.640168,10464
1659431130.67947,10478
1659431130.718771,10480
1659431130.758072,10473
1659431130.800108,10449
1659431130.842143,10449
1659431130.880761,10421
1659431130.919379,10402
1659431130.957997,10368
1659431130.999007,10320
1659431131.040017,10297
1659431131.078635,10267
1659431131.117253,10247
1659431131.15587,10219
1659431131.199956,10199
1659431131.244042,10181
1659431131.288128,10175
1659431131.330163,10179
1659431131.372199,10182
1659431131.410817,10192
1659431131.449435,10186
1659431131.488052,10209
1659431131.529063,10217
1659431131.570073,10228
1659431131.609032,10250
1659431131.647992,10272
1659431131.686951,10273
1659431131.725911,10264
1659431131.764871,10251
1659431131.80383,10223
1659431131.845865,10229
1659431131.887901,10211
1659431131.926861,10211
1659431131.96582,10219
1659431132.00478,10226
1659431132.045277,10225
1659431132.085775,10229
1659431132.124734,10242
1659431132.163694,10241
1659431132.202654,10250
1659431132.241271,10259
1659431132.279889,10256
1659431132.318507,10281
1659431132.36003,10296
1659431132.401553,10313
1659431132.440171,10317
1659431132.478788,10325
1659431132.517406,10334
1659431132.557904,10340
1659431132.598401,10325
1659431132.638044,10311
1659431132.677687,10315
1659431132.71733,10316
1659431132.759366,10314
1659431132.801401,10306
1659431132.845487,10304
1659431132.889573,10311
1659431132.933659,10307
1659431132.967492,10316
1659431133.001325,10316
1659431133.046095,10320
1659431133.090864,10313
1659431133.135633,10339
1659431133.174593,10326
1659431133.213553,10331
1659431133.252512,10341
1659431133.293522,10338
1659431133.334532,10337
1659431133.373834,10326
1659431133.413135,10354
1659431133.452437,10346
1659431133.490371,10320
1659431133.528305,10303
1659431133.56624,10272
1659431133.608788,10273
1659431133.651336,10250
1659431133.690295,10236
1659431133.729255,10228
1659431133.768214,10220
1659431133.806832,10210
1659431133.84545,10216
1659431133.884068,10216
1659431133.929179,10215
1659431133.97429,10225
1659431134.019401,10220
1659431134.052722,10237
1659431134.086043,10245
1659431134.130129,10247
1659431134.174215,10264
1659431134.2183,10267
1659431134.25726,10275
1659431134.29622,10288
1659431134.335179,10279
1659431134.377727,10264
1659431134.420275,10276
1659431134.45821,10252
1659431134.496144,10255
1659431134.534078,10277
1659431134.575601,10281
1659431134.617124,10295
1659431134.655741,10305
1659431134.694359,10328
1659431134.732977,10347
1659431134.771937,10366
1659431134.810896,10374
1659431134.849856,10387
1659431134.891379,10431
1659431134.932902,10443
1659431134.971861,10459
1659431135.010821,10472
1659431135.04978,10493
1659431135.090791,10521
1659431135.131801,10540
1659431135.171102,10548
1659431135.210403,10544
1659431135.249705,10574
1659431135.29174,10593
1659431135.333775,10618
1659431135.372393,10632
1659431135.411011,10642
1659431135.449629,10664
1659431135.490126,10690
1659431135.530624,10708
1659431135.569925,10727
1659431135.609226,10754
1659431135.648528,10777
1659431135.692614,10815
1659431135.7367,10842
1659431135.780786,10858
1659431135.822308,10887
1659431135.863831,10906
1659431135.902791,10919
1659431135.94175,10927
1659431135.98071,10944
1659431136.022233,10958
1659431136.063755,10954
1659431136.103057,10937
1659431136.142358,10917
1659431136.181659,10908
1659431136.220961,10882
1659431136.260262,10873
1659431136.299563,10871
1659431136.341086,10872
1659431136.382609,10877
1659431136.421568,10865
1659431136.460528,10868
1659431136.499488,10872
1659431136.542036,10887
1659431136.584584,10888
1659431136.623543,10899
1659431136.662503,10914
1659431136.701463,10920
1659431136.739738,10934
1659431136.778015,10974
1659431136.816291,11016
1659431136.857301,11039
1659431136.898311,11029
1659431136.937612,11004
1659431136.976914,10996
1659431137.016215,11004
1659431137.057738,11009
1659431137.099261,11028
1659431137.143688,11041
1659431137.188116,11041
1659431137.232543,11064
1659431137.266377,11093
1659431137.30021,11110
1659431137.343954,11136
1659431137.387698,11168
1659431137.431442,11191
1659431137.470402,11247
1659431137.509362,11286
1659431137.548321,11326
1659431137.590357,11375
1659431137.632392,11402
1659431137.67101,11444
1659431137.709628,11497
1659431137.748245,11524
1659431137.789256,11521
1659431137.830266,11526
1659431137.868884,11530
1659431137.907501,11535
1659431137.946119,11554
1659431137.984395,11558
1659431138.022671,11569
1659431138.060947,11584
1659431138.10247,11599
1659431138.143993,11615
1659431138.183636,11627
1659431138.223279,11637
1659431138.262922,11630
1659431138.301198,11645
1659431138.339474,11644
1659431138.377751,11644
1659431138.418761,11655
1659431138.459771,11665
1659431138.499756,11664
1659431138.539741,11671
1659431138.579726,11690
1659431138.621248,11681
1659431138.662771,11649
1659431138.703268,11617
1659431138.743766,11603
1659431138.783067,11601
1659431138.822369,11567
1659431138.86167,11555
1659431138.905756,11553
1659431138.949842,11559
1659431138.993927,11565
1659431139.031093,11580
1659431139.068258,11595
1659431139.105424,11599
1659431139.142589,11614
1659431139.185137,11643
1659431139.227685,11681
1659431139.265961,11708
1659431139.304237,11723
1659431139.342513,11753
1659431139.384549,11771
1659431139.426584,11818
1659431139.465885,11821
1659431139.505187,11819
1659431139.544488,11801
1659431139.586524,11791
1659431139.628559,11783
1659431139.667177,11770
1659431139.705795,11773
1659431139.744412,11766
1659431139.789524,11785
1659431139.834635,11785
1659431139.879746,11819
1659431139.912041,11834
1659431139.944337,11874
1659431139.988764,11885
1659431140.033192,11919
1659431140.07762,11967
1659431140.119655,12028
1659431140.16169,12066
1659431140.200308,12088
1659431140.238926,12127
1659431140.277544,12159
1659431140.31582,12192
1659431140.354096,12187
1659431140.392372,12171
1659431140.434407,12158
1659431140.476443,12136
1659431140.515061,12116
1659431140.553679,12096
1659431140.592296,12076
1659431140.634332,12076
1659431140.676367,12054
1659431140.715327,12033
1659431140.754286,12003
1659431140.793246,11987
1659431140.832206,11965
1659431140.871165,11959
1659431140.910125,11927
1659431140.950622,11913
1659431140.99112,11923
1659431141.030421,11910
1659431141.069722,11911
1659431141.109024,11908
1659431141.150034,11920
1659431141.191044,11911
1659431141.229662,11872
1659431141.26828,11838
1659431141.306898,11809
1659431141.347395,11810
1659431141.387892,11793
1659431141.427194,11782
1659431141.466495,11792
1659431141.505797,11798
1659431141.549882,11813
1659431141.593968,11828
1659431141.638054,11841
1659431141.679577,11849
1659431141.7211,11866
1659431141.760059,11894
1659431141.799019,11923
1659431141.837979,11959
1659431141.880014,11966
1659431141.922049,11963
1659431141.961009,11996
1659431141.999969,12012
1659431142.038928,11983
1659431142.078571,11958
1659431142.118214,11946
1659431142.157857,11921
1659431142.198868,11925
1659431142.239877,11901
1659431142.278154,11918
1659431142.31643,11915
1659431142.354706,11920
1659431142.397254,11929
1659431142.439802,11936
1659431142.478761,11939
1659431142.517721,11947
1659431142.556681,11955
1659431142.594615,11982
1659431142.632549,12013
1659431142.670484,12039
1659431142.713032,12074
1659431142.75558,12126
1659431142.794539,12162
1659431142.833499,12191
1659431142.872458,12197
1659431142.913981,12188
1659431142.955504,12171
1659431142.994805,12175
1659431143.034107,12176
1659431143.073408,12164
1659431143.114931,12175
1659431143.156454,12183
1659431143.200198,12163
1659431143.243942,12159
1659431143.287686,12157
1659431143.321519,12146
1659431143.355353,12132
1659431143.39978,12129
1659431143.444208,12109
1659431143.488635,12118
1659431143.52657,12112
1659431143.564504,12110
1659431143.602438,12125
1659431143.643449,12114
1659431143.684459,12124
1659431143.72376,12152
1659431143.763061,12145
1659431143.802363,12095
1659431143.840639,12053
1659431143.878915,12020
1659431143.917191,11999
1659431143.959739,11981
1659431144.002287,11978
1659431144.041247,11988
1659431144.080206,11979
1659431144.119166,11978
1659431144.160176,11999
1659431144.201186,12025
1659431144.239462,12040
1659431144.277738,12060
1659431144.316014,12081
1659431144.357793,12118
1659431144.399572,12169
1659431144.441351,12191
1659431144.48313,12216
1659431144.524653,12247
1659431144.566176,12261
1659431144.605136,12257
1659431144.644095,12209
1659431144.683055,12171
1659431144.724065,12116
1659431144.765075,12081
1659431144.803351,12038
1659431144.841627,12017
1659431144.879903,12012
1659431144.919205,11988
1659431144.958506,11968
1659431144.997807,11960
1659431145.040355,11957
1659431145.082903,11945
1659431145.121521,11954
1659431145.160139,11951
1659431145.198757,11966
1659431145.240792,12018
1659431145.282828,12078
1659431145.321445,12125
1659431145.360063,12180
1659431145.398681,12208
1659431145.441229,12235
1659431145.483777,12271
1659431145.522053,12299
1659431145.560329,12284
1659431145.598605,12228
1659431145.640128,12195
1659431145.681651,12168
1659431145.720269,12145
1659431145.758887,12101
1659431145.797504,12076
1659431145.84159,12075
1659431145.885676,12076
1659431145.929762,12073
1659431145.963595,12066
1659431145.997429,12042
1659431146.041856,12002
1659431146.086284,11992
1659431146.130712,11994
1659431146.172234,12008
1659431146.213757,12004
1659431146.253058,11978
1659431146.29236,11982
1659431146.331661,11978
1659431146.370279,11991
1659431146.408897,12016
1659431146.447515,12026
1659431146.48955,11986
1659431146.531585,11955
1659431146.570203,11941
1659431146.608821,11924
1659431146.647439,11927
1659431146.688962,11923
1659431146.730484,11947
1659431146.769273,11961
1659431146.808062,11977
1659431146.846851,12006
1659431146.885639,12019
1659431146.924428,12038
1659431146.963217,12050
1659431147.00474,12078
1659431147.046262,12101
1659431147.084538,12129
1659431147.122814,12163
1659431147.161091,12189
1659431147.202101,12213
1659431147.243111,12256
1659431147.282754,12306
1659431147.322397,12330
1659431147.36204,12318
1659431147.40305,12279
1659431147.44406,12255
1659431147.488488,12242
1659431147.532916,12223
1659431147.577343,12209
1659431147.616303,12187
1659431147.655262,12181
1659431147.694222,12184
1659431147.735232,12194
1659431147.776242,12205
1659431147.815202,12206
1659431147.854162,12229
1659431147.893121,12227
1659431147.935156,12250
1659431147.977192,12263
1659431148.015468,12270
1659431148.053744,12285
1659431148.09202,12308
1659431148.13098,12311
1659431148.169939,12317
1659431148.208899,12350
1659431148.25196,12355
1659431148.29502,12337
1659431148.333638,12263
1659431148.372256,12214
1659431148.410874,12184
1659431148.451884,12151
1659431148.492894,12137
1659431148.532537,12119
1659431148.57218,12118
1659431148.611823,12103
1659431148.650099,12103
1659431148.688375,12081
1659431148.726651,12054
1659431148.769199,12028
1659431148.811748,12017
1659431148.850365,12013
1659431148.888983,12006
1659431148.927601,11999
1659431148.968611,12001
1659431149.009621,12015
1659431149.053365,12026
1659431149.09711,12065
1659431149.140854,12100
1659431149.178788,12085
1659431149.216722,12059
1659431149.254657,12027
1659431149.292591,11980
1659431149.331209,11977
1659431149.369827,11997
1659431149.408445,12025
1659431149.45048,12030
1659431149.492515,12037
1659431149.531817,12045
1659431149.571118,12044
1659431149.610419,12044
1659431149.654505,12022
1659431149.698591,12018
1659431149.742677,12005
1659431149.784712,12003
1659431149.826748,12005
1659431149.865366,12009
1659431149.903983,12015
1659431149.942601,12028
1659431149.980877,12047
1659431150.019153,12028
1659431150.05743,11961
1659431150.098952,11893
1659431150.140475,11841
1659431150.179435,11821
1659431150.218394,11772
1659431150.257354,11720
1659431150.29563,11696
1659431150.333906,11683
1659431150.372182,11652
1659431150.413705,11642
1659431150.455228,11636
1659431150.494187,11628
1659431150.533147,11631
1659431150.572106,11613
1659431150.614142,11612
1659431150.656177,11629
1659431150.694795,11635
1659431150.733413,11641
1659431150.772031,11651
1659431150.814066,11664
1659431150.856101,11661
1659431150.895061,11678
1659431150.934021,11652
1659431150.97298,11586
1659431151.014503,11515
1659431151.056026,11470
1659431151.094985,11441
1659431151.133945,11409
1659431151.172904,11396
1659431151.217332,11383
1659431151.26176,11365
1659431151.306187,11344
1659431151.346685,11347
1659431151.387182,11339
1659431151.426484,11338
1659431151.465785,11322
1659431151.505086,11339
1659431151.542764,11351
1659431151.580442,11358
1659431151.61812,11383
1659431151.655798,11394
1659431151.697834,11419
1659431151.739869,11463
1659431151.779171,11484
1659431151.818472,11461
1659431151.857773,11434
1659431151.899809,11410
1659431151.941844,11415
1659431151.983367,11404
1659431152.024889,11412
1659431152.063849,11421
1659431152.102809,11426
1659431152.141768,11432
1659431152.185854,11436
1659431152.22994,11459
1659431152.274026,11464
1659431152.306321,11484
1659431152.338617,11516
1659431152.383044,11522
1659431152.427472,11556
1659431152.4719,11583
1659431152.510859,11590
1659431152.549819,11617
1659431152.588778,11643
1659431152.630301,11659
1659431152.671824,11625
1659431152.710783,11583
1659431152.749743,11557
1659431152.788703,11537
1659431152.830738,11522
1659431152.872773,11501
1659431152.91105,11509
1659431152.949326,11514
1659431152.987602,11501
1659431153.026561,11504
1659431153.065521,11514
1659431153.104481,11514
1659431153.146516,11513
1659431153.188551,11532
1659431153.226486,11544
1659431153.26442,11550
1659431153.302354,11562
1659431153.343877,11574
1659431153.3854,11582
1659431153.424018,11571
1659431153.462636,11608
1659431153.501253,11605
1659431153.543289,11561
1659431153.585324,11497
1659431153.623942,11441
1659431153.66256,11414
1659431153.701178,11372
1659431153.743213,11346
1659431153.785248,11328
1659431153.823866,11314
1659431153.862484,11297
1659431153.901102,11293
1659431153.945871,11288
1659431153.990641,11290
1659431154.03541,11301
1659431154.069756,11304
1659431154.104102,11346
1659431154.14853,11352
1659431154.192957,11369
1659431154.237385,11396
1659431154.277882,11415
1659431154.31838,11438
1659431154.357681,11470
1659431154.396982,11473
1659431154.436284,11429
1659431154.475243,11414
1659431154.514203,11410
1659431154.553163,11408
1659431154.594685,11426
1659431154.636208,11437
1659431154.674826,11440
1659431154.713444,11419
1659431154.752062,11407
1659431154.790679,11385
1659431154.829297,11391
1659431154.867915,11394
1659431154.90995,11396
1659431154.951986,11418
1659431154.994021,11419
1659431155.036057,11450
1659431155.078092,11442
1659431155.120127,11437
1659431155.158745,11459
1659431155.197363,11465
1659431155.235981,11463
1659431155.278016,11433
1659431155.320052,11396
1659431155.359011,11367
1659431155.397971,11374
1659431155.43693,11354
1659431155.475207,11354
1659431155.513483,11385
1659431155.551759,11382
1659431155.592769,11387
1659431155.633779,11392
1659431155.67308,11389
1659431155.712382,11401
1659431155.751683,11416
1659431155.792693,11429
1659431155.833703,11459
1659431155.871979,11485
1659431155.910255,11507
1659431155.948532,11513
1659431155.990054,11533
1659431156.031577,11527
1659431156.07122,11542
1659431156.110863,11565
1659431156.150506,11521
1659431156.191516,11435
1659431156.232527,11378
1659431156.271486,11348
1659431156.310446,11305
1659431156.349405,11272
1659431156.393833,11237
1659431156.438261,11241
1659431156.482688,11206
1659431156.523186,11181
1659431156.563683,11181
1659431156.602984,11176
1659431156.642286,11168
1659431156.681587,11184
1659431156.720547,11195
1659431156.759506,11217
1659431156.798466,11244
1659431156.838964,11261
1659431156.879461,11275
1659431156.918079,11295
1659431156.956697,11323
1659431156.995315,11306
1659431157.037863,11253
1659431157.08041,11213
1659431157.119028,11184
1659431157.157646,11175
1659431157.196264,11157
1659431157.235565,11167
1659431157.274867,11172
1659431157.314168,11165
1659431157.356204,11152
1659431157.398239,11145
1659431157.436515,11156
1659431157.474791,11176
1659431157.513067,11186
1659431157.555103,11218
1659431157.597138,11240
1659431157.636439,11279
1659431157.675741,11310
1659431157.715042,11326
1659431157.756052,11349
1659431157.797062,11384
1659431157.83568,11370
1659431157.874298,11320
1659431157.912916,11261
1659431157.955464,11207
1659431157.998012,11175
1659431158.042098,11141
1659431158.086184,11123
1659431158.130269,11120
1659431158.168887,11108
1659431158.207505,11113
1659431158.246123,11107
1659431158.288671,11095
1659431158.331219,11086
1659431158.368384,11095
1659431158.40555,11111
1659431158.442715,11111
1659431158.479881,11113
1659431158.521916,11119
1659431158.563951,11131
1659431158.603253,11117
1659431158.642554,11121
1659431158.681855,11126
1659431158.722353,11119
1659431158.76285,11075
1659431158.801126,10996
1659431158.839402,10938
1659431158.877679,10895
1659431158.922106,10867
1659431158.966534,10838
1659431159.010961,10826
1659431159.04377,10823
1659431159.076578,10814
1659431159.121005,10796
1659431159.165433,10789
1659431159.20986,10801
1659431159.248137,10806
1659431159.286413,10842
1659431159.324689,10890
1659431159.366211,10936
1659431159.407734,10944
1659431159.446352,10940
1659431159.48497,10951
1659431159.523588,10964
1659431159.566136,10981
1659431159.608684,10974
1659431159.647302,10950
1659431159.68592,10918
1659431159.724537,10880
1659431159.763497,10844
1659431159.802457,10781
1659431159.841416,10719
1659431159.882939,10619
1659431159.924462,10475
1659431159.963079,10400
1659431160.001697,10352
1659431160.040315,10329
1659431160.078591,10324
1659431160.116867,10333
1659431160.155143,10349
1659431160.197691,10385
1659431160.240239,10397
1659431160.28125,10387
1659431160.32226,10379
1659431160.361219,10338
1659431160.400179,10307
1659431160.439138,10245
1659431160.481174,10173
1659431160.523209,10128
1659431160.56251,10104
1659431160.601812,10074
1659431160.641113,10059
1659431160.685199,10056
1659431160.729285,10047
1659431160.773371,10031
1659431160.806692,10013
1659431160.840012,10000
1659431160.88444,9987
1659431160.928868,9966
1659431160.973295,9952
1659431161.015331,9938
1659431161.057366,9921
1659431161.095984,9916
1659431161.134602,9911
1659431161.173219,9909
1659431161.212179,9901
1659431161.251139,9913
1659431161.290098,9915
1659431161.330596,9874
1659431161.371093,9830
1659431161.410053,9785
1659431161.449012,9765
1659431161.487972,9743
1659431161.530007,9750
1659431161.572043,9735
1659431161.611002,9727
1659431161.649962,9734
1659431161.688921,9733
1659431161.727198,9739
1659431161.765474,9761
1659431161.80375,9774
1659431161.846298,9776
1659431161.888846,9802
1659431161.927805,9821
1659431161.966765,9829
1659431162.005725,9850
1659431162.046735,9874
1659431162.087745,9900
1659431162.126704,9889
1659431162.165664,9838
1659431162.204624,9808
1659431162.245121,9792
1659431162.285619,9776
1659431162.324236,9774
1659431162.362854,9792
1659431162.401472,9791
1659431162.446241,9785
1659431162.491011,9783
1659431162.53578,9784
1659431162.57679,9785
1659431162.6178,9789
1659431162.656076,9801
1659431162.694353,9816
1659431162.732629,9819
1659431162.774664,9826
1659431162.8167,9848
1659431162.855887,9862
1659431162.895074,9867
1659431162.934262,9864
1659431162.973449,9818
1659431163.012637,9793
1659431163.051824,9782
1659431163.091012,9779
1659431163.130199,9785
1659431163.169386,9792
1659431163.208961,9796
1659431163.248536,9803
1659431163.288111,9815
1659431163.327685,9820
1659431163.36726,9837
1659431163.40745,9852
1659431163.44764,9878
1659431163.48783,9909
1659431163.52802,9944
1659431163.56821,9970
1659431163.608707,10002
1659431163.649205,10024
1659431163.688506,9980
1659431163.727807,9951
1659431163.767109,9921
1659431163.811878,9922
1659431163.856647,9934
1659431163.901417,9935
1659431163.94294,9940
1659431163.984462,9946
1659431164.023764,9940
1659431164.063065,9938
1659431164.102366,9951
1659431164.141668,9944
1659431164.180969,9962
1659431164.22027,9992
1659431164.260768,10035
1659431164.301265,10086
1659431164.340225,10132
1659431164.379184,10196
1659431164.418144,10220
1659431164.457446,10205
1659431164.496747,10167
1659431164.536048,10159
1659431164.577058,10172
1659431164.618068,10187
1659431164.656345,10204
1659431164.694621,10230
1659431164.732897,10240
1659431164.774932,10241
1659431164.816967,10260
1659431164.855927,10277
1659431164.894887,10294
1659431164.933846,10325
1659431164.975369,10354
1659431165.016892,10390
1659431165.05551,10397
1659431165.094127,10414
1659431165.132745,10395
1659431165.177173,10363
1659431165.221601,10287
1659431165.266028,10203
1659431165.299861,10147
1659431165.333695,10090
1659431165.378123,10046
1659431165.42255,10000
1659431165.466978,9975
1659431165.505254,9949
1659431165.54353,9925
1659431165.581806,9912
1659431165.622816,9902
1659431165.663826,9912
1659431165.702444,9913
1659431165.741062,9933
1659431165.77968,9942
1659431165.81864,9950
1659431165.857599,9975
1659431165.896559,9984
1659431165.938081,9961
1659431165.979604,9916
1659431166.018905,9875
1659431166.058207,9857
1659431166.097508,9835
1659431166.139544,9825
1659431166.181579,9815
1659431166.220197,9819
1659431166.258815,9812
1659431166.297432,9809
1659431166.339468,9816
1659431166.381503,9824
1659431166.420805,9831
1659431166.460106,9855
1659431166.499407,9873
1659431166.539905,9885
1659431166.580402,9911
1659431166.619362,9923
1659431166.658321,9959
1659431166.697281,9955
1659431166.741709,9921
1659431166.786136,9891
1659431166.830564,9863
1659431166.872599,9844
1659431166.914634,9827
1659431166.953252,9824
1659431166.99187,9829
1659431167.030488,9854
1659431167.073036,9844
1659431167.115584,9843
1659431167.154202,9846
1659431167.19282,9844
1659431167.231438,9849
1659431167.270397,9845
1659431167.309357,9851
1659431167.348316,9858
1659431167.391377,9885
1659431167.434438,9900
1659431167.472714,9941
1659431167.51099,9998
1659431167.549266,10059
1659431167.589763,10077
1659431167.630261,10061
1659431167.669562,10052
1659431167.708864,10050
1659431167.748165,10049
1659431167.786783,10051
1659431167.825401,10061
1659431167.864019,10076
1659431167.905541,10033
1659431167.947064,10004
1659431167.98534,9990
1659431168.023616,9996
1659431168.061892,10030
1659431168.102902,10063
1659431168.143913,10101
1659431168.182872,10134
1659431168.221832,10191
1659431168.260791,10249
1659431168.302827,10303
1659431168.344862,10362
1659431168.38929,10374
1659431168.433717,10358
1659431168.478145,10339
1659431168.516763,10323
1659431168.555381,10319
1659431168.593998,10328
1659431168.636546,10335
1659431168.679095,10368
1659431168.718054,10366
1659431168.757014,10372
1659431168.795973,10393
1659431168.834591,10412
1659431168.873209,10415
1659431168.911827,10424
1659431168.95335,10453
1659431168.994872,10495
1659431169.033148,10535
1659431169.071424,10584
1659431169.109701,10629
1659431169.152249,10680
1659431169.194797,10725
1659431169.233414,10766
1659431169.272032,10771
1659431169.31065,10754
1659431169.34961,10744
1659431169.388569,10752
1659431169.427529,10750
1659431169.469052,10752
1659431169.510574,10762
1659431169.549876,10765
1659431169.589177,10777
1659431169.628479,10762
1659431169.670514,10760
1659431169.712549,10773
1659431169.754072,10769
1659431169.795595,10769
1659431169.834213,10778
1659431169.87283,10780
1659431169.911448,10779
1659431169.956218,10780
1659431170.000987,10781
1659431170.045756,10757
1659431170.079077,10759
1659431170.112398,10752
1659431170.156825,10711
1659431170.201253,10678
1659431170.245681,10643
1659431170.284298,10640
1659431170.322916,10627
1659431170.361534,10630
1659431170.403057,10623
1659431170.44458,10634
1659431170.483197,10624
1659431170.521815,10612
1659431170.560433,10625
1659431170.599393,10638
1659431170.638352,10641
1659431170.677312,10667
1659431170.719091,10693
1659431170.76087,10706
1659431170.802649,10743
1659431170.844428,10775
1659431170.882704,10806
1659431170.92098,10843
1659431170.959256,10834
1659431171.001805,10809
1659431171.044353,10791
1659431171.082628,10784
1659431171.120905,10781
1659431171.159181,10791
1659431171.19814,10800
1659431171.2371,10803
1659431171.27606,10810
1659431171.31707,10827
1659431171.35808,10841
1659431171.396356,10859
1659431171.434632,10879
1659431171.472908,10903
1659431171.517678,10924
1659431171.562447,10947
1659431171.607216,10966
1659431171.641562,10990
1659431171.675908,11008
1659431171.719994,11038
1659431171.76408,11052
1659431171.808166,11025
1659431171.841486,11005
1659431171.874807,10973
1659431171.919235,10969
1659431171.963662,10959
1659431172.00809,10940
1659431172.046708,10943
1659431172.085326,10934
1659431172.123944,10933
1659431172.164954,10923
1659431172.205964,10930
1659431172.244923,10913
1659431172.283883,10909
1659431172.322843,10900
1659431172.360777,10899
1659431172.398711,10902
1659431172.436646,10895
1659431172.479706,10905
1659431172.522767,10904
1659431172.561385,10922
1659431172.600003,10923
1659431172.63862,10902
1659431172.680143,10847
1659431172.721666,10799
1659431172.760967,10756
1659431172.800269,10725
1659431172.83957,10697
1659431172.882118,10676
1659431172.924666,10673
1659431172.963284,10652
1659431173.001902,10636
1659431173.040519,10637
1659431173.082555,10634
1659431173.12459,10650
1659431173.16355,10637
1659431173.202509,10634
1659431173.241469,10661
1659431173.285213,10678
1659431173.328957,10678
1659431173.372701,10691
1659431173.406022,10734
1659431173.439343,10748
1659431173.484112,10715
1659431173.528882,10684
1659431173.573651,10671
1659431173.611585,10672
1659431173.64952,10683
1659431173.687454,10683
1659431173.729489,10694
1659431173.771525,10710
1659431173.810143,10707
1659431173.84876,10730
1659431173.887378,10736
1659431173.928901,10740
1659431173.970424,10768
1659431174.009042,10776
1659431174.047659,10800
1659431174.086277,10824
1659431174.125579,10861
1659431174.16488,10880
1659431174.204181,10926
1659431174.244679,10959
1659431174.285176,10931
1659431174.323794,10909
1659431174.362412,10896
1659431174.40103,10880
1659431174.443065,10871
1659431174.485101,10860
1659431174.523718,10878
1659431174.562336,10884
1659431174.600954,10888
1659431174.641452,10900
1659431174.681949,10904
1659431174.720909,10923
1659431174.759868,10944
1659431174.798828,10953
1659431174.840863,10964
1659431174.882899,10996
1659431174.927326,11004
1659431174.971754,11013
1659431175.016181,11017
1659431175.055141,11030
1659431175.094101,11047
1659431175.13306,11019
1659431175.175096,10959
1659431175.217131,10896
1659431175.255407,10855
1659431175.293683,10817
1659431175.331959,10784
1659431175.374507,10771
1659431175.417055,10752
1659431175.455673,10725
1659431175.494291,10711
1659431175.532909,10705
1659431175.571527,10699
1659431175.610145,10696
1659431175.648762,10689
1659431175.689773,10698
1659431175.730783,10702
1659431175.770767,10711
1659431175.810752,10720
1659431175.850737,10737
1659431175.889013,10767
1659431175.927289,10782
1659431175.965565,10785
1659431176.007344,10752
1659431176.049124,10719
1659431176.090903,10708
1659431176.132682,10700
1659431176.174717,10699
1659431176.216752,10720
1659431176.25537,10729
1659431176.293988,10736
1659431176.332606,10755
1659431176.371907,10768
1659431176.411209,10793
1659431176.45051,10804
1659431176.49152,10823
1659431176.53253,10861
1659431176.571148,10880
1659431176.609766,10909
1659431176.648384,10924
1659431176.689394,10959
1659431176.730404,10986
1659431176.769364,11020
1659431176.808323,10993
1659431176.847283,10957
1659431176.88778,10942
1659431176.928278,10929
1659431176.967579,10924
1659431177.006881,10916
1659431177.046182,10940
1659431177.088217,10942
1659431177.130253,10960
1659431177.174338,10969
1659431177.218424,10984
1659431177.26251,11003
1659431177.301128,11014
1659431177.339746,11029
1659431177.378364,11043
1659431177.420399,11046
1659431177.462435,11047
1659431177.501394,11062
1659431177.540354,11066
1659431177.579313,11065
1659431177.617931,11089
1659431177.656549,11083
1659431177.695167,11039
1659431177.73669,10975
1659431177.778212,10932
1659431177.816147,10895
1659431177.854081,10867
1659431177.892015,10842
1659431177.930633,10823
1659431177.969251,10825
1659431178.007869,10807
1659431178.049904,10806
1659431178.09194,10794
1659431178.130558,10790
1659431178.169175,10804
1659431178.207793,10798
1659431178.249829,10808
1659431178.291864,10822
1659431178.331165,10842
1659431178.370466,10854
1659431178.409768,10893
1659431178.451803,10914
1659431178.493839,10933
1659431178.538266,10919
1659431178.582694,10886
1659431178.627121,10865
1659431178.660442,10861
1659431178.693763,10856
1659431178.738191,10858
1659431178.782618,10888
1659431178.827046,10898
1659431178.860367,10911
1659431178.893687,10936
1659431178.938457,10948
1659431178.983226,10977
1659431179.027995,10994
1659431179.066271,11015
1659431179.104548,11045
1659431179.142824,11086
1659431179.183321,11112
1659431179.223819,11152
1659431179.26312,11177
1659431179.302421,11222
1659431179.341723,11245
1659431179.380341,11208
1659431179.418958,11168
1659431179.457576,11132
1659431179.499612,11096
1659431179.541647,11037
1659431179.580606,10988
1659431179.619566,10944
1659431179.658526,10907
1659431179.700048,10942
1659431179.741571,10990
1659431179.779847,11075
1659431179.818123,11218
1659431179.8564,11395
1659431179.895701,11545
1659431179.935002,11663
1659431179.974303,11698
1659431180.015314,11686
1659431180.056324,11611
1659431180.097334,11458
1659431180.138344,11360
1659431180.176962,11294
1659431180.21558,11195
1659431180.254198,11086
1659431180.298625,10983
1659431180.343053,10899
1659431180.38748,10825
1659431180.421314,10771
1659431180.455147,10733
1659431180.499233,10722
1659431180.543319,10721
1659431180.587405,10719
1659431180.626364,10706
1659431180.665324,10687
1659431180.704283,10667
1659431180.745806,10648
1659431180.787329,10624
1659431180.826288,10590
1659431180.865248,10538
1659431180.904208,10497
1659431180.94573,10452
1659431180.987253,10432
1659431181.026213,10388
1659431181.065172,10365
1659431181.104132,10340
1659431181.142408,10256
1659431181.180684,10174
1659431181.21896,10114
1659431181.258262,10069
1659431181.297563,10028
1659431181.336864,10007
1659431181.378387,9968
1659431181.41991,9944
1659431181.464338,9929
1659431181.508765,9907
1659431181.553193,9902
1659431181.587026,9895
1659431181.620859,9906
1659431181.665287,9900
1659431181.709715,9915
1659431181.754142,9921
1659431181.787463,9931
1659431181.820784,9944
1659431181.865895,9944
1659431181.911006,9976
1659431181.956117,9977
1659431181.995077,9932
1659431182.034036,9889
1659431182.072996,9861
1659431182.113493,9834
1659431182.153991,9823
1659431182.19295,9828
1659431182.23191,9827
1659431182.27087,9841
1659431182.313418,9828
1659431182.355966,9836
1659431182.3939,9851
1659431182.431834,9860
1659431182.469769,9873
1659431182.508728,9892
1659431182.547688,9899
1659431182.586648,9912
1659431182.628683,9927
1659431182.670718,9930
1659431182.708994,9926
1659431182.74727,9931
1659431182.785547,9928
1659431182.828094,9927
1659431182.870642,9885
1659431182.909602,9811
1659431182.948562,9714
1659431182.987521,9648
1659431183.028531,9577
1659431183.069541,9522
1659431183.108159,9484
1659431183.146777,9445
1659431183.185395,9411
1659431183.229823,9389
1659431183.27425,9370
1659431183.318678,9367
1659431183.351486,9346
1659431183.384294,9308
1659431183.428722,9274
1659431183.473149,9252
1659431183.517577,9235
1659431183.556195,9241
1659431183.594813,9216
1659431183.63343,9217
1659431183.674441,9230
1659431183.715451,9261
1659431183.754752,9378
1659431183.794053,9590
1659431183.833355,9849
1659431183.874877,10036
1659431183.9164,10181
1659431183.955018,10251
1659431183.993636,10319
1659431184.032254,10377
1659431184.071555,10399
1659431184.110857,10438
1659431184.150158,10496
1659431184.192706,10573
1659431184.235254,10665
1659431184.273872,10754
1659431184.31249,10823
1659431184.351107,10899
1659431184.392118,10950
1659431184.433128,10977
1659431184.472087,11010
1659431184.511047,11029
1659431184.550006,11039
1659431184.592042,11015
1659431184.634077,10951
1659431184.672695,10890
1659431184.711313,10842
1659431184.749931,10829
1659431184.791966,10821
1659431184.834001,10836
1659431184.873303,10839
1659431184.912604,10848
1659431184.951905,10869
1659431184.995991,10904
1659431185.040077,10934
1659431185.084163,10958
1659431185.117996,10957
1659431185.15183,10903
1659431185.196599,10866
1659431185.241369,10832
1659431185.286138,10812
1659431185.327148,10780
1659431185.368158,10724
1659431185.406776,10607
1659431185.445394,10441
1659431185.484012,10243
1659431185.522629,10016
1659431185.561247,9853
1659431185.599865,9713
1659431185.641388,9591
1659431185.682911,9486
1659431185.721529,9395
1659431185.760146,9277
1659431185.798764,9102
1659431185.837724,8955
1659431185.876683,8908
1659431185.915643,8898
1659431185.956653,8898
1659431185.997663,8884
1659431186.036281,8865
1659431186.074899,8842
1659431186.113517,8835
1659431186.156065,8819
1659431186.198613,8814
1659431186.237231,8923
1659431186.275848,8999
1659431186.314466,9064
1659431186.355476,9138
1659431186.396487,9240
1659431186.438522,9282
1659431186.480557,8971
1659431186.522593,8847
1659431186.564628,8860
1659431186.602562,8873
1659431186.640497,8802
1659431186.678431,8759
1659431186.720466,8694
1659431186.762502,8650
1659431186.801803,8572
1659431186.841105,8551
1659431186.880406,8518
1659431186.920903,8618
1659431186.961401,8694
1659431187.00036,8723
1659431187.03932,8665
1659431187.078279,8580
1659431187.117239,8484
1659431187.156199,8418
1659431187.195158,8331
1659431187.236681,8264
1659431187.278204,8199
1659431187.317163,8035
1659431187.356123,7923
1659431187.395083,7769
1659431187.437118,7788
1659431187.479153,7946
1659431187.521189,8183
1659431187.563224,8548
1659431187.601842,8843
1659431187.64046,9070
1659431187.679078,9223
1659431187.723847,9388
1659431187.768616,9531
1659431187.813386,9667
1659431187.845681,9774
1659431187.877977,9864
1659431187.921721,9953
1659431187.965465,10033
1659431188.009209,10078
1659431188.048852,10139
1659431188.088495,10193
1659431188.128138,10187
1659431188.170174,10152
1659431188.212209,10100
1659431188.251169,10053
1659431188.290128,9998
1659431188.329088,9973
1659431188.370611,9959
1659431188.412133,9938
1659431188.451093,9935
1659431188.490052,9999
1659431188.529012,10164
1659431188.56763,10519
1659431188.606248,10972
1659431188.644866,11474
1659431188.687414,12022
1659431188.729962,12517
1659431188.768238,12961
1659431188.806514,13358
1659431188.84479,13646
1659431188.8858,13869
1659431188.92681,14059
1659431188.965428,14238
1659431189.004046,14387
1659431189.042664,14471
1659431189.084699,14571
1659431189.126734,14623
1659431189.165011,14679
1659431189.203287,14716
1659431189.241563,14738
1659431189.283086,14745
1659431189.324608,14759
1659431189.363568,14785
1659431189.402528,14840
1659431189.441487,14864
1659431189.485915,14866
1659431189.530342,14885
1659431189.57477,14900
1659431189.616293,14918
1659431189.657815,14919
1659431189.696775,14922
1659431189.735735,14871
1659431189.774694,14772
1659431189.815192,14602
1659431189.855689,14451
1659431189.894307,14308
1659431189.932925,14222
1659431189.971543,14209
1659431190.010844,14210
1659431190.050145,14190
1659431190.089447,14108
1659431190.13097,13993
1659431190.172492,13863
1659431190.210768,13855
1659431190.249044,13868
1659431190.287321,13875
1659431190.326964,13883
1659431190.366607,13946
1659431190.40625,13974
1659431190.448285,14006
1659431190.490321,14027
1659431190.528939,14003
1659431190.567556,13966
1659431190.606174,13944
1659431190.64821,13904
1659431190.690245,13903
1659431190.729546,13904
1659431190.768848,13888
1659431190.808149,13878
1659431190.849672,13822
1659431190.891194,13763
1659431190.930154,13712
1659431190.969114,13660
1659431191.008073,13621
1659431191.049596,13572
1659431191.091119,13533
1659431191.134863,13495
1659431191.178607,13442
1659431191.222351,13382
1659431191.260969,13337
1659431191.299587,13303
1659431191.338205,13282
1659431191.38024,13246
1659431191.422275,13228
1659431191.460893,13214
1659431191.499511,13208
1659431191.538129,13198
1659431191.579652,13198
1659431191.621174,13208
1659431191.660476,13208
1659431191.699777,13207
1659431191.739079,13162
1659431191.777354,13074
1659431191.815631,12998
1659431191.853907,12940
1659431191.892866,12883
1659431191.931826,12864
1659431191.970786,12832
1659431192.012821,12814
1659431192.054856,12790
1659431192.092791,12756
1659431192.130725,12751
1659431192.168659,12736
1659431192.210182,12705
1659431192.251705,12654
1659431192.290323,12620
1659431192.32894,12591
1659431192.367558,12572
1659431192.409081,12550
1659431192.450604,12534
1659431192.494348,12455
1659431192.538092,12335
1659431192.581836,12159
1659431192.621479,11975
1659431192.661122,11776
1659431192.700765,11621
1659431192.741776,11503
1659431192.782786,11391
1659431192.821745,11291
1659431192.860705,11208
1659431192.899664,11136
1659431192.942213,11089
1659431192.984761,11035
1659431193.023036,10986
1659431193.061313,10979
1659431193.099589,10977
1659431193.138207,10984
1659431193.176825,11019
1659431193.215442,11042
1659431193.256965,11061
1659431193.298488,11076
1659431193.337447,11097
1659431193.376407,11099
1659431193.415367,11109
1659431193.456889,11125
1659431193.498412,11123
1659431193.537372,11083
1659431193.576331,11040
1659431193.615291,11026
1659431193.65425,11008
1659431193.69321,10997
1659431193.73217,10999
1659431193.773692,11019
1659431193.815215,11024
1659431193.854517,11025
1659431193.893818,11052
1659431193.933119,11056
1659431193.974642,11076
1659431194.016165,11084
1659431194.060934,11091
1659431194.105703,11128
1659431194.150473,11146
1659431194.183794,11174
1659431194.217114,11197
1659431194.261542,11227
1659431194.305969,11249
1659431194.350397,11290
1659431194.382693,11267
1659431194.414988,11231
1659431194.459416,11212
1659431194.503843,11208
1659431194.548271,11216
1659431194.586889,11229
1659431194.625507,11257
1659431194.664124,11267
1659431194.70616,11284
1659431194.748195,11293
1659431194.787155,11317
1659431194.826114,11356
1659431194.865074,11374
1659431194.907109,11409
1659431194.949145,11429
1659431194.987762,11455
1659431195.02638,11484
1659431195.064998,11509
1659431195.103958,11539
1659431195.142917,11574
1659431195.181877,11582
1659431195.223912,11554
1659431195.265948,11528
1659431195.304566,11488
1659431195.343184,11488
1659431195.381801,11497
1659431195.422299,11498
1659431195.462796,11527
1659431195.501414,11537
1659431195.540032,11572
1659431195.57865,11572
1659431195.620685,11603
1659431195.66272,11612
1659431195.700655,11627
1659431195.738589,11649
1659431195.776524,11671
1659431195.820951,11689
1659431195.865379,11700
1659431195.909806,11721
1659431195.94364,11746
1659431195.977473,11772
1659431196.021559,11780
1659431196.065645,11750
1659431196.109731,11696
1659431196.152279,11656
1659431196.194827,11623
1659431196.234128,11598
1659431196.273429,11588
1659431196.312731,11566
1659431196.351349,11575
1659431196.389966,11562
1659431196.428584,11543
1659431196.470107,11550
1659431196.51163,11558
1659431196.550589,11576
1659431196.589549,11572
1659431196.628509,11583
1659431196.667126,11578
1659431196.705744,11576
1659431196.744362,11586
1659431196.786397,11593
1659431196.828433,11630
1659431196.867051,11631
1659431196.905668,11605
1659431196.944286,11550
1659431196.985296,11510
1659431197.026307,11506
1659431197.06595,11502
1659431197.105593,11502
1659431197.145236,11510
1659431197.186759,11501
1659431197.228281,11497
1659431197.266899,11520
1659431197.305517,11512
1659431197.344135,11523
1659431197.38617,11541
1659431197.428206,11550
1659431197.467849,11572
1659431197.507492,11590
1659431197.547135,11608
1659431197.590879,11631
1659431197.634623,11676
1659431197.678367,11706
1659431197.719378,11686
1659431197.760388,11656
1659431197.799689,11637
1659431197.83899,11629
1659431197.878292,11628
1659431197.916226,11638
1659431197.95416,11651
1659431197.992095,11660
1659431198.034643,11657
1659431198.077191,11644
1659431198.11615,11636
1659431198.15511,11637
1659431198.194069,11624
1659431198.23508,11620
1659431198.27609,11618
1659431198.314708,11635
1659431198.353325,11657
1659431198.391943,11664
1659431198.431245,11687
1659431198.470546,11733
1659431198.509847,11738
1659431198.55137,11700
1659431198.592893,11618
1659431198.631511,11556
1659431198.670129,11543
1659431198.708746,11534
1659431198.750269,11555
1659431198.791792,11543
1659431198.830068,11549
1659431198.868344,11534
1659431198.90662,11554
1659431198.948143,11562
1659431198.989666,11585
1659431199.034435,11590
1659431199.079204,11583
1659431199.123974,11578
1659431199.156269,11580
1659431199.188565,11599
1659431199.233334,11593
1659431199.278103,11593
1659431199.322873,11556
1659431199.362174,11486
1659431199.401475,11419
1659431199.440777,11348
1659431199.482812,11315
1659431199.524848,11271
1659431199.563465,11250
1659431199.602083,11242
1659431199.640701,11237
1659431199.682736,11228
1659431199.724772,11225
1659431199.76339,11221
1659431199.802007,11205
1659431199.840625,11209
1659431199.879243,11209
1659431199.917861,11222
1659431199.956479,11239
1659431199.99578,11255
1659431200.035082,11272
1659431200.074383,11251
1659431200.116418,11205
1659431200.158454,11172
1659431200.19673,11151
1659431200.235006,11135
1659431200.273282,11137
1659431200.314805,11140
1659431200.356328,11147
1659431200.396312,11139
1659431200.436297,11127
1659431200.476282,11131
1659431200.517292,11135
1659431200.558302,11171
1659431200.60273,11186
1659431200.647157,11209
1659431200.691585,11251
1659431200.725418,11287
1659431200.759252,11312
1659431200.802996,11302
1659431200.84674,11263
1659431200.890484,11246
1659431200.929785,11215
1659431200.969087,11197
1659431201.008388,11175
1659431201.049398,11161
1659431201.090408,11141
1659431201.129026,11126
1659431201.167644,11127
1659431201.206262,11115
1659431201.244196,11121
1659431201.282131,11132
1659431201.320065,11146
1659431201.362613,11191
1659431201.405161,11232
1659431201.443779,11276
1659431201.482397,11332
1659431201.521014,11350
1659431201.562025,11370
1659431201.603035,11390
1659431201.642678,11387
1659431201.682321,11386
1659431201.721964,11402
1659431201.760582,11395
1659431201.7992,11416
1659431201.837818,11417
1659431201.87934,11390
1659431201.920863,11364
1659431201.962898,11352
1659431202.004934,11376
1659431202.043552,11415
1659431202.08217,11466
1659431202.120787,11507
1659431202.164531,11563
1659431202.208276,11600
1659431202.25202,11632
1659431202.289698,11688
1659431202.327376,11692
1659431202.365054,11671
1659431202.402732,11655
1659431202.441008,11658
1659431202.479284,11674
1659431202.51756,11699
1659431202.560108,11705
1659431202.602656,11729
1659431202.647767,11746
1659431202.692878,11754
1659431202.737989,11764
1659431202.776266,11778
1659431202.814542,11788
1659431202.852818,11800
1659431202.894341,11829
1659431202.935863,11861
1659431202.975165,11922
1659431203.014466,11982
1659431203.053767,12018
1659431203.092043,12047
1659431203.13032,12069
1659431203.168596,12067
1659431203.211144,12040
1659431203.253692,12033
1659431203.292651,12034
1659431203.331611,12029
1659431203.37057,12044
1659431203.411068,12058
1659431203.451565,12071
1659431203.490183,12087
1659431203.528801,12113
1659431203.567419,12150
1659431203.60672,12180
1659431203.646022,12215
1659431203.685323,12233
1659431203.726846,12258
1659431203.768368,12277
1659431203.807328,12310
1659431203.846288,12330
1659431203.885247,12354
1659431203.927283,12371
1659431203.969318,12359
1659431204.007936,12345
1659431204.046554,12337
1659431204.085171,12338
1659431204.126694,12336
1659431204.168217,12356
1659431204.212645,12357
1659431204.257072,12373
1659431204.3015,12384
1659431204.333795,12392
1659431204.366091,12399
1659431204.410177,12412
1659431204.454262,12430
1659431204.498348,12448
1659431204.537308,12479
1659431204.576267,12496
1659431204.615227,12513
1659431204.65675,12547
1659431204.698273,12570
1659431204.736891,12584
1659431204.775508,12571
1659431204.814126,12547
1659431204.855649,12553
1659431204.897172,12549
1659431204.936131,12547
1659431204.975091,12549
1659431205.01405,12565
1659431205.053352,12561
1659431205.092653,12573
1659431205.131955,12566
1659431205.173477,12565
1659431205.215,12580
1659431205.25396,12589
1659431205.292919,12608
1659431205.331879,12607
1659431205.370155,12618
1659431205.408431,12627
1659431205.446707,12639
1659431205.488743,12646
1659431205.530778,12657
1659431205.572301,12654
1659431205.613823,12624
1659431205.652441,12601
1659431205.691059,12574
1659431205.729677,12569
1659431205.770687,12562
1659431205.811697,12554
1659431205.85134,12559
1659431205.890983,12554
1659431205.930626,12561
1659431205.975054,12555
1659431206.019482,12560
1659431206.063909,12577
1659431206.096717,12583
1659431206.129525,12603
1659431206.174637,12622
1659431206.219748,12652
1659431206.264859,12665
1659431206.298692,12693
1659431206.332525,12707
1659431206.376953,12724
1659431206.421381,12706
1659431206.465808,12668
1659431206.504768,12663
1659431206.543728,12662
1659431206.582687,12660
1659431206.623697,12664
1659431206.664707,12679
1659431206.702642,12669
1659431206.740576,12684
1659431206.77851,12687
1659431206.817812,12679
1659431206.857113,12701
1659431206.896415,12696
1659431206.937937,12704
1659431206.97946,12726
1659431207.017736,12734
1659431207.056012,12745
1659431207.094288,12759
1659431207.136324,12779
1659431207.178359,12775
1659431207.216977,12759
1659431207.255595,12722
1659431207.294213,12696
1659431207.335735,12680
1659431207.377258,12674
1659431207.416218,12669
1659431207.455177,12673
1659431207.494137,12676
1659431207.538564,12677
1659431207.582992,12682
1659431207.62742,12680
1659431207.665354,12705
1659431207.703288,12705
1659431207.741223,12711
1659431207.780182,12732
1659431207.819142,12740
1659431207.858102,12761
1659431207.899112,12772
1659431207.940122,12783
1659431207.979081,12798
1659431208.018041,12814
1659431208.057001,12790
1659431208.096302,12757
1659431208.135603,12755
1659431208.174905,12735
1659431208.216427,12729
1659431208.25795,12719
1659431208.296568,12706
1659431208.335186,12713
1659431208.373804,12709
1659431208.416352,12703
1659431208.458899,12701
1659431208.503669,12721
1659431208.548438,12730
1659431208.593208,12741
1659431208.625503,12747
1659431208.657799,12768
1659431208.702226,12766
1659431208.746654,12776
1659431208.791081,12799
1659431208.829699,12799
1659431208.868317,12788
1659431208.906935,12763
1659431208.948458,12738
1659431208.98998,12738
1659431209.02894,12730
1659431209.0679,12741
1659431209.106859,12746
1659431209.148382,12760
1659431209.189905,12752
1659431209.228523,12775
1659431209.26714,12783
1659431209.305758,12795
1659431209.344718,12804
1659431209.383677,12824
1659431209.422637,12846
1659431209.465185,12848
1659431209.507733,12864
1659431209.546351,12873
1659431209.584969,12891
1659431209.623587,12891
1659431209.662546,12876
1659431209.701506,12843
1659431209.740465,12827
1659431209.781476,12825
1659431209.822486,12815
1659431209.861104,12810
1659431209.899721,12815
1659431209.938339,12804
1659431209.979862,12801
1659431210.021385,12807
1659431210.065812,12805
1659431210.11024,12806
1659431210.154668,12819
1659431210.187476,12829
1659431210.220284,12839
1659431210.26437,12850
1659431210.308455,12849
1659431210.352541,12870
1659431210.385862,12886
1659431210.419183,12907
1659431210.46361,12885
1659431210.508038,12852
1659431210.552466,12828
1659431210.591084,12803
1659431210.629701,12801
1659431210.668319,12772
1659431210.709842,12773
1659431210.751365,12771
1659431210.790324,12764
1659431210.829284,12762
1659431210.868243,12750
1659431210.909766,12763
1659431210.951289,12759
1659431210.989907,12760
1659431211.028525,12767
1659431211.067142,12760
1659431211.106102,12772
1659431211.145062,12790
1659431211.184021,12805
1659431211.224519,12833
1659431211.265016,12876
1659431211.304659,12891
1659431211.344302,12882
1659431211.383946,12849
1659431211.422905,12838
1659431211.461865,12858
1659431211.500824,12868
1659431211.541835,12889
1659431211.582845,12889
1659431211.624367,12895
1659431211.66589,12912
1659431211.705875,12914
1659431211.74586,12927
1659431211.785845,12938
1659431211.827367,12964
1659431211.86889,12967
1659431211.907508,12994
1659431211.946126,13019
1659431211.984744,13020
1659431212.029513,13051
1659431212.074282,13069
1659431212.119052,13050
1659431212.15186,13010
1659431212.184668,12978
1659431212.228754,12960
1659431212.27284,12957
1659431212.316926,12948
1659431212.358961,12942
1659431212.400996,12943
1659431212.439614,12932
1659431212.478232,12915
1659431212.51685,12909
1659431212.555809,12907
1659431212.594769,12916
1659431212.633729,12917
1659431212.676277,12919
1659431212.718825,12905
1659431212.75599,12848
1659431212.793155,12559
1659431212.830321,11882
1659431212.867486,11479
1659431212.909009,11250
1659431212.950532,11073
1659431212.995643,10880
1659431213.040754,10694
1659431213.085865,10491
1659431213.117648,10284
1659431213.149431,10127
1659431213.193858,9969
1659431213.238286,9810
1659431213.282714,9636
1659431213.32099,9416
1659431213.359266,9182
1659431213.397542,9070
1659431213.439577,9042
1659431213.481613,9048
1659431213.519889,8966
1659431213.558165,8832
1659431213.596441,8665
1659431213.638476,8495
1659431213.680512,8324
1659431213.71913,8340
1659431213.757747,8359
1659431213.796365,8340
1659431213.835667,8247
1659431213.874968,8139
1659431213.914269,8042
1659431213.956305,7929
1659431213.99834,7800
1659431214.0373,7609
1659431214.076259,7545
1659431214.115219,7581
1659431214.153495,7547
1659431214.191771,7457
1659431214.230047,7383
1659431214.272595,7338
1659431214.315143,7289
1659431214.354103,7246
1659431214.393062,7212
1659431214.432022,7184
1659431214.472519,7144
1659431214.513017,7113
1659431214.554027,7064
1659431214.595037,6985
1659431214.63468,6906
1659431214.674323,6851
1659431214.713966,6905
1659431214.758052,7047
1659431214.802138,7215
1659431214.846224,7370
1659431214.879545,7501
1659431214.912865,7579
1659431214.957635,7674
1659431215.002404,7749
1659431215.047174,7782
1659431215.08152,7806
1659431215.115865,7774
1659431215.160293,7700
1659431215.204721,7713
1659431215.249148,7763
1659431215.28845,7832
1659431215.327751,7891
1659431215.367052,7906
1659431215.40755,7917
1659431215.448047,7947
1659431215.486665,7968
1659431215.525283,8030
1659431215.563901,8107
1659431215.606449,8175
1659431215.648997,8213
1659431215.687615,8256
1659431215.726233,8280
1659431215.76485,8311
1659431215.802785,8332
1659431215.840719,8356
1659431215.878654,8392
1659431215.921201,8440
1659431215.963749,8477
1659431216.002367,8518
1659431216.040985,8554
1659431216.079603,8607
1659431216.121126,8659
1659431216.162648,8675
1659431216.20195,8664
1659431216.241251,8660
1659431216.280553,8655
1659431216.321563,8661
1659431216.362573,8692
1659431216.400507,8722
1659431216.438442,8738
1659431216.476376,8765
1659431216.521145,8809
1659431216.565915,8870
1659431216.610684,8921
1659431216.644005,8959
1659431216.677325,9004
1659431216.721069,9061
1659431216.764814,9117
1659431216.808558,9162
1659431216.85008,9203
1659431216.891603,9251
1659431216.930904,9310
1659431216.970206,9321
1659431217.009507,9327
1659431217.047783,9344
1659431217.086059,9340
1659431217.124336,9378
1659431217.167396,9420
1659431217.210457,9448
1659431217.249416,9479
1659431217.288376,9499
1659431217.327336,9523
1659431217.368346,9548
1659431217.409356,9571
1659431217.448315,9595
1659431217.487275,9637
1659431217.526235,9659
1659431217.565878,9674
1659431217.605521,9715
1659431217.645164,9739
1659431217.685661,9787
1659431217.726159,9809
1659431217.765118,9821
1659431217.804078,9814
1659431217.843038,9806
1659431217.88456,9801
1659431217.926083,9803
1659431217.965043,9834
1659431218.004002,9882
1659431218.042962,9941
1659431218.084741,9962
1659431218.12652,10001
1659431218.168299,10031
1659431218.210078,10042
1659431218.252626,10074
1659431218.295174,10100
1659431218.333792,10135
1659431218.37241,10193
1659431218.411028,10293
1659431218.450329,10342
1659431218.48963,10325
1659431218.528932,10213
1659431218.570454,10003
1659431218.611977,9921
1659431218.650253,9844
1659431218.688529,9781
1659431218.726805,9738
1659431218.768841,9700
1659431218.810876,9656
1659431218.849494,9591
1659431218.888112,9516
1659431218.92673,9446
1659431218.96774,9415
1659431219.00875,9366
1659431219.052836,9336
1659431219.096922,9325
1659431219.141008,9301
1659431219.179967,9288
1659431219.218927,9266
1659431219.257886,9251
1659431219.299409,9235
1659431219.340932,9242
1659431219.379891,9227
1659431219.418851,9224
1659431219.457811,9238
1659431219.499846,9219
1659431219.541881,9191
1659431219.580499,9136
1659431219.619117,9118
1659431219.657735,9085
1659431219.69772,9061
1659431219.737705,9046
1659431219.777689,9048
1659431219.817674,9046
1659431219.857659,9039
1659431219.896619,9019
1659431219.935578,8993
1659431219.974538,8974
1659431220.012472,8970
1659431220.050407,8985
1659431220.088341,9014
1659431220.130889,9036
1659431220.173437,9065
1659431220.212055,9092
1659431220.250673,9130
1659431220.289291,9128
1659431220.330301,9116
1659431220.371311,9117
1659431220.415739,9101
1659431220.460166,9113
1659431220.504594,9107
1659431220.53894,9110
1659431220.573286,9119
1659431220.617372,9129
1659431220.661457,9131
1659431220.705543,9144
1659431220.739377,9163
1659431220.77321,9179
1659431220.817637,9201
1659431220.862065,9220
1659431220.906493,9250
1659431220.945111,9262
1659431220.983728,9286
1659431221.022346,9300
1659431221.064382,9317
1659431221.106417,9350
1659431221.145718,9382
1659431221.18502,9393
1659431221.224321,9371
1659431221.264819,9343
1659431221.305316,9329
1659431221.344276,9314
1659431221.383235,9306
1659431221.422195,9300
1659431221.461496,9308
1659431221.500798,9295
1659431221.540099,9302
1659431221.581622,9291
1659431221.623144,9311
1659431221.662104,9323
1659431221.701064,9343
1659431221.740023,9354
1659431221.782058,9366
1659431221.824094,9414
1659431221.862028,9423
1659431221.899963,9450
1659431221.937897,9484
1659431221.980445,9520
1659431222.022993,9557
1659431222.061269,9539
1659431222.099545,9525
1659431222.137821,9512
1659431222.178319,9531
1659431222.218816,9541
1659431222.257092,9570
1659431222.295368,9587
1659431222.333645,9613
1659431222.378414,9639
1659431222.423183,9645
1659431222.467953,9652
1659431222.500761,9639
1659431222.533569,9656
1659431222.577996,9669
1659431222.622424,9713
1659431222.666852,9736
1659431222.705811,9758
1659431222.744771,9793
1659431222.783731,9813
1659431222.825253,9826
1659431222.866776,9789
1659431222.905394,9720
1659431222.944012,9667
1659431222.98263,9642
1659431223.025177,9632
1659431223.067725,9612
1659431223.106002,9631
1659431223.144278,9627
1659431223.182554,9616
1659431223.22083,9616
1659431223.259106,9611
1659431223.297382,9623
1659431223.338905,9629
1659431223.380428,9641
1659431223.419729,9635
1659431223.45903,9648
1659431223.498332,9637
1659431223.539342,9641
1659431223.580352,9631
1659431223.619653,9632
1659431223.658955,9653
1659431223.698256,9639
1659431223.742683,9613
1659431223.787111,9582
1659431223.831539,9557
1659431223.865372,9526
1659431223.899205,9521
1659431223.943975,9495
1659431223.988744,9482
1659431224.033514,9479
1659431224.075549,9468
1659431224.117584,9464
1659431224.15586,9460
1659431224.194136,9471
1659431224.232413,9479
1659431224.271372,9500
1659431224.310332,9517
1659431224.349291,9534
1659431224.391327,9556
1659431224.433362,9559
1659431224.471638,9597
1659431224.509914,9610
1659431224.54819,9589
1659431224.586808,9554
1659431224.625426,9535
1659431224.664044,9526
1659431224.705567,9508
1659431224.747089,9519
1659431224.786049,9513
1659431224.825009,9532
1659431224.863968,9524
1659431224.906003,9532
1659431224.948039,9559
1659431224.986999,9569
1659431225.025958,9585
1659431225.064918,9593
1659431225.106441,9620
1659431225.147963,9636
1659431225.185898,9664
1659431225.223832,9665
1659431225.261766,9645
1659431225.304827,9648
1659431225.347888,9641
1659431225.386164,9622
1659431225.42444,9603
1659431225.462716,9597
1659431225.506802,9586
1659431225.550888,9588
1659431225.594973,9584
1659431225.635471,9585
1659431225.675968,9614
1659431225.714928,9619
1659431225.753888,9627
1659431225.792847,9646
1659431225.831123,9656
1659431225.869399,9675
1659431225.907676,9696
1659431225.950223,9716
1659431225.992771,9728
1659431226.031731,9760
1659431226.070691,9762
1659431226.10965,9787
1659431226.15066,9803
1659431226.19167,9795
1659431226.230972,9769
1659431226.270273,9747
1659431226.309575,9737
1659431226.348534,9720
1659431226.387494,9713
1659431226.426453,9684
1659431226.466951,9688
1659431226.507448,9674
1659431226.54675,9668
1659431226.586051,9661
1659431226.625352,9660
1659431226.666363,9659
1659431226.707373,9667
1659431226.746674,9679
1659431226.785975,9695
1659431226.825277,9723
1659431226.866799,9734
1659431226.908322,9744
1659431226.953433,9761
1659431226.998544,9777
1659431227.043655,9789
1659431227.075951,9759
1659431227.108246,9740
1659431227.153016,9729
1659431227.197785,9735
1659431227.242554,9722
1659431227.276901,9714
1659431227.311246,9728
1659431227.355332,9712
1659431227.399418,9729
1659431227.443504,9718
1659431227.482122,9721
1659431227.52074,9731
1659431227.559358,9740
1659431227.60088,9748
1659431227.642403,9758
1659431227.681021,9757
1659431227.719639,9714
1659431227.758257,9699
1659431227.796875,9688
1659431227.835492,9685
1659431227.87411,9665
1659431227.915633,9626
1659431227.957156,9596
1659431227.995432,9554
1659431228.033708,9525
1659431228.071984,9487
1659431228.114019,9468
1659431228.156055,9430
1659431228.195356,9389
1659431228.234657,9366
1659431228.273959,9340
1659431228.312577,9330
1659431228.351194,9314
1659431228.389812,9317
1659431228.431335,9330
1659431228.472858,9356
1659431228.514637,9376
1659431228.556416,9394
1659431228.598195,9421
1659431228.639974,9429
1659431228.680471,9473
1659431228.720969,9476
1659431228.759587,9450
1659431228.798205,9422
1659431228.836823,9394
1659431228.87937,9384
1659431228.921918,9360
1659431228.960195,9351
1659431228.998471,9351
1659431229.036747,9346
1659431229.075023,9336
1659431229.113299,9340
1659431229.151575,9349
1659431229.19361,9345
1659431229.235646,9359
1659431229.275289,9362
1659431229.314932,9370
1659431229.354575,9387
1659431229.395585,9417
1659431229.436595,9423
1659431229.475897,9443
1659431229.515198,9465
1659431229.554499,9490
1659431229.596535,9495
1659431229.63857,9476
1659431229.67753,9462
1659431229.716489,9445
1659431229.755449,9449
1659431229.796459,9447
1659431229.837469,9442
1659431229.881897,9465
1659431229.926324,9473
1659431229.970752,9473
1659431230.00937,9479
1659431230.047988,9496
1659431230.086606,9502
1659431230.128128,9515
1659431230.169651,9520
1659431230.209294,9542
1659431230.248937,9567
1659431230.28858,9586
1659431230.32959,9603
1659431230.3706,9627
1659431230.40956,9651
1659431230.44852,9655
1659431230.487479,9640
1659431230.527122,9627
1659431230.566766,9613
1659431230.606409,9613
1659431230.647931,9609
1659431230.689454,9623
1659431230.728072,9639
1659431230.76669,9651
1659431230.805308,9674
1659431230.847343,9687
1659431230.889378,9716
1659431230.927655,9774
1659431230.965931,9841
1659431231.004207,9881
1659431231.042825,9924
1659431231.081442,9960
1659431231.12006,9999
1659431231.162608,10038
1659431231.205156,10072
1659431231.243091,10093
1659431231.281025,10110
1659431231.318959,10092
1659431231.360482,10031
1659431231.402005,9999
1659431231.446774,9983
1659431231.491544,9951
1659431231.536313,9934
1659431231.569633,9918
1659431231.602954,9904
1659431231.64704,9895
1659431231.691126,9879
1659431231.735212,9873
1659431231.774855,9861
1659431231.814498,9858
1659431231.854141,9856
1659431231.894639,9870
1659431231.935136,9889
1659431231.973071,9906
1659431232.011005,9939
1659431232.048939,9957
1659431232.087899,9986
1659431232.126858,10022
1659431232.165818,10040
1659431232.207853,10019
1659431232.249889,10017
1659431232.288507,9995
1659431232.327124,10011
1659431232.365742,10008
1659431232.407265,10010
1659431232.448788,10030
1659431232.487747,10027
1659431232.526707,10027
1659431232.565667,10031
1659431232.604968,10043
1659431232.644269,10044
1659431232.683571,10059
1659431232.725606,10077
1659431232.767641,10105
1659431232.809677,10125
1659431232.851712,10150
1659431232.89033,10172
1659431232.928948,10194
1659431232.967566,10218
1659431233.012335,10245
1659431233.057104,10227
1659431233.101874,10206
1659431233.135195,10186
1659431233.168515,10180
1659431233.212601,10164
1659431233.256687,10169
1659431233.300773,10168
1659431233.333581,10166
1659431233.366389,10163
1659431233.411158,10172
1659431233.455928,10176
1659431233.500697,10187
1659431233.539657,10199
1659431233.578616,10202
1659431233.617576,10225
1659431233.659099,10272
1659431233.700621,10293
1659431233.739581,10339
1659431233.778541,10349
1659431233.8175,10360
1659431233.85851,10363
1659431233.89952,10329
1659431233.938822,10233
1659431233.978123,10159
1659431234.017424,10094
1659431234.056384,10051
1659431234.095344,10026
1659431234.134303,9986
1659431234.175313,9974
1659431234.216323,9953
1659431234.254941,9930
1659431234.293559,9910
1659431234.332177,9895
1659431234.3737,9873
1659431234.415222,9848
1659431234.454182,9844
1659431234.493142,9832
1659431234.532101,9819
1659431234.572599,9796
1659431234.613096,9778
1659431234.652056,9768
1659431234.691015,9778
1659431234.729975,9762
1659431234.774403,9714
1659431234.81883,9675
1659431234.863258,9613
1659431234.896579,9589
1659431234.929899,9534
1659431234.974669,9505
1659431235.019438,9488
1659431235.064208,9468
1659431235.10573,9443
1659431235.147253,9422
1659431235.186213,9419
1659431235.225172,9420
1659431235.264132,9453
1659431235.30275,9456
1659431235.341367,9455
1659431235.379985,9455
1659431235.422533,9442
1659431235.465081,9448
1659431235.503016,9460
1659431235.54095,9439
1659431235.578884,9416
1659431235.617844,9387
1659431235.656804,9338
1659431235.695763,9310
1659431235.737286,9287
1659431235.778809,9264
1659431235.817085,9240
1659431235.855361,9224
1659431235.893637,9205
1659431235.936185,9190
1659431235.978733,9196
1659431236.018034,9192
1659431236.057336,9207
1659431236.096637,9259
1659431236.141065,9337
1659431236.185492,9404
1659431236.22992,9462
1659431236.263241,9525
1659431236.296561,9577
1659431236.341331,9608
1659431236.3861,9601
1659431236.430869,9597
1659431236.463677,9588
1659431236.496485,9590
1659431236.540571,9578
1659431236.584657,9558
1659431236.628743,9553
1659431236.668044,9558
1659431236.707346,9553
1659431236.746647,9557
1659431236.787145,9552
1659431236.827642,9555
1659431236.866943,9555
1659431236.906245,9582
1659431236.945546,9591
1659431236.984506,9617
1659431237.023465,9641
1659431237.062425,9681
1659431237.103435,9725
1659431237.144445,9755
1659431237.183405,9763
1659431237.222364,9753
1659431237.261324,9739
1659431237.303359,9730
1659431237.345395,9762
1659431237.384012,9802
1659431237.42263,9840
1659431237.461248,9861
1659431237.502258,9861
1659431237.543268,9890
1659431237.582228,9906
1659431237.621188,9918
1659431237.660147,9929
1659431237.70167,9959
1659431237.743193,9960
1659431237.781469,9958
1659431237.819745,9952
1659431237.858021,9957
1659431237.902107,9945
1659431237.946193,9928
1659431237.990279,9869
1659431238.031801,9799
1659431238.073324,9749
1659431238.111942,9690
1659431238.15056,9638
1659431238.189178,9595
1659431238.231726,9557
1659431238.274274,9534
1659431238.313233,9516
1659431238.352193,9480
1659431238.391152,9461
1659431238.42977,9442
1659431238.468388,9444
1659431238.507006,9481
1659431238.549042,9499
1659431238.591077,9524
1659431238.629695,9568
1659431238.668313,9585
1659431238.70693,9615
1659431238.745548,9624
1659431238.784166,9620
1659431238.822784,9610
1659431238.865332,9619
1659431238.90788,9608
1659431238.946839,9609
1659431238.985799,9632
1659431239.024759,9652
1659431239.066025,9663
1659431239.107291,9690
1659431239.148558,9710
1659431239.189824,9723
1659431239.23186,9747
1659431239.273895,9756
1659431239.312855,9763
1659431239.351814,9777
1659431239.390774,9770
1659431239.429734,9778
1659431239.468693,9777
1659431239.507653,9767
1659431239.549688,9726
1659431239.591723,9703
1659431239.630683,9690
1659431239.669643,9706
1659431239.708602,9707
1659431239.7491,9742
1659431239.789597,9794
1659431239.828557,9807
1659431239.867516,9837
1659431239.906476,9861
1659431239.948511,9866
1659431239.990547,9860
1659431240.028481,9864
1659431240.066415,9880
1659431240.10435,9897
1659431240.14536,9889
1659431240.18637,9847
1659431240.231139,9824
1659431240.275909,9819
1659431240.320678,9781
1659431240.359296,9721
1659431240.397914,9668
1659431240.436532,9640
1659431240.478567,9624
1659431240.520602,9623
1659431240.559904,9636
1659431240.599205,9652
1659431240.638506,9657
1659431240.679517,9668
1659431240.720527,9687
1659431240.758461,9697
1659431240.796395,9721
1659431240.83433,9731
1659431240.873631,9725
1659431240.912932,9727
1659431240.952234,9706
1659431240.993757,9693
1659431241.035279,9705
1659431241.073897,9690
1659431241.112515,9656
1659431241.151133,9611
1659431241.189751,9590
1659431241.228369,9564
1659431241.266986,9549
1659431241.307997,9555
1659431241.349007,9550
1659431241.388308,9536
1659431241.427609,9534
1659431241.466911,9508
1659431241.508946,9495
1659431241.550981,9499
1659431241.595409,9516
1659431241.639837,9546
1659431241.684264,9583
1659431241.717585,9612
1659431241.750906,9630
1659431241.795675,9681
1659431241.840444,9692
1659431241.885214,9683
1659431241.918535,9704
1659431241.951855,9733
1659431241.995599,9753
1659431242.039343,9782
1659431242.083087,9795
1659431242.122389,9813
1659431242.16169,9846
1659431242.200992,9852
1659431242.242002,9875
1659431242.283012,9884
1659431242.322313,9897
1659431242.361614,9894
1659431242.400916,9907
1659431242.439534,9902
1659431242.478152,9905
1659431242.516769,9892
1659431242.558292,9883
1659431242.599815,9893
1659431242.638433,9893
1659431242.677051,9887
1659431242.715668,9846
1659431242.75497,9813
1659431242.794271,9797
1659431242.833572,9784
1659431242.875608,9763
1659431242.917643,9749
1659431242.959166,9746
1659431243.000689,9735
1659431243.039306,9732
1659431243.077924,9731
1659431243.116542,9730
1659431243.16097,9723
1659431243.205397,9722
1659431243.249825,9725
1659431243.283146,9733
1659431243.316467,9761
1659431243.360894,9772
1659431243.405322,9782
1659431243.449749,9778
1659431243.482045,9786
1659431243.51434,9805
1659431243.558768,9802
1659431243.603195,9768
1659431243.647623,9747
1659431243.686241,9749
1659431243.724859,9742
1659431243.763477,9750
1659431243.805512,9742
1659431243.847547,9743
1659431243.886165,9765
1659431243.924783,9764
1659431243.963401,9771
1659431244.002361,9793
1659431244.04132,9807
1659431244.08028,9820
1659431244.12129,9856
1659431244.1623,9870
1659431244.20126,9897
1659431244.240219,9930
1659431244.279179,9940
1659431244.318138,9970
1659431244.357098,9980
1659431244.396058,9960
1659431244.438093,9926
1659431244.480128,9916
1659431244.523872,9915
1659431244.567616,9907
1659431244.611361,9911
1659431244.650662,9900
1659431244.689963,9899
1659431244.729265,9899
1659431244.770787,9901
1659431244.81231,9913
1659431244.851612,9934
1659431244.890913,9944
1659431244.930214,9957
1659431244.971737,9978
1659431245.01326,9990
1659431245.052561,10014
1659431245.091862,10022
1659431245.131164,10033
1659431245.169782,10046
1659431245.2084,10044
1659431245.247017,10030
1659431245.289053,9990
1659431245.331088,9965
1659431245.370048,9940
1659431245.409007,9933
1659431245.447967,9910
1659431245.488977,9892
1659431245.529987,9890
1659431245.567921,9885
1659431245.605856,9877
1659431245.64379,9873
1659431245.683091,9874
1659431245.722393,9863
1659431245.761694,9870
1659431245.80373,9863
1659431245.845765,9875
1659431245.886775,9892
1659431245.927785,9893
1659431245.967087,9912
1659431246.006388,9922
1659431246.045689,9955
1659431246.090459,9961
1659431246.135228,9950
1659431246.179997,9937
1659431246.212806,9935
1659431246.245614,9938
1659431246.290383,9929
1659431246.335152,9953
1659431246.379922,9941
1659431246.41273,9943
1659431246.445538,9939
1659431246.489282,9952
1659431246.533026,9954
1659431246.57677,9956
1659431246.615388,9972
1659431246.654006,9975
1659431246.692624,10001
1659431246.735172,9995
1659431246.77772,10001
1659431246.815654,10033
1659431246.853588,10050
1659431246.891523,10040
1659431246.930824,10020
1659431246.970125,10016
1659431247.009427,10010
1659431247.05095,10021
1659431247.092472,10021
1659431247.130748,10013
1659431247.169024,10028
1659431247.2073,10028
1659431247.249849,10034
1659431247.292397,10040
1659431247.331698,10054
1659431247.370999,10049
1659431247.4103,10080
1659431247.450798,10103
1659431247.491296,10116
1659431247.530255,10137
1659431247.569215,10140
1659431247.608174,10137
1659431247.650722,10146
1659431247.69327,10141
1659431247.731888,10105
1659431247.770506,10073
1659431247.809124,10054
1659431247.85321,10041
1659431247.897296,10037
1659431247.941381,10023
1659431247.974702,10032
1659431248.008023,10028
1659431248.05245,10016
1659431248.096878,10028
1659431248.141306,10041
1659431248.183854,10045
1659431248.226402,10057
1659431248.265361,10090
1659431248.304321,10112
1659431248.343281,10139
1659431248.38224,10160
1659431248.4212,10191
1659431248.460159,10247
1659431248.501682,10276
1659431248.543205,10284
1659431248.582848,10300
1659431248.622491,10336
1659431248.662134,10372
1659431248.703144,10424
1659431248.744154,10474
1659431248.782772,10536
1659431248.82139,10606
1659431248.860008,10682
1659431248.898626,10764
1659431248.937244,10825
1659431248.975862,10886
1659431249.018409,10952
1659431249.060957,11037
1659431249.099234,11105
1659431249.13751,11157
1659431249.175786,11202
1659431249.217309,11223
1659431249.258831,11270
1659431249.298133,11281
1659431249.337434,11300
1659431249.376735,11326
1659431249.418258,11340
1659431249.459781,11335
1659431249.500791,11334
1659431249.541801,11340
1659431249.582811,11344
1659431249.623821,11345
1659431249.662781,11333
1659431249.70174,11331
1659431249.7407,11345
1659431249.782223,11336
1659431249.823745,11340
1659431249.862363,11359
1659431249.900981,11384
1659431249.939599,11397
1659431249.978559,11440
1659431250.017518,11464
1659431250.056478,11464
1659431250.096975,11456
1659431250.137473,11429
1659431250.177116,11415
1659431250.216759,11414
1659431250.256402,11387
1659431250.298437,11367
1659431250.340473,11358
1659431250.384559,11343
1659431250.428645,11350
1659431250.47273,11355
1659431250.505538,11346
1659431250.538347,11358
1659431250.583458,11372
1659431250.628569,11386
1659431250.67368,11414
1659431250.707001,11446
1659431250.740321,11460
1659431250.784407,11494
1659431250.828493,11546
1659431250.872579,11572
1659431250.91188,11564
1659431250.951182,11563
1659431250.990483,11568
1659431251.030981,11568
1659431251.071478,11558
1659431251.110438,11557
1659431251.149397,11564
1659431251.188357,11572
1659431251.230392,11559
1659431251.272428,11562
1659431251.311045,11543
1659431251.349663,11535
1659431251.388281,11511
1659431251.427241,11471
1659431251.4662,11475
1659431251.50516,11479
1659431251.547708,11479
1659431251.590256,11489
1659431251.628874,11502
1659431251.667492,11503
1659431251.70611,11491
1659431251.747632,11456
1659431251.789155,11425
1659431251.828115,11405
1659431251.867074,11388
1659431251.906034,11360
1659431251.948069,11340
1659431251.990104,11332
1659431252.028381,11311
1659431252.066657,11276
1659431252.104933,11252
1659431252.146456,11228
1659431252.187978,11219
1659431252.226254,11167
1659431252.26453,11114
1659431252.302807,11074
1659431252.346551,11037
1659431252.390295,10997
1659431252.434039,10954
1659431252.467872,10894
1659431252.501706,10858
1659431252.546475,10820
1659431252.591244,10745
1659431252.636014,10681
1659431252.674632,10632
1659431252.713249,10577
1659431252.751867,10546
1659431252.793903,10518
1659431252.835938,10520
1659431252.874556,10500
1659431252.913174,10503
1659431252.951792,10487
1659431252.993314,10480
1659431253.034837,10490
1659431253.073455,10480
1659431253.112073,10482
1659431253.150691,10472
1659431253.189308,10462
1659431253.227926,10432
1659431253.266544,10416
1659431253.307554,10413
1659431253.348564,10412
1659431253.387182,10400
1659431253.4258,10371
1659431253.464418,10356
1659431253.506453,10346
1659431253.548489,10339
1659431253.58779,10310
1659431253.627091,10302
1659431253.666393,10298
1659431253.707403,10314
1659431253.748413,10335
1659431253.787714,10363
1659431253.827016,10388
1659431253.866317,10403
1659431253.908865,10431
1659431253.951413,10477
1659431253.995499,10496
1659431254.039585,10509
1659431254.08367,10481
1659431254.12263,10483
1659431254.16159,10472
1659431254.200549,10462
1659431254.241559,10428
1659431254.282569,10410
1659431254.321187,10413
1659431254.359805,10427
1659431254.398423,10442
1659431254.440971,10453
1659431254.483519,10472
1659431254.522137,10476
1659431254.560755,10480
1659431254.599373,10455
1659431254.638332,10446
1659431254.677292,10426
1659431254.716251,10408
1659431254.755553,10388
1659431254.794854,10365
1659431254.834156,10315
1659431254.878241,10332
1659431254.922327,10353
1659431254.966413,10366
1659431254.999734,10363
1659431255.033054,10378
1659431255.077824,10386
1659431255.122593,10378
1659431255.167363,10363
1659431255.200171,10382
1659431255.232979,10390
1659431255.276723,10405
1659431255.320467,10408
1659431255.364211,10422
1659431255.402829,10469
1659431255.441447,10518
1659431255.480065,10556
1659431255.5221,10564
1659431255.564135,10584
1659431255.60207,10632
1659431255.640004,10672
1659431255.677938,10731
1659431255.716898,10806
1659431255.755858,10915
1659431255.794817,10998
1659431255.83634,11072
1659431255.877863,11097
1659431255.917848,11125
1659431255.957832,11171
1659431255.997817,11222
1659431256.037802,11268
1659431256.077787,11300
1659431256.119822,11334
1659431256.161858,11354
1659431256.200134,11391
1659431256.23841,11448
1659431256.276686,11483
1659431256.315646,11518
1659431256.354605,11544
1659431256.393565,11596
1659431256.4356,11627
1659431256.477636,11628
1659431256.515912,11634
1659431256.554188,11660
1659431256.592464,11670
1659431256.633986,11621
1659431256.675509,11568
1659431256.714469,11524
1659431256.753428,11522
1659431256.792388,11501
1659431256.833911,11482
1659431256.875434,11482
1659431256.919861,11486
1659431256.964289,11471
1659431257.008716,11441
1659431257.04255,11447
1659431257.076383,11454
1659431257.120811,11481
1659431257.165238,11495
1659431257.209666,11526
1659431257.248626,11555
1659431257.287585,11569
1659431257.326545,11581
1659431257.369093,11607
1659431257.411641,11613
1659431257.449917,11601
1659431257.488193,11592
1659431257.526469,11568
1659431257.567479,11580
1659431257.608489,11592
1659431257.647449,11582
1659431257.686409,11563
1659431257.725368,11554
1659431257.764328,11559
1659431257.803287,11564
1659431257.842247,11570
1659431257.883257,11538
1659431257.924267,11532
1659431257.963568,11550
1659431258.00287,11579
1659431258.042171,11624
1659431258.080789,11648
1659431258.119407,11645
1659431258.158025,11621
1659431258.199548,11598
1659431258.24107,11583
1659431258.28003,11600
1659431258.31899,11612
1659431258.357949,11601
1659431258.399472,11620
1659431258.440995,11644
1659431258.482005,11660
1659431258.523015,11690
1659431258.562316,11697
1659431258.601617,11733
1659431258.640919,11775
1659431258.684663,11817
1659431258.728407,11866
1659431258.772151,11904
1659431258.804959,11910
1659431258.837767,11919
1659431258.881511,11916
1659431258.925256,11881
1659431258.969,11830
1659431259.007617,11826
1659431259.046235,11847
1659431259.084853,11855
1659431259.126889,11878
1659431259.168924,11921
1659431259.207884,11953
1659431259.246843,11967
1659431259.285803,11992
1659431259.327325,12022
1659431259.368848,12049
1659431259.408149,12076
1659431259.447451,12126
1659431259.486752,12161
1659431259.52537,12186
1659431259.563988,12213
1659431259.602606,12238
1659431259.645154,12257
1659431259.687702,12227
1659431259.72632,12171
1659431259.764937,12160
1659431259.803555,12172
1659431259.844565,12178
1659431259.885576,12180
1659431259.924535,12200
1659431259.963495,12197
1659431260.002454,12197
1659431260.04654,12205
1659431260.090626,12188
1659431260.134712,12175
1659431260.168033,12184
1659431260.201353,12190
1659431260.246464,12201
1659431260.291576,12207
1659431260.336687,12176
1659431260.370008,12187
1659431260.403328,12179
1659431260.447756,12152
1659431260.492183,12107
1659431260.536611,12079
1659431260.578646,12056
1659431260.620682,12030
1659431260.660325,12020
1659431260.699968,12015
1659431260.739611,12014
1659431260.777545,11986
1659431260.81548,11970
1659431260.853414,11978
1659431260.894937,11982
1659431260.93646,12008
1659431260.975419,12039
1659431261.014379,12060
1659431261.053338,12062
1659431261.091956,12093
1659431261.130574,12105
1659431261.169192,12131
1659431261.210715,12134
1659431261.252237,12112
1659431261.291197,12093
1659431261.330157,12085
1659431261.369116,12080
1659431261.410126,12067
1659431261.451136,12085
1659431261.490438,12096
1659431261.529739,12086
1659431261.569041,12091
1659431261.610563,12093
1659431261.652086,12117
1659431261.690704,12123
1659431261.729322,12142
1659431261.76794,12165
1659431261.80895,12180
1659431261.84996,12194
1659431261.889603,12206
1659431261.929246,12211
1659431261.968889,12176
1659431262.012633,12164
1659431262.056377,12145
1659431262.100121,12147
1659431262.141131,12150
1659431262.182142,12151
1659431262.221101,12169
1659431262.260061,12169
1659431262.299021,12167
1659431262.34003,12185
1659431262.381041,12218
1659431262.420342,12236
1659431262.459643,12259
1659431262.498945,12291
1659431262.538246,12311
1659431262.577547,12339
1659431262.616849,12375
1659431262.655467,12413
1659431262.694084,12434
1659431262.732702,12424
1659431262.774225,12395
1659431262.815748,12357
1659431262.854707,12360
1659431262.893667,12356
1659431262.932626,12350
1659431262.974662,12351
1659431263.016697,12345
1659431263.055315,12322
1659431263.093933,12305
1659431263.132551,12316
1659431263.174074,12324
1659431263.215596,12343
1659431263.254556,12369
1659431263.293515,12380
1659431263.332475,12396
1659431263.376561,12412
1659431263.420647,12425
1659431263.464733,12433
1659431263.507281,12446
1659431263.549829,12418
1659431263.588788,12385
1659431263.627748,12376
1659431263.666708,12381
1659431263.70823,12362
1659431263.749753,12353
1659431263.789054,12356
1659431263.828356,12357
1659431263.867657,12351
1659431263.906617,12349
1659431263.945576,12359
1659431263.984536,12343
1659431264.026059,12359
1659431264.067581,12359
1659431264.106199,12359
1659431264.144817,12361
1659431264.183435,12353
1659431264.224445,12358
1659431264.265455,12370
1659431264.304073,12357
1659431264.342691,12327
1659431264.381309,12314
1659431264.420268,12301
1659431264.459228,12297
1659431264.498188,12307
1659431264.53971,12308
1659431264.581233,12310
1659431264.619509,12294
1659431264.657785,12301
1659431264.696061,12290
1659431264.737071,12306
1659431264.778081,12301
1659431264.818066,12324
1659431264.858051,12340
1659431264.898036,12356
1659431264.939046,12374
1659431264.980056,12415
1659431265.024484,12430
1659431265.068912,12427
1659431265.113339,12407
1659431265.152299,12391
1659431265.191258,12395
1659431265.230218,12397
1659431265.267127,12399
1659431265.304036,12396
1659431265.340945,12387
1659431265.377854,12377
1659431265.422624,12375
1659431265.467393,12370
1659431265.512162,12355
1659431265.55078,12364
1659431265.589398,12352
1659431265.628016,12338
1659431265.668514,12336
1659431265.709011,12350
1659431265.748654,12347
1659431265.788297,12324
1659431265.82794,12290
1659431265.869976,12272
1659431265.912011,12252
1659431265.950287,12247
1659431265.988563,12254
1659431266.026839,12258
1659431266.066482,12250
1659431266.106126,12253
1659431266.145769,12255
1659431266.187804,12252
1659431266.229839,12247
1659431266.268457,12260
1659431266.307075,12262
1659431266.345693,12270
1659431266.387216,12278
1659431266.428738,12281
1659431266.467698,12295
1659431266.506658,12281
1659431266.545617,12239
1659431266.58714,12205
1659431266.628663,12182
1659431266.667622,12163
1659431266.706582,12162
1659431266.745541,12154
1659431266.787064,12145
1659431266.828587,12153
1659431266.867205,12153
1659431266.905823,12159
1659431266.94444,12150
1659431266.988868,12145
1659431267.033296,12165
1659431267.077723,12179
1659431267.120271,12194
1659431267.162819,12212
1659431267.201095,12250
1659431267.239372,12255
1659431267.277647,12235
1659431267.319683,12212
1659431267.361718,12191
1659431267.399994,12188
1659431267.438271,12194
1659431267.476547,12197
1659431267.514823,12201
1659431267.553099,12214
1659431267.591375,12204
1659431267.63341,12216
1659431267.675446,12211
1659431267.714405,12209
1659431267.753365,12226
1659431267.792325,12228
1659431267.830601,12238
1659431267.868877,12247
1659431267.907153,12265
1659431267.948675,12254
1659431267.990198,12221
1659431268.029158,12201
1659431268.068117,12182
1659431268.107077,12179
1659431268.149625,12151
1659431268.192173,12154
1659431268.230791,12152
1659431268.269409,12142
1659431268.308027,12131
1659431268.349549,12134
1659431268.391072,12131
1659431268.430032,12136
1659431268.468991,12143
1659431268.507951,12138
1659431268.549474,12142
1659431268.590996,12149
1659431268.635082,12155
1659431268.679168,12182
1659431268.723254,12162
1659431268.76153,12125
1659431268.799806,12114
1659431268.838082,12119
1659431268.879092,12096
1659431268.920102,12115
1659431268.959062,12103
1659431268.998022,12101
1659431269.036981,12101
1659431269.079017,12106
1659431269.121052,12101
1659431269.160353,12102
1659431269.199655,12102
1659431269.238956,12097
1659431269.277916,12119
1659431269.316875,12119
1659431269.355835,12123
1659431269.398383,12148
1659431269.440931,12141
1659431269.47989,12123
1659431269.51885,12113
1659431269.55781,12087
1659431269.599332,12067
1659431269.640855,12059
1659431269.680156,12049
1659431269.719458,12045
1659431269.758759,12042
1659431269.796694,12021
1659431269.834628,12018
1659431269.872562,12007
1659431269.914085,11993
1659431269.955608,11993
1659431269.997643,12003
1659431270.039678,12021
1659431270.077955,12018
1659431270.11623,12032
1659431270.154507,12068
1659431270.198934,12097
1659431270.243362,12059
1659431270.28779,12016
1659431270.321623,12015
1659431270.355456,12015
1659431270.399542,12009
1659431270.443628,11999
1659431270.487714,12010
1659431270.527699,12005
1659431270.567683,12025
1659431270.607668,12020
1659431270.647653,12025
1659431270.687638,12046
1659431270.725914,12056
1659431270.76419,12061
1659431270.802466,12083
1659431270.840743,12102
1659431270.879019,12114
1659431270.917295,12127
1659431270.955913,12149
1659431270.99453,12163
1659431271.033148,12162
1659431271.075184,12129
1659431271.117219,12100
1659431271.155495,12075
1659431271.193771,12066
1659431271.232047,12055
1659431271.274083,12047
1659431271.316118,12048
1659431271.354736,12037
1659431271.393354,12048
1659431271.431972,12027
1659431271.474007,12046
1659431271.516042,12035
1659431271.560812,12026
1659431271.605581,12049
1659431271.65035,12056
1659431271.683671,12068
1659431271.716992,12090
1659431271.760736,12107
1659431271.80448,12115
1659431271.848224,12146
1659431271.88257,12099
1659431271.916916,12060
1659431271.961344,12041
1659431272.005771,12008
1659431272.050199,11982
1659431272.088475,11968
1659431272.126751,11965
1659431272.165027,11962
1659431272.20655,11963
1659431272.248073,11946
1659431272.287032,11943
1659431272.325992,11910
1659431272.364952,11854
1659431272.403911,11934
1659431272.442871,12003
1659431272.48183,12046
1659431272.523866,12090
1659431272.565901,12138
1659431272.604861,12187
1659431272.64382,12240
1659431272.68278,12284
1659431272.724303,12298
1659431272.765825,12317
1659431272.804785,12341
1659431272.843745,12365
1659431272.882704,12415
1659431272.92474,12468
1659431272.966775,12492
1659431273.005051,12520
1659431273.043327,12531
1659431273.081603,12521
1659431273.122613,12522
1659431273.163623,12505
1659431273.202925,12487
1659431273.242226,12490
1659431273.281528,12477
1659431273.325613,12479
1659431273.369699,12490
1659431273.413785,12523
1659431273.446593,12527
1659431273.479401,12563
1659431273.524171,12553
1659431273.56894,12584
1659431273.613709,12626
1659431273.654719,12647
1659431273.695729,12659
1659431273.735031,12641
1659431273.774332,12619
1659431273.813634,12602
1659431273.852252,12601
1659431273.890869,12596
1659431273.929487,12595
1659431273.971523,12609
1659431274.013558,12595
1659431274.051834,12593
1659431274.09011,12592
1659431274.128386,12592
1659431274.170422,12586
1659431274.212457,12558
1659431274.251416,12521
1659431274.290376,12486
1659431274.329336,12478
1659431274.36727,12461
1659431274.405205,12451
1659431274.443139,12435
1659431274.484149,12429
1659431274.525159,12424
1659431274.56446,12433
1659431274.603762,12433
1659431274.643063,12445
1659431274.684586,12471
1659431274.726109,12481
1659431274.76541,12500
1659431274.804711,12513
1659431274.844012,12519
1659431274.886048,12541
1659431274.928083,12543
1659431274.966701,12499
1659431275.005319,12471
1659431275.043937,12457
1659431275.085972,12431
1659431275.128008,12421
1659431275.173119,12414
1659431275.21823,12404
1659431275.263341,12409
1659431275.301617,12406
1659431275.339893,12422
1659431275.378169,12425
1659431275.419179,12433
1659431275.46019,12448
1659431275.499491,12457
1659431275.538792,12472
1659431275.578094,12504
1659431275.616028,12536
1659431275.653962,12557
1659431275.691897,12542
1659431275.733419,12514
1659431275.774942,12491
1659431275.817234,12487
1659431275.859525,12482
1659431275.901817,12464
1659431275.944109,12449
1659431275.982385,12440
1659431276.020661,12416
1659431276.058937,12414
1659431276.098238,12407
1659431276.13754,12397
1659431276.176841,12416
1659431276.218364,12432
1659431276.259887,12436
1659431276.297821,12443
1659431276.335755,12452
1659431276.37369,12469
1659431276.416238,12469
1659431276.458786,12424
1659431276.497403,12385
1659431276.536021,12362
1659431276.574639,12338
1659431276.612915,12326
1659431276.651191,12311
1659431276.689467,12297
1659431276.730478,12275
1659431276.771488,12270
1659431276.810447,12263
1659431276.849407,12258
1659431276.888366,12253
1659431276.929889,12246
1659431276.971412,12255
1659431277.010371,12273
1659431277.049331,12301
1659431277.088291,12328
1659431277.130326,12362
1659431277.172361,12357
1659431277.210979,12351
1659431277.249597,12334
1659431277.288215,12310
1659431277.329738,12301
1659431277.37126,12258
1659431277.41603,12171
1659431277.460799,11997
1659431277.505569,11714
1659431277.543845,11490
1659431277.582121,11363
1659431277.620397,11265
1659431277.66192,11176
1659431277.703442,11097
1659431277.742402,10983
1659431277.781362,10898
1659431277.820321,10835
1659431277.859281,10783
1659431277.89824,10744
1659431277.9372,10664
1659431277.978723,10555
1659431278.020246,10448
1659431278.059547,10367
1659431278.098848,10282
1659431278.138149,10212
1659431278.179672,10143
1659431278.221195,10070
1659431278.260496,9995
1659431278.299798,9920
1659431278.339099,9878
1659431278.381135,9844
1659431278.42317,9831
1659431278.462129,9814
1659431278.501089,9796
