LocalTimestamp,PG
1659520478.871671,9552
1659520478.909902,9571
1659520478.948134,9616
1659520478.986365,9652
1659520479.027839,9682
1659520479.069313,9695
1659520479.108227,9684
1659520479.147141,9694
1659520479.186055,9711
1659520479.224286,9753
1659520479.262517,9809
1659520479.300749,9866
1659520479.342735,9925
1659520479.384721,9971
1659520479.423635,10037
1659520479.462549,10097
1659520479.501463,10166
1659520479.542425,10236
1659520479.583387,10299
1659520479.621618,10374
1659520479.659849,10448
1659520479.698081,10506
1659520479.740579,10567
1659520479.783077,10610
1659520479.821991,10647
1659520479.860905,10692
1659520479.899819,10732
1659520479.944535,10763
1659520479.989252,10807
1659520480.033969,10825
1659520480.067251,10850
1659520480.100533,10862
1659520480.14525,10868
1659520480.189966,10906
1659520480.234683,10927
1659520480.273256,10960
1659520480.311829,10986
1659520480.350401,11021
1659520480.392899,11045
1659520480.435397,11068
1659520480.47397,11074
1659520480.512542,11069
1659520480.551115,11094
1659520480.592077,11117
1659520480.633039,11157
1659520480.671953,11189
1659520480.710867,11207
1659520480.749781,11212
1659520480.789378,11229
1659520480.828974,11241
1659520480.868571,11231
1659520480.909533,11244
1659520480.950495,11235
1659520480.989409,11212
1659520481.028323,11175
1659520481.067237,11131
1659520481.109223,11109
1659520481.151209,11096
1659520481.190464,11104
1659520481.22972,11115
1659520481.268975,11129
1659520481.310449,11178
1659520481.351923,11243
1659520481.390837,11338
1659520481.429751,11426
1659520481.468665,11487
1659520481.512358,11531
1659520481.556051,11578
1659520481.599744,11633
1659520481.633025,11703
1659520481.666307,11777
1659520481.710682,11835
1659520481.755058,11913
1659520481.799434,11948
1659520481.838006,11988
1659520481.876579,12034
1659520481.915151,12066
1659520481.956625,12111
1659520481.9981,12157
1659520482.037355,12186
1659520482.07661,12227
1659520482.115865,12259
1659520482.157851,12295
1659520482.199838,12329
1659520482.238069,12360
1659520482.2763,12396
1659520482.314531,12433
1659520482.354128,12462
1659520482.393725,12492
1659520482.433321,12536
1659520482.474283,12588
1659520482.515245,12647
1659520482.553135,12682
1659520482.591025,12749
1659520482.628915,12811
1659520482.671925,12860
1659520482.714935,12899
1659520482.753508,12932
1659520482.792081,12972
1659520482.830653,13001
1659520482.871103,13021
1659520482.911553,13044
1659520482.950467,13057
1659520482.989381,13065
1659520483.028295,13087
1659520483.070281,13070
1659520483.112267,13067
1659520483.156643,13062
1659520483.201018,13051
1659520483.245394,13051
1659520483.284649,13066
1659520483.323905,13090
1659520483.36316,13131
1659520483.405146,13164
1659520483.447132,13181
1659520483.485363,13180
1659520483.523595,13193
1659520483.561826,13176
1659520483.601081,13179
1659520483.640336,13170
1659520483.679592,13154
1659520483.72209,13145
1659520483.764588,13127
1659520483.802819,13094
1659520483.84105,13089
1659520483.879282,13081
1659520483.918195,13083
1659520483.957109,13107
1659520483.996023,13104
1659520484.037498,13107
1659520484.078972,13104
1659520484.117886,13109
1659520484.1568,13134
1659520484.195714,13145
1659520484.237188,13167
1659520484.278662,13178
1659520484.317917,13187
1659520484.357172,13180
1659520484.396427,13165
1659520484.43739,13176
1659520484.478352,13176
1659520484.517607,13180
1659520484.556862,13192
1659520484.596117,13182
1659520484.638103,13179
1659520484.68009,13191
1659520484.723783,13221
1659520484.767475,13251
1659520484.811168,13268
1659520484.849741,13277
1659520484.888314,13300
1659520484.926886,13309
1659520484.967848,13319
1659520485.00881,13315
1659520485.047724,13305
1659520485.086638,13309
1659520485.125552,13304
1659520485.164124,13316
1659520485.202697,13337
1659520485.24127,13361
1659520485.283256,13405
1659520485.325242,13455
1659520485.364156,13501
1659520485.40307,13521
1659520485.441984,13552
1659520485.483458,13538
1659520485.524932,13512
1659520485.563846,13442
1659520485.60276,13417
1659520485.641674,13435
1659520485.683148,13478
1659520485.724622,13500
1659520485.763536,13474
1659520485.80245,13458
1659520485.841364,13441
1659520485.879936,13442
1659520485.918509,13491
1659520485.957082,13546
1659520485.99958,13559
1659520486.042078,13550
1659520486.085771,13557
1659520486.129463,13547
1659520486.173156,13528
1659520486.205926,13538
1659520486.238696,13533
1659520486.283071,13478
1659520486.327447,13485
1659520486.371822,13485
1659520486.410736,13484
1659520486.44965,13517
1659520486.488564,13541
1659520486.531062,13572
1659520486.57356,13639
1659520486.612816,13674
1659520486.652071,13723
1659520486.691326,13760
1659520486.729899,13777
1659520486.768471,13787
1659520486.807044,13794
1659520486.848518,13813
1659520486.889992,13826
1659520486.929248,13831
1659520486.968503,13820
1659520487.007758,13812
1659520487.049232,13809
1659520487.090706,13798
1659520487.128937,13794
1659520487.167169,13798
1659520487.2054,13790
1659520487.244655,13782
1659520487.283911,13799
1659520487.323166,13821
1659520487.363616,13819
1659520487.404066,13835
1659520487.443321,13836
1659520487.482577,13869
1659520487.521832,13888
1659520487.563818,13893
1659520487.605804,13903
1659520487.649838,13915
1659520487.693872,13929
1659520487.737907,13923
1659520487.770676,13914
1659520487.803446,13896
1659520487.848504,13882
1659520487.893563,13859
1659520487.938621,13850
1659520487.971902,13854
1659520488.005184,13871
1659520488.048877,13877
1659520488.09257,13880
1659520488.136263,13879
1659520488.175518,13878
1659520488.214773,13886
1659520488.254029,13886
1659520488.294478,13878
1659520488.334929,13888
1659520488.373501,13891
1659520488.412074,13900
1659520488.450646,13920
1659520488.48956,13929
1659520488.528474,13936
1659520488.567388,13945
1659520488.608862,13948
1659520488.650336,13943
1659520488.690479,13947
1659520488.730622,13950
1659520488.770765,13951
1659520488.810908,13968
1659520488.85105,13970
1659520488.889964,13970
1659520488.928878,13988
1659520488.967792,13985
1659520489.006365,13985
1659520489.044937,13997
1659520489.08351,13999
1659520489.125496,14009
1659520489.167482,14005
1659520489.20998,14014
1659520489.252478,14020
1659520489.29071,14021
1659520489.328941,14024
1659520489.367172,14014
1659520489.408646,14010
1659520489.45012,14018
1659520489.489034,14012
1659520489.527948,14022
1659520489.566862,14032
1659520489.610896,14029
1659520489.654931,14042
1659520489.698965,14049
1659520489.732759,14061
1659520489.766552,14058
1659520489.81161,14057
1659520489.856669,14074
1659520489.901727,14074
1659520489.942689,14078
1659520489.983651,14096
1659520490.022565,14095
1659520490.061479,14104
1659520490.100393,14112
1659520490.139648,14097
1659520490.178903,14101
1659520490.218159,14094
1659520490.259633,14092
1659520490.301107,14099
1659520490.339679,14103
1659520490.378252,14112
1659520490.416825,14113
1659520490.458299,14128
1659520490.499773,14129
1659520490.538345,14131
1659520490.576918,14147
1659520490.615491,14157
1659520490.654063,14155
1659520490.692636,14159
1659520490.731208,14167
1659520490.773195,14181
1659520490.815181,14197
1659520490.854436,14198
1659520490.893691,14205
1659520490.932946,14210
1659520490.973908,14215
1659520491.014871,14235
1659520491.053785,14218
1659520491.092699,14219
1659520491.131613,14217
1659520491.174111,14216
1659520491.216609,14226
1659520491.255181,14221
1659520491.293754,14239
1659520491.332326,14234
1659520491.372777,14250
1659520491.413227,14253
1659520491.457602,14248
1659520491.501978,14260
1659520491.546353,14264
1659520491.584926,14260
1659520491.623498,14258
1659520491.662071,14250
1659520491.704057,14235
1659520491.746043,14251
1659520491.784957,14251
1659520491.823871,14247
1659520491.862785,14259
1659520491.901358,14263
1659520491.93993,14269
1659520491.978503,14271
1659520492.019977,14279
1659520492.061451,14288
1659520492.101389,14283
1659520492.141327,14293
1659520492.181265,14292
1659520492.222227,14309
1659520492.263189,14312
1659520492.302103,14305
1659520492.341017,14305
1659520492.379931,14306
1659520492.422429,14301
1659520492.464927,14307
1659520492.503841,14287
1659520492.542755,14288
1659520492.581669,14304
1659520492.620242,14294
1659520492.658814,14311
1659520492.697387,14308
1659520492.738861,14304
1659520492.780335,14317
1659520492.821297,14312
1659520492.862259,14315
1659520492.901514,14317
1659520492.94077,14329
1659520492.980025,14331
1659520493.024742,14340
1659520493.069459,14340
1659520493.114176,14343
1659520493.147457,14347
1659520493.180739,14350
1659520493.224773,14356
1659520493.268807,14353
1659520493.312841,14358
1659520493.347147,14342
1659520493.381453,14350
1659520493.42617,14351
1659520493.470887,14345
1659520493.515604,14359
1659520493.554176,14353
1659520493.592749,14360
1659520493.631321,14365
1659520493.672796,14365
1659520493.71427,14369
1659520493.752842,14375
1659520493.791415,14373
1659520493.829987,14373
1659520493.868219,14389
1659520493.90645,14384
1659520493.944681,14394
1659520493.983595,14396
1659520494.022509,14392
1659520494.061423,14379
1659520494.102897,14380
1659520494.144371,14392
1659520494.182944,14378
1659520494.221516,14392
1659520494.260089,14395
1659520494.301563,14398
1659520494.343037,14401
1659520494.387754,14390
1659520494.432471,14400
1659520494.477188,14406
1659520494.510469,14404
1659520494.543751,14406
1659520494.588468,14401
1659520494.633185,14403
1659520494.677902,14418
1659520494.716474,14404
1659520494.755047,14410
1659520494.79362,14429
1659520494.83407,14429
1659520494.87452,14427
1659520494.913434,14420
1659520494.952348,14418
1659520494.991261,14423
1659520495.03376,14424
1659520495.076258,14430
1659520495.114489,14428
1659520495.15272,14441
1659520495.190952,14444
1659520495.230207,14440
1659520495.269462,14445
1659520495.308717,14442
1659520495.350703,14442
1659520495.392689,14444
1659520495.432286,14448
1659520495.471883,14441
1659520495.51148,14457
1659520495.552442,14459
1659520495.593404,14465
1659520495.632659,14458
1659520495.671914,14446
1659520495.711169,14448
1659520495.752644,14440
1659520495.794118,14444
1659520495.833032,14449
1659520495.871946,14456
1659520495.91086,14450
1659520495.951822,14468
1659520495.992784,14457
1659520496.032039,14450
1659520496.071294,14460
1659520496.110549,14464
1659520496.154242,14456
1659520496.197935,14458
1659520496.241628,14465
1659520496.275422,14455
1659520496.309215,14471
1659520496.353591,14456
1659520496.397967,14452
1659520496.442342,14446
1659520496.483816,14431
1659520496.52529,14427
1659520496.564204,14432
1659520496.603118,14435
1659520496.642032,14436
1659520496.681287,14442
1659520496.720543,14436
1659520496.759798,14434
1659520496.801272,14432
1659520496.842746,14430
1659520496.88166,14442
1659520496.920574,14426
1659520496.959488,14437
1659520497.000962,14438
1659520497.042436,14443
1659520497.080667,14447
1659520497.118899,14440
1659520497.15713,14423
1659520497.195702,14411
1659520497.234275,14420
1659520497.272848,14415
1659520497.315346,14416
1659520497.357844,14428
1659520497.395734,14446
1659520497.433624,14452
1659520497.471514,14458
1659520497.512988,14457
1659520497.554462,14438
1659520497.593717,14447
1659520497.632972,14431
1659520497.672228,14440
1659520497.714214,14436
1659520497.7562,14436
1659520497.795114,14433
1659520497.834028,14433
1659520497.872942,14434
1659520497.914928,14414
1659520497.956914,14405
1659520498.000948,14386
1659520498.044982,14372
1659520498.089016,14375
1659520498.127248,14385
1659520498.165479,14383
1659520498.20371,14386
1659520498.24672,14399
1659520498.289731,14394
1659520498.327962,14402
1659520498.366193,14418
1659520498.404424,14415
1659520498.444874,14425
1659520498.485324,14431
1659520498.524921,14433
1659520498.564517,14448
1659520498.604114,14444
1659520498.643028,14446
1659520498.681942,14452
1659520498.720856,14452
1659520498.762842,14446
1659520498.804828,14438
1659520498.844084,14409
1659520498.883339,14414
1659520498.922594,14397
1659520498.96458,14395
1659520499.006566,14403
1659520499.045139,14410
1659520499.083712,14415
1659520499.122284,14419
1659520499.16427,14425
1659520499.206256,14416
1659520499.248242,14418
1659520499.290229,14419
1659520499.32846,14409
1659520499.366691,14415
1659520499.404922,14401
1659520499.446908,14401
1659520499.488894,14420
1659520499.527808,14414
1659520499.566722,14412
1659520499.605636,14427
1659520499.646086,14420
1659520499.686536,14416
1659520499.72545,14413
1659520499.764364,14411
1659520499.803278,14423
1659520499.842192,14434
1659520499.881106,14441
1659520499.92002,14441
1659520499.962006,14454
1659520500.003992,14449
1659520500.042565,14452
1659520500.081137,14465
1659520500.11971,14470
1659520500.161184,14471
1659520500.202658,14481
1659520500.246692,14480
1659520500.290727,14486
1659520500.334761,14500
1659520500.368555,14489
1659520500.402348,14500
1659520500.446382,14483
1659520500.490417,14471
1659520500.534451,14468
1659520500.573023,14483
1659520500.611596,14492
1659520500.650169,14493
1659520500.690619,14505
1659520500.731069,14499
1659520500.769983,14508
1659520500.808897,14502
1659520500.847811,14503
1659520500.889796,14520
1659520500.931783,14520
1659520500.970697,14520
1659520501.009611,14517
1659520501.048524,14525
1659520501.087438,14530
1659520501.126352,14534
1659520501.165266,14529
1659520501.207764,14520
1659520501.250262,14504
1659520501.289176,14500
1659520501.32809,14503
1659520501.367004,14501
1659520501.407966,14507
1659520501.448929,14503
1659520501.488184,14528
1659520501.527439,14521
1659520501.566694,14523
1659520501.607144,14533
1659520501.647594,14527
1659520501.686508,14522
1659520501.725422,14526
1659520501.764336,14537
1659520501.806322,14537
1659520501.848309,14540
1659520501.887223,14549
1659520501.926136,14540
1659520501.96505,14543
1659520502.009426,14532
1659520502.053802,14527
1659520502.098177,14528
1659520502.132483,14515
1659520502.166788,14524
1659520502.211164,14530
1659520502.255539,14538
1659520502.299915,14540
1659520502.332685,14552
1659520502.365454,14553
1659520502.410513,14557
1659520502.455571,14561
1659520502.500629,14555
1659520502.53886,14569
1659520502.577092,14566
1659520502.615323,14569
1659520502.656797,14572
1659520502.698271,14576
1659520502.737526,14572
1659520502.776782,14568
1659520502.816037,14571
1659520502.856999,14572
1659520502.897961,14582
1659520502.935851,14587
1659520502.973741,14588
1659520503.011631,14605
1659520503.050886,14599
1659520503.090141,14604
1659520503.129397,14606
1659520503.171383,14610
1659520503.213369,14613
1659520503.251941,14606
1659520503.290514,14617
1659520503.329087,14610
1659520503.370561,14620
1659520503.412035,14602
1659520503.450949,14586
1659520503.489863,14587
1659520503.528777,14591
1659520503.570251,14589
1659520503.611725,14593
1659520503.650297,14603
1659520503.68887,14609
1659520503.727443,14623
1659520503.768917,14617
1659520503.810391,14615
1659520503.854084,14624
1659520503.897776,14627
1659520503.941469,14630
1659520503.980383,14627
1659520504.019297,14637
1659520504.058211,14631
1659520504.100197,14639
1659520504.142183,14637
1659520504.180756,14623
1659520504.219328,14619
1659520504.257901,14616
1659520504.299887,14623
1659520504.341873,14626
1659520504.379507,14626
1659520504.417141,14648
1659520504.454775,14646
1659520504.492409,14654
1659520504.531664,14652
1659520504.570919,14657
1659520504.610175,14654
1659520504.652161,14659
1659520504.694147,14661
1659520504.738864,14661
1659520504.783581,14677
1659520504.828298,14661
1659520504.860555,14651
1659520504.892813,14629
1659520504.937188,14593
1659520504.981564,14585
1659520505.025939,14588
1659520505.064512,14593
1659520505.103085,14600
1659520505.141657,14604
1659520505.183643,14616
1659520505.225629,14610
1659520505.264543,14617
1659520505.303457,14621
1659520505.342371,14628
1659520505.384357,14631
1659520505.426343,14634
1659520505.464916,14633
1659520505.503489,14634
1659520505.542061,14641
1659520505.580975,14631
1659520505.619889,14634
1659520505.658803,14624
1659520505.701301,14605
1659520505.743799,14588
1659520505.782713,14561
1659520505.821627,14552
1659520505.860541,14552
1659520505.900069,14561
1659520505.939598,14556
1659520505.979126,14574
1659520506.018655,14563
1659520506.058183,14570
1659520506.100169,14578
1659520506.142155,14582
1659520506.180045,14589
1659520506.217935,14579
1659520506.255825,14583
1659520506.296787,14586
1659520506.337749,14583
1659520506.377004,14600
1659520506.41626,14599
1659520506.455515,14603
1659520506.496989,14598
1659520506.538463,14577
1659520506.577377,14572
1659520506.616291,14573
1659520506.655205,14578
1659520506.699922,14593
1659520506.744639,14609
1659520506.789356,14602
1659520506.821613,14607
1659520506.853871,14616
1659520506.898247,14620
1659520506.942622,14622
1659520506.986998,14623
1659520507.030008,14628
1659520507.073018,14638
1659520507.111249,14646
1659520507.14948,14639
1659520507.187711,14654
1659520507.226625,14643
1659520507.265539,14636
1659520507.304453,14645
1659520507.345927,14646
1659520507.387402,14661
1659520507.425633,14662
1659520507.463864,14664
1659520507.502095,14684
1659520507.541692,14666
1659520507.581289,14670
1659520507.620885,14672
1659520507.662871,14672
1659520507.704857,14676
1659520507.74343,14682
1659520507.782003,14680
1659520507.820575,14679
1659520507.862561,14695
1659520507.904547,14682
1659520507.944144,14679
1659520507.983741,14695
1659520508.023337,14673
1659520508.063787,14657
1659520508.104237,14657
1659520508.14281,14654
1659520508.181383,14661
1659520508.219955,14666
1659520508.261429,14663
1659520508.302903,14665
1659520508.347279,14658
1659520508.391654,14667
1659520508.43603,14660
1659520508.469312,14662
1659520508.502593,14671
1659520508.547652,14676
1659520508.59271,14673
1659520508.637768,14682
1659520508.676682,14671
1659520508.715596,14682
1659520508.75451,14681
1659520508.795472,14681
1659520508.836434,14680
1659520508.876031,14665
1659520508.915627,14651
1659520508.955224,14662
1659520508.996698,14663
1659520509.038172,14656
1659520509.076745,14673
1659520509.115317,14682
1659520509.15389,14685
1659520509.192462,14683
1659520509.231035,14682
1659520509.269608,14670
1659520509.311594,14673
1659520509.35358,14664
1659520509.391811,14663
1659520509.430043,14675
1659520509.468274,14678
1659520509.506846,14698
1659520509.545419,14689
1659520509.583992,14690
1659520509.624954,14694
1659520509.665915,14668
1659520509.704829,14664
1659520509.743743,14679
1659520509.782657,14680
1659520509.824643,14679
1659520509.86663,14682
1659520509.908104,14684
1659520509.949578,14684
1659520509.988833,14683
1659520510.028088,14682
1659520510.067344,14687
1659520510.111719,14689
1659520510.156095,14680
1659520510.20047,14669
1659520510.234264,14681
1659520510.268058,14680
1659520510.312433,14665
1659520510.356809,14665
1659520510.401184,14654
1659520510.439757,14674
1659520510.478329,14664
1659520510.516902,14659
1659520510.558376,14662
1659520510.59985,14660
1659520510.638764,14661
1659520510.677678,14667
1659520510.716592,14680
1659520510.758066,14695
1659520510.79954,14699
1659520510.838796,14689
1659520510.878051,14696
1659520510.917306,14700
1659520510.959292,14697
1659520511.001278,14697
1659520511.040192,14671
1659520511.079106,14669
1659520511.11802,14666
1659520511.157275,14676
1659520511.196531,14668
1659520511.235786,14668
1659520511.278284,14665
1659520511.320782,14658
1659520511.358672,14653
1659520511.396562,14658
1659520511.434452,14666
1659520511.475926,14668
1659520511.5174,14673
1659520511.556314,14666
1659520511.595228,14657
1659520511.634142,14680
1659520511.675616,14669
1659520511.71709,14682
1659520511.755663,14663
1659520511.794235,14647
1659520511.832808,14658
1659520511.874794,14668
1659520511.91678,14675
1659520511.955011,14678
1659520511.993243,14703
1659520512.031474,14709
1659520512.07585,14725
1659520512.120225,14726
1659520512.164601,14728
1659520512.207099,14736
1659520512.249597,14742
1659520512.288169,14743
1659520512.326742,14741
1659520512.365314,14750
1659520512.404228,14743
1659520512.443142,14756
1659520512.482056,14736
1659520512.52353,14731
1659520512.565005,14761
1659520512.603577,14752
1659520512.64215,14765
1659520512.680722,14761
1659520512.721684,14766
1659520512.762646,14772
1659520512.801902,14772
1659520512.841157,14774
1659520512.880412,14774
1659520512.918643,14783
1659520512.956875,14780
1659520512.995106,14784
1659520513.037604,14780
1659520513.080102,14781
1659520513.119358,14769
1659520513.158613,14765
1659520513.197868,14761
1659520513.23883,14763
1659520513.279792,14773
1659520513.318365,14765
1659520513.356937,14789
1659520513.39551,14775
1659520513.438008,14772
1659520513.480506,14784
1659520513.525223,14780
1659520513.56994,14786
1659520513.614657,14789
1659520513.65323,14789
1659520513.691802,14799
1659520513.730375,14808
1659520513.771849,14804
1659520513.813323,14795
1659520513.851896,14785
1659520513.890468,14778
1659520513.929041,14771
1659520513.971027,14770
1659520514.013013,14781
1659520514.051927,14779
1659520514.090841,14796
1659520514.129755,14797
1659520514.168669,14791
1659520514.207583,14803
1659520514.246497,14800
1659520514.287971,14806
1659520514.329445,14802
1659520514.3687,14804
1659520514.407955,14805
1659520514.447211,14803
1659520514.489709,14807
1659520514.532207,14811
1659520514.57078,14801
1659520514.609352,14787
1659520514.647925,14793
1659520514.686497,14792
1659520514.72507,14799
1659520514.763643,14799
1659520514.804605,14812
1659520514.845567,14814
1659520514.887041,14810
1659520514.928515,14827
1659520514.969989,14822
1659520515.011463,14825
1659520515.052425,14830
1659520515.093387,14818
1659520515.132642,14827
1659520515.171898,14830
1659520515.211153,14827
1659520515.252115,14821
1659520515.293077,14808
1659520515.331991,14798
1659520515.370905,14803
1659520515.409819,14799
1659520515.449074,14804
1659520515.488329,14819
1659520515.527585,14821
1659520515.569059,14823
1659520515.610533,14821
1659520515.649447,14828
1659520515.688361,14825
1659520515.727275,14831
1659520515.769261,14839
1659520515.811247,14835
1659520515.849478,14849
1659520515.887709,14845
1659520515.925941,14846
1659520515.967415,14842
1659520516.008889,14841
1659520516.048144,14844
1659520516.087399,14841
1659520516.126655,14822
1659520516.167617,14816
1659520516.208579,14836
1659520516.246469,14827
1659520516.284359,14841
1659520516.322248,14843
1659520516.367648,14836
1659520516.413048,14848
1659520516.458447,14851
1659520516.500433,14852
1659520516.542419,14848
1659520516.580992,14860
1659520516.619565,14857
1659520516.658137,14864
1659520516.700123,14862
1659520516.74211,14861
1659520516.781365,14869
1659520516.82062,14865
1659520516.859875,14866
1659520516.898107,14861
1659520516.936338,14842
1659520516.974569,14841
1659520517.017579,14846
1659520517.06059,14842
1659520517.099162,14851
1659520517.137735,14861
1659520517.176307,14859
1659520517.216757,14863
1659520517.257207,14857
1659520517.296463,14863
1659520517.335718,14860
1659520517.374973,14869
1659520517.413546,14863
1659520517.452118,14871
1659520517.490691,14881
1659520517.532165,14870
1659520517.573639,14881
1659520517.612894,14881
1659520517.65215,14873
1659520517.691405,14870
1659520517.732879,14871
1659520517.774353,14851
1659520517.812926,14845
1659520517.851498,14853
1659520517.890071,14847
1659520517.932057,14858
1659520517.974043,14853
1659520518.018419,14857
1659520518.062794,14864
1659520518.10717,14870
1659520518.14506,14866
1659520518.18295,14869
1659520518.22084,14872
1659520518.262314,14873
1659520518.303788,14866
1659520518.34236,14876
1659520518.380933,14874
1659520518.419505,14873
1659520518.458419,14867
1659520518.497333,14873
1659520518.536247,14866
1659520518.577721,14857
1659520518.619195,14831
1659520518.658451,14831
1659520518.697706,14844
1659520518.736961,14855
1659520518.775534,14853
1659520518.814106,14873
1659520518.852679,14871
1659520518.894665,14888
1659520518.936651,14890
1659520518.975565,14884
1659520519.014479,14899
1659520519.053393,14886
1659520519.094867,14891
1659520519.136341,14893
1659520519.174572,14889
1659520519.212804,14883
1659520519.251035,14896
1659520519.293533,14887
1659520519.336031,14886
1659520519.380065,14901
1659520519.4241,14891
1659520519.468134,14882
1659520519.500904,14872
1659520519.533673,14867
1659520519.57839,14862
1659520519.623107,14874
1659520519.667824,14874
1659520519.706738,14879
1659520519.745652,14884
1659520519.784566,14884
1659520519.826552,14900
1659520519.868538,14906
1659520519.907793,14904
1659520519.947048,14905
1659520519.986304,14898
1659520520.027778,14902
1659520520.069252,14916
1659520520.108166,14910
1659520520.14708,14918
1659520520.185994,14925
1659520520.224908,14922
1659520520.263822,14919
1659520520.302736,14905
1659520520.345234,14893
1659520520.387732,14902
1659520520.425963,14897
1659520520.464194,14906
1659520520.502426,14903
1659520520.543388,14916
1659520520.58435,14918
1659520520.623264,14911
1659520520.662178,14921
1659520520.701092,14927
1659520520.739323,14923
1659520520.777554,14939
1659520520.815785,14931
1659520520.857771,14937
1659520520.899757,14935
1659520520.942256,14932
1659520520.984754,14941
1659520521.023326,14943
1659520521.061899,14946
1659520521.100471,14944
1659520521.144847,14933
1659520521.189223,14944
1659520521.233598,14945
1659520521.267904,14948
1659520521.30221,14945
1659520521.345902,14950
1659520521.389595,14962
1659520521.433288,14954
1659520521.465546,14968
1659520521.497803,14974
1659520521.542179,14982
1659520521.586555,14999
1659520521.63093,15006
1659520521.669161,15007
1659520521.707392,15005
1659520521.745624,15016
1659520521.787098,15019
1659520521.828572,15026
1659520521.868169,15025
1659520521.907765,15022
1659520521.947362,15015
1659520521.985934,15008
1659520522.024507,15003
1659520522.06308,15007
1659520522.104042,15019
1659520522.145004,15013
1659520522.184942,15027
1659520522.22488,15006
1659520522.264818,14997
1659520522.306292,15005
1659520522.347766,15003
1659520522.386338,15010
1659520522.424911,15029
1659520522.463484,15029
1659520522.504958,15026
1659520522.546432,15035
1659520522.585687,15022
1659520522.624943,15013
1659520522.664198,15032
1659520522.70516,15007
1659520522.746122,14994
1659520522.785036,14950
1659520522.82395,14948
1659520522.862864,14957
1659520522.907239,14979
1659520522.951615,14983
1659520522.99599,14994
1659520523.029272,15011
1659520523.062554,15005
1659520523.107612,15030
1659520523.15267,15032
1659520523.197728,15031
1659520523.239202,15041
1659520523.280677,15034
1659520523.318908,15038
1659520523.357139,15034
1659520523.39537,15036
1659520523.434626,15033
1659520523.473881,15038
1659520523.513136,15029
1659520523.555634,15017
1659520523.598132,15019
1659520523.636364,15015
1659520523.674595,15023
1659520523.712826,15031
1659520523.753788,15036
1659520523.79475,15042
1659520523.833664,15037
1659520523.872578,15046
1659520523.911492,15047
1659520523.949723,15050
1659520523.987955,15058
1659520524.026186,15052
1659520524.068172,15071
1659520524.110158,15069
1659520524.149072,15063
1659520524.187986,15076
1659520524.2269,15066
1659520524.268374,15070
1659520524.309848,15070
1659520524.348762,15067
1659520524.387676,15069
1659520524.42659,15083
1659520524.468576,15072
1659520524.510562,15076
1659520524.554938,15081
1659520524.599313,15081
1659520524.643689,15086
1659520524.676458,15081
1659520524.709228,15086
1659520524.753604,15080
1659520524.797979,15086
1659520524.842355,15079
1659520524.880586,15069
1659520524.918817,15081
1659520524.957048,15063
1659520524.998523,15080
1659520525.039997,15079
1659520525.078911,15074
1659520525.117825,15079
1659520525.156739,15092
1659520525.198213,15077
1659520525.239686,15085
1659520525.2786,15081
1659520525.317514,15073
1659520525.356428,15083
1659520525.395684,15069
1659520525.434939,15074
1659520525.474194,15078
1659520525.513791,15077
1659520525.553388,15068
1659520525.592984,15049
1659520525.63736,15055
1659520525.681735,15050
1659520525.726111,15059
1659520525.759392,15056
1659520525.792674,15058
1659520525.836709,15062
1659520525.880743,15057
1659520525.924777,15065
1659520525.963349,15058
1659520526.001922,15055
1659520526.040495,15056
1659520526.082993,15058
1659520526.125491,15050
1659520526.164746,15047
1659520526.204001,15028
1659520526.243257,15018
1659520526.283707,15028
1659520526.324157,15028
1659520526.363412,15027
1659520526.402668,15032
1659520526.441923,15041
1659520526.480837,15043
1659520526.519751,15038
1659520526.558665,15054
1659520526.600139,15053
1659520526.641613,15068
1659520526.680868,15073
1659520526.720123,15071
1659520526.759379,15076
1659520526.801365,15063
1659520526.843351,15038
1659520526.881241,15022
1659520526.919131,15022
1659520526.957021,15003
1659520526.999519,15014
1659520527.042017,15029
1659520527.080589,15039
1659520527.119162,15048
1659520527.157735,15048
1659520527.198184,15039
1659520527.238635,15033
1659520527.277207,15021
1659520527.31578,14985
1659520527.354352,14949
1659520527.399069,14882
1659520527.443786,14775
1659520527.488503,14656
1659520527.529977,14574
1659520527.571451,14522
1659520527.610365,14481
1659520527.649279,14463
1659520527.688193,14446
1659520527.730179,14435
1659520527.772165,14415
1659520527.810738,14389
1659520527.84931,14372
1659520527.887883,14363
1659520527.926456,14361
1659520527.965028,14370
1659520528.003601,14370
1659520528.046099,14366
1659520528.088597,14318
1659520528.126828,14221
1659520528.16506,14136
1659520528.203291,14070
1659520528.242205,13997
1659520528.281119,13955
1659520528.320033,13923
1659520528.361507,13909
1659520528.402981,13889
1659520528.442236,13845
1659520528.481491,13815
1659520528.520747,13803
1659520528.561709,13779
1659520528.602671,13773
1659520528.641926,13785
1659520528.681181,13796
1659520528.720437,13806
1659520528.761911,13792
1659520528.803385,13721
1659520528.84264,13636
1659520528.881896,13595
1659520528.921151,13567
1659520528.963137,13543
1659520529.005123,13559
1659520529.04984,13574
1659520529.094557,13592
1659520529.139274,13593
1659520529.171531,13599
1659520529.203789,13609
1659520529.248164,13618
1659520529.29254,13632
1659520529.336915,13666
1659520529.376171,13688
1659520529.415426,13713
1659520529.454681,13722
1659520529.495643,13736
1659520529.536606,13731
1659520529.575178,13668
1659520529.613751,13602
1659520529.652323,13574
1659520529.691579,13554
1659520529.730834,13555
1659520529.770089,13564
1659520529.811563,13609
1659520529.853037,13660
1659520529.891951,13687
1659520529.930865,13723
1659520529.969779,13728
1659520530.011253,13742
1659520530.052727,13761
1659520530.091641,13785
1659520530.130555,13812
1659520530.169469,13851
1659520530.2077,13879
1659520530.245932,13890
1659520530.284163,13913
1659520530.327173,13918
1659520530.370183,13888
1659520530.411145,13857
1659520530.452107,13854
1659520530.489997,13849
1659520530.527887,13851
1659520530.565777,13867
1659520530.610152,13881
1659520530.654528,13888
1659520530.698904,13886
1659520530.737818,13876
1659520530.776731,13893
1659520530.815645,13908
1659520530.854218,13933
1659520530.892791,13933
1659520530.931363,13944
1659520530.974373,13953
1659520531.017384,13967
1659520531.055956,13977
1659520531.094529,13988
1659520531.133101,13997
1659520531.171674,14013
1659520531.210247,14012
1659520531.248819,13970
1659520531.290805,13957
1659520531.332791,13957
1659520531.371705,13955
1659520531.410619,13970
1659520531.449533,13986
1659520531.489983,13993
1659520531.530433,13980
1659520531.569689,13980
1659520531.608944,13975
1659520531.648199,13985
1659520531.689161,14000
1659520531.730123,14003
1659520531.769379,14019
1659520531.808634,14011
1659520531.847889,14020
1659520531.892947,14005
1659520531.938006,14008
1659520531.983064,14012
1659520532.02505,13999
1659520532.067036,13974
1659520532.105267,13949
1659520532.143499,13949
1659520532.18173,13945
1659520532.224228,13961
1659520532.266726,13965
1659520532.305981,13980
1659520532.345237,13987
1659520532.384492,13991
1659520532.423064,13991
1659520532.461637,13994
1659520532.50021,14013
1659520532.541684,14001
1659520532.583158,14005
1659520532.621731,14022
1659520532.660303,14024
1659520532.698876,14027
1659520532.74035,13995
1659520532.781824,13982
1659520532.820738,13941
1659520532.859652,13941
1659520532.898566,13916
1659520532.936797,13901
1659520532.975028,13908
1659520533.013259,13913
1659520533.054734,13908
1659520533.096208,13900
1659520533.135122,13906
1659520533.174036,13912
1659520533.21295,13940
1659520533.254936,13952
1659520533.296922,13950
1659520533.340956,13965
1659520533.38499,13973
1659520533.429024,13976
1659520533.462306,13975
1659520533.495588,13986
1659520533.539963,13957
1659520533.584339,13925
1659520533.628714,13909
1659520533.666945,13896
1659520533.705177,13904
1659520533.743408,13910
1659520533.785394,13923
1659520533.82738,13922
1659520533.866294,13923
1659520533.905208,13917
1659520533.944122,13932
1659520533.984572,13930
1659520534.025022,13937
1659520534.063936,13939
1659520534.10285,13951
1659520534.141764,13963
1659520534.180678,13960
1659520534.219592,13971
1659520534.258506,13991
1659520534.301004,13986
1659520534.343502,13976
1659520534.382075,13957
1659520534.420647,13959
1659520534.45922,13953
1659520534.501206,13979
1659520534.543192,13977
1659520534.582106,13983
1659520534.62102,14008
1659520534.659934,14011
1659520534.698848,14012
1659520534.737762,14018
1659520534.776676,14030
1659520534.81815,14028
1659520534.859624,14044
1659520534.901098,14048
1659520534.942572,14058
1659520534.980803,14054
1659520535.019034,14060
1659520535.057266,14066
1659520535.101983,14061
1659520535.146699,14042
1659520535.191417,14013
1659520535.225722,14005
1659520535.260028,14004
1659520535.304062,13992
1659520535.348096,14000
1659520535.39213,14009
1659520535.4249,14013
1659520535.45767,14008
1659520535.502728,14014
1659520535.547786,14019
1659520535.592844,14019
1659520535.631758,14019
1659520535.670672,14021
1659520535.709586,14027
1659520535.75106,14029
1659520535.792534,14060
1659520535.831448,14065
1659520535.870362,14075
1659520535.909276,14072
1659520535.947166,14066
1659520535.985056,14072
1659520536.022946,14064
1659520536.06186,14062
1659520536.100774,14043
1659520536.139688,14048
1659520536.182186,14041
1659520536.224684,14048
1659520536.268377,14069
1659520536.31207,14069
1659520536.355763,14070
1659520536.389044,14076
1659520536.422326,14082
1659520536.467043,14069
1659520536.51176,14085
1659520536.556477,14094
1659520536.594708,14090
1659520536.632939,14119
1659520536.67117,14119
1659520536.710084,14127
1659520536.748998,14125
1659520536.787912,14117
1659520536.83041,14124
1659520536.872909,14142
1659520536.910798,14151
1659520536.948688,14153
1659520536.986578,14162
1659520537.025492,14159
1659520537.064406,14173
1659520537.10332,14160
1659520537.144282,14145
1659520537.185244,14149
1659520537.224158,14133
1659520537.263072,14146
1659520537.301986,14155
1659520537.34346,14159
1659520537.384934,14160
1659520537.424189,14171
1659520537.463445,14159
1659520537.5027,14149
1659520537.543662,14152
1659520537.584624,14143
1659520537.624221,14138
1659520537.663817,14131
1659520537.703414,14125
1659520537.7454,14121
1659520537.787386,14125
1659520537.832103,14133
1659520537.87682,14124
1659520537.921537,14139
1659520537.960109,14137
1659520537.998682,14142
1659520538.037255,14153
1659520538.078729,14140
1659520538.120203,14153
1659520538.159117,14152
1659520538.198031,14151
1659520538.236945,14131
1659520538.277907,14120
1659520538.318869,14124
1659520538.357783,14122
1659520538.396697,14128
1659520538.435611,14124
1659520538.474183,14134
1659520538.512756,14128
1659520538.551328,14128
1659520538.593315,14135
1659520538.635301,14143
1659520538.674556,14150
1659520538.713811,14151
1659520538.753067,14147
1659520538.794541,14151
1659520538.836015,14158
1659520538.874929,14160
1659520538.913843,14153
1659520538.952757,14143
1659520538.991329,14118
1659520539.029902,14110
1659520539.068474,14113
1659520539.110461,14105
1659520539.152447,14124
1659520539.191019,14119
1659520539.229592,14134
1659520539.268164,14134
1659520539.309126,14145
1659520539.350088,14146
1659520539.394464,14146
1659520539.438839,14154
1659520539.483215,14159
1659520539.517009,14155
1659520539.550802,14161
1659520539.594495,14166
1659520539.638188,14149
1659520539.681881,14146
1659520539.715675,14133
1659520539.749468,14127
1659520539.793503,14129
1659520539.837537,14138
1659520539.881571,14137
1659520539.920485,14137
1659520539.959399,14149
1659520539.998313,14146
1659520540.040299,14153
1659520540.082285,14165
1659520540.12154,14160
1659520540.160796,14169
1659520540.200051,14172
1659520540.240501,14170
1659520540.280951,14182
1659520540.319865,14164
1659520540.358779,14150
1659520540.397693,14144
1659520540.436265,14140
1659520540.474838,14142
1659520540.513411,14146
1659520540.555397,14151
1659520540.597383,14163
1659520540.636638,14164
1659520540.675893,14166
1659520540.715149,14181
1659520540.756623,14177
1659520540.798097,14182
1659520540.839571,14184
1659520540.881045,14196
1659520540.922519,14195
1659520540.963993,14197
1659520541.00359,14195
1659520541.043186,14190
1659520541.082783,14185
1659520541.124257,14181
1659520541.165731,14179
1659520541.204304,14180
1659520541.242877,14180
1659520541.281449,14190
1659520541.320704,14193
1659520541.35996,14195
1659520541.399215,14207
1659520541.440177,14205
1659520541.481139,14212
1659520541.519712,14215
1659520541.558284,14225
1659520541.596857,14221
1659520541.639355,14220
1659520541.681853,14225
1659520541.720084,14226
1659520541.758316,14235
1659520541.796547,14235
1659520541.838021,14235
1659520541.879495,14216
1659520541.91875,14210
1659520541.958005,14198
1659520541.997261,14202
1659520542.039247,14211
1659520542.081233,14222
1659520542.119806,14235
1659520542.158378,14239
1659520542.196951,14240
1659520542.242009,14238
1659520542.287067,14246
1659520542.332126,14250
1659520542.372576,14259
1659520542.413026,14258
1659520542.450916,14265
1659520542.488806,14261
1659520542.526695,14265
1659520542.569193,14264
1659520542.611691,14259
1659520542.650264,14263
1659520542.688837,14242
1659520542.727409,14227
1659520542.76564,14240
1659520542.803872,14231
1659520542.842103,14243
1659520542.883577,14237
1659520542.925051,14248
1659520542.963965,14253
1659520543.002879,14255
1659520543.041793,14258
1659520543.080707,14244
1659520543.119621,14264
1659520543.158535,14262
1659520543.200521,14273
1659520543.242507,14269
1659520543.281421,14268
1659520543.320335,14273
1659520543.359249,14274
1659520543.400723,14274
1659520543.442197,14269
1659520543.481794,14259
1659520543.52139,14243
1659520543.560987,14256
1659520543.602461,14252
1659520543.643935,14249
1659520543.687969,14269
1659520543.732004,14266
1659520543.776038,14258
1659520543.808807,14263
1659520543.841577,14259
1659520543.886294,14257
1659520543.931011,14261
1659520543.975728,14267
1659520544.009521,14261
1659520544.043315,14276
1659520544.087349,14281
1659520544.131384,14275
1659520544.175418,14256
1659520544.214673,14237
1659520544.253928,14230
1659520544.293184,14241
1659520544.334658,14240
1659520544.376132,14236
1659520544.415387,14260
1659520544.454643,14253
1659520544.493898,14257
1659520544.535884,14267
1659520544.57787,14261
1659520544.616442,14271
1659520544.655015,14273
1659520544.693588,14271
1659520544.73216,14259
1659520544.770733,14259
1659520544.809305,14250
1659520544.851292,14259
1659520544.893278,14260
1659520544.932192,14268
1659520544.971106,14269
1659520545.01002,14248
1659520545.047909,14241
1659520545.085799,14249
1659520545.123689,14244
1659520545.165675,14236
1659520545.207661,14251
1659520545.25016,14258
1659520545.292658,14257
1659520545.33123,14266
1659520545.369803,14274
1659520545.408376,14271
1659520545.449337,14296
1659520545.490299,14293
1659520545.529896,14297
1659520545.569493,14312
1659520545.60909,14309
1659520545.652782,14314
1659520545.696475,14309
1659520545.740168,14317
1659520545.77345,14304
1659520545.806731,14301
1659520545.851448,14295
1659520545.896165,14298
1659520545.940882,14306
1659520545.979113,14312
1659520546.017345,14322
1659520546.055576,14317
1659520546.096538,14324
1659520546.1375,14329
1659520546.176755,14322
1659520546.216011,14331
1659520546.255266,14320
1659520546.29674,14336
1659520546.338214,14337
1659520546.377128,14346
1659520546.416042,14339
1659520546.454956,14336
1659520546.494211,14342
1659520546.533466,14338
1659520546.572722,14331
1659520546.614196,14327
1659520546.65567,14339
1659520546.694584,14345
1659520546.733498,14350
1659520546.772412,14355
1659520546.81491,14350
1659520546.857408,14364
1659520546.895981,14358
1659520546.934553,14358
1659520546.973126,14355
1659520547.014088,14374
1659520547.05505,14369
1659520547.093964,14370
1659520547.132878,14377
1659520547.171792,14368
1659520547.21429,14364
1659520547.256788,14361
1659520547.295019,14341
1659520547.333251,14331
1659520547.371482,14336
1659520547.41654,14343
1659520547.461598,14358
1659520547.506656,14364
1659520547.548131,14369
1659520547.589605,14376
1659520547.628177,14374
1659520547.66675,14373
1659520547.705322,14387
1659520547.74782,14372
1659520547.790319,14374
1659520547.829232,14378
1659520547.868146,14381
1659520547.90706,14382
1659520547.945292,14382
1659520547.983523,14387
1659520548.021754,14371
1659520548.063228,14387
1659520548.104702,14369
1659520548.143616,14367
1659520548.18253,14378
1659520548.221444,14367
1659520548.259676,14366
1659520548.297907,14360
1659520548.336138,14365
1659520548.3771,14357
1659520548.418062,14363
1659520548.456976,14362
1659520548.49589,14370
1659520548.534804,14379
1659520548.57679,14377
1659520548.618776,14388
1659520548.65769,14381
1659520548.696604,14371
1659520548.735518,14370
1659520548.776992,14372
1659520548.818466,14378
1659520548.857721,14384
1659520548.896977,14390
1659520548.936232,14385
1659520548.980608,14391
1659520549.024983,14389
1659520549.069359,14383
1659520549.111857,14395
1659520549.154355,14394
1659520549.192586,14394
1659520549.230817,14400
1659520549.269049,14395
1659520549.310011,14387
1659520549.350973,14384
1659520549.389887,14374
1659520549.428801,14381
1659520549.467715,14383
1659520549.506629,14386
1659520549.545542,14391
1659520549.584456,14396
1659520549.623029,14398
1659520549.661602,14396
1659520549.700174,14404
1659520549.742672,14399
1659520549.78517,14402
1659520549.824084,14405
1659520549.862998,14407
1659520549.901912,14402
1659520549.943386,14404
1659520549.98486,14385
1659520550.024116,14377
1659520550.063371,14382
1659520550.102626,14386
1659520550.145124,14389
1659520550.187623,14402
1659520550.225513,14406
1659520550.263402,14407
1659520550.301292,14413
1659520550.342766,14411
1659520550.38424,14417
1659520550.428616,14407
1659520550.472991,14413
1659520550.517367,14420
1659520550.550649,14427
1659520550.58393,14420
1659520550.628306,14408
1659520550.672682,14396
1659520550.717057,14369
1659520550.756312,14371
1659520550.795568,14362
1659520550.834823,14371
1659520550.875785,14385
1659520550.916747,14385
1659520550.955661,14384
1659520550.994575,14382
1659520551.033489,14391
1659520551.075987,14386
1659520551.118485,14400
1659520551.157058,14402
1659520551.19563,14407
1659520551.234203,14412
1659520551.272775,14381
1659520551.311348,14356
1659520551.349921,14339
1659520551.391395,14334
1659520551.432869,14337
1659520551.471442,14340
1659520551.510014,14351
1659520551.548587,14360
1659520551.587159,14372
1659520551.625732,14368
1659520551.664304,14375
1659520551.70868,14377
1659520551.753056,14372
1659520551.797431,14380
1659520551.835662,14377
1659520551.873893,14386
1659520551.912125,14375
1659520551.954111,14354
1659520551.996097,14326
1659520552.035011,14292
1659520552.073925,14299
1659520552.112839,14296
1659520552.151412,14300
1659520552.189984,14316
1659520552.228557,14317
1659520552.271055,14311
1659520552.313553,14331
1659520552.352467,14319
1659520552.391381,14334
1659520552.430295,14342
1659520552.470745,14346
1659520552.511195,14358
1659520552.550109,14353
1659520552.589023,14362
1659520552.627937,14359
1659520552.670435,14367
1659520552.712933,14366
1659520552.751505,14325
1659520552.790078,14298
1659520552.828651,14284
1659520552.869613,14280
1659520552.910575,14267
1659520552.94983,14266
1659520552.989085,14271
1659520553.028341,14266
1659520553.072716,14276
1659520553.117092,14287
1659520553.161467,14293
1659520553.195261,14300
1659520553.229055,14323
1659520553.274113,14317
1659520553.319171,14321
1659520553.364229,14339
1659520553.405191,14330
1659520553.446154,14340
1659520553.484726,14341
1659520553.523299,14351
1659520553.561871,14349
1659520553.601468,14337
1659520553.641065,14307
1659520553.680661,14291
1659520553.721111,14289
1659520553.761561,14287
1659520553.800134,14282
1659520553.838706,14291
1659520553.877279,14306
1659520553.918753,14316
1659520553.960227,14332
1659520553.999141,14332
1659520554.038055,14336
1659520554.076969,14360
1659520554.115542,14353
1659520554.154114,14362
1659520554.192687,14361
1659520554.234161,14368
1659520554.275635,14382
1659520554.31489,14374
1659520554.354146,14380
1659520554.393401,14382
1659520554.434875,14382
1659520554.476349,14363
1659520554.514922,14342
1659520554.553494,14327
1659520554.592067,14314
1659520554.633541,14307
1659520554.675015,14296
1659520554.713246,14306
1659520554.751477,14327
1659520554.789709,14328
1659520554.833743,14344
1659520554.877777,14361
1659520554.921811,14365
1659520554.963798,14383
1659520555.005784,14396
1659520555.044356,14398
1659520555.082929,14404
1659520555.121501,14425
1659520555.162975,14416
1659520555.204449,14429
1659520555.244046,14419
1659520555.283643,14426
1659520555.323239,14415
1659520555.361812,14385
1659520555.400385,14367
1659520555.438957,14338
1659520555.480943,14347
1659520555.522929,14351
1659520555.562526,14353
1659520555.602123,14372
1659520555.641719,14379
1659520555.682681,14377
1659520555.723644,14370
1659520555.761875,14370
1659520555.800106,14369
1659520555.838337,14374
1659520555.877593,14375
1659520555.916848,14383
1659520555.956103,14377
1659520555.998089,14373
1659520556.040075,14377
1659520556.078648,14355
1659520556.11722,14358
1659520556.155793,14339
1659520556.197267,14347
1659520556.238741,14345
1659520556.277314,14318
1659520556.315886,14292
1659520556.354459,14254
1659520556.396445,14240
1659520556.438431,14224
1659520556.48349,14210
1659520556.528548,14219
1659520556.573606,14206
1659520556.606376,14186
1659520556.639145,14177
1659520556.683179,14192
1659520556.727214,14188
1659520556.771248,14207
1659520556.805554,14207
1659520556.839859,14217
1659520556.884576,14237
1659520556.929293,14245
1659520556.97401,14266
1659520557.0119,14276
1659520557.04979,14297
1659520557.08768,14303
1659520557.129154,14309
1659520557.170628,14325
1659520557.2092,14304
1659520557.247773,14292
1659520557.286346,14277
1659520557.32526,14275
1659520557.364173,14305
1659520557.403087,14299
1659520557.444561,14312
1659520557.486036,14312
1659520557.52495,14319
1659520557.563864,14336
1659520557.602777,14356
1659520557.643739,14357
1659520557.684701,14366
1659520557.723957,14379
1659520557.763212,14361
1659520557.802467,14370
1659520557.844454,14377
1659520557.88644,14384
1659520557.924671,14390
1659520557.962902,14397
1659520558.001133,14400
1659520558.042095,14396
1659520558.083057,14394
1659520558.122313,14369
1659520558.161568,14360
1659520558.200823,14386
1659520558.244858,14383
1659520558.288892,14416
1659520558.332926,14420
1659520558.365696,14416
1659520558.398465,14434
1659520558.443523,14444
1659520558.488582,14460
1659520558.53364,14476
1659520558.567434,14485
1659520558.601228,14486
1659520558.645603,14492
1659520558.689979,14489
1659520558.734354,14483
1659520558.773609,14486
1659520558.812865,14484
1659520558.85212,14484
1659520558.893594,14471
1659520558.935068,14475
1659520558.973641,14467
1659520559.012213,14462
1659520559.050786,14417
1659520559.093284,14405
1659520559.135782,14418
1659520559.174355,14406
1659520559.212927,14420
1659520559.2515,14432
1659520559.290072,14429
1659520559.328645,14446
1659520559.367218,14441
1659520559.40818,14446
1659520559.449142,14453
1659520559.488397,14460
1659520559.527653,14469
1659520559.566908,14467
1659520559.608382,14480
1659520559.649856,14481
1659520559.68877,14477
1659520559.727684,14483
1659520559.766598,14494
1659520559.809096,14489
1659520559.851594,14497
1659520559.889825,14491
1659520559.928056,14475
1659520559.966288,14468
1659520560.007762,14460
1659520560.049236,14476
1659520560.093953,14473
1659520560.13867,14478
1659520560.183387,14501
1659520560.221959,14501
1659520560.260532,14505
1659520560.299104,14515
1659520560.340066,14517
1659520560.381028,14527
1659520560.419601,14543
1659520560.458174,14539
1659520560.496746,14546
1659520560.534977,14551
1659520560.573209,14547
1659520560.61144,14555
1659520560.652914,14546
1659520560.694388,14556
1659520560.733985,14554
1659520560.773582,14554
1659520560.813178,14537
1659520560.85414,14528
1659520560.895102,14533
1659520560.933675,14526
1659520560.972247,14534
1659520561.01082,14536
1659520561.050758,14534
1659520561.090696,14532
1659520561.130634,14528
1659520561.172108,14533
1659520561.213582,14533
1659520561.252155,14548
1659520561.290727,14536
1659520561.3293,14535
1659520561.370774,14531
1659520561.412248,14537
1659520561.451162,14537
1659520561.490076,14524
1659520561.52899,14529
1659520561.573024,14509
1659520561.617058,14523
1659520561.661093,14519
1659520561.703079,14488
1659520561.745065,14495
1659520561.783979,14483
1659520561.822893,14477
1659520561.861806,14475
1659520561.902769,14466
1659520561.943731,14467
1659520561.983669,14472
1659520562.023607,14477
1659520562.063545,14470
1659520562.105019,14479
1659520562.146493,14489
1659520562.186635,14490
1659520562.226778,14489
1659520562.266921,14491
1659520562.307064,14496
1659520562.347207,14488
1659520562.384585,14506
1659520562.421962,14493
1659520562.45934,14511
1659520562.496718,14504
1659520562.538704,14478
1659520562.58069,14444
1659520562.619604,14410
1659520562.658518,14402
1659520562.697432,14391
1659520562.738906,14387
1659520562.78038,14392
1659520562.818612,14391
1659520562.856843,14395
1659520562.895074,14406
1659520562.93706,14413
1659520562.979046,14421
1659520563.01796,14437
1659520563.056874,14433
1659520563.095788,14433
1659520563.140164,14437
1659520563.184539,14440
1659520563.228915,14436
1659520563.270389,14441
1659520563.311863,14450
1659520563.350777,14449
1659520563.389691,14447
1659520563.428605,14423
1659520563.470079,14377
1659520563.511553,14376
1659520563.550126,14371
1659520563.588698,14369
1659520563.627271,14401
1659520563.665843,14398
1659520563.704416,14407
1659520563.742989,14406
1659520563.783951,14406
1659520563.824913,14405
1659520563.863485,14413
1659520563.902058,14414
1659520563.94063,14417
1659520563.982617,14424
1659520564.024603,14420
1659520564.063858,14425
1659520564.103113,14433
1659520564.142369,14429
1659520564.180941,14438
1659520564.219514,14453
1659520564.258086,14441
1659520564.300072,14417
1659520564.342059,14392
1659520564.381655,14361
1659520564.421252,14363
1659520564.460849,14366
1659520564.501811,14380
1659520564.542773,14411
1659520564.587148,14413
1659520564.631524,14433
1659520564.675899,14436
1659520564.709181,14433
1659520564.742463,14429
1659520564.786155,14434
1659520564.829848,14428
1659520564.873541,14431
1659520564.907335,14440
1659520564.941128,14433
1659520564.985846,14433
1659520565.030562,14415
1659520565.075279,14406
1659520565.114193,14370
1659520565.153107,14313
1659520565.192021,14245
1659520565.233495,14212
1659520565.274969,14203
1659520565.314907,14206
1659520565.354845,14236
1659520565.394783,14242
1659520565.435745,14260
1659520565.476707,14270
1659520565.515621,14267
1659520565.554535,14279
1659520565.593449,14291
1659520565.632363,14300
1659520565.671277,14313
1659520565.710191,14326
1659520565.751665,14336
1659520565.793139,14346
1659520565.831712,14347
1659520565.870284,14330
1659520565.908857,14282
1659520565.950331,14250
1659520565.991805,14248
1659520566.029695,14240
1659520566.067585,14256
1659520566.105475,14270
1659520566.147461,14281
1659520566.189447,14296
1659520566.228019,14297
1659520566.266592,14298
1659520566.305165,14301
1659520566.346639,14313
1659520566.388113,14307
1659520566.426686,14315
1659520566.465258,14329
1659520566.503831,14334
1659520566.548889,14332
1659520566.593947,14307
1659520566.639005,14241
1659520566.671775,14213
1659520566.704545,14188
1659520566.74892,14170
1659520566.793296,14182
1659520566.837672,14195
1659520566.879658,14203
1659520566.921643,14220
1659520566.960216,14221
1659520566.998789,14231
1659520567.037361,14253
1659520567.075593,14252
1659520567.113824,14263
1659520567.152055,14270
1659520567.194553,14281
1659520567.237051,14293
1659520567.275283,14297
1659520567.313514,14291
1659520567.351745,14233
1659520567.390318,14199
1659520567.42889,14161
1659520567.467463,14140
1659520567.509449,14153
1659520567.551435,14160
1659520567.590349,14177
1659520567.629263,14185
1659520567.668177,14172
1659520567.710163,14171
1659520567.752149,14189
1659520567.791404,14196
1659520567.83066,14221
1659520567.869915,14230
1659520567.910877,14242
1659520567.951839,14262
1659520567.990753,14254
1659520568.029667,14264
1659520568.068581,14262
1659520568.110567,14243
1659520568.152553,14167
1659520568.191467,14095
1659520568.230381,14072
1659520568.269295,14038
1659520568.313329,14024
1659520568.357363,14025
1659520568.401398,14044
1659520568.443384,14056
1659520568.48537,14063
1659520568.524625,14076
1659520568.56388,14086
1659520568.603136,14103
1659520568.64205,14122
1659520568.680964,14146
1659520568.719877,14147
1659520568.761352,14158
1659520568.802826,14182
1659520568.84174,14179
1659520568.880654,14194
1659520568.919568,14205
1659520568.961042,14213
1659520569.002516,14201
1659520569.041771,14136
1659520569.081026,14095
1659520569.120282,14051
1659520569.158854,14035
1659520569.197427,14025
1659520569.235999,14036
1659520569.276961,14059
1659520569.317924,14051
1659520569.355813,14055
1659520569.393703,14080
1659520569.431593,14083
1659520569.474091,14106
1659520569.516589,14118
1659520569.555162,14134
1659520569.593735,14136
1659520569.632307,14170
1659520569.673269,14172
1659520569.714231,14174
1659520569.758607,14193
1659520569.802982,14205
1659520569.847358,14214
1659520569.886613,14219
1659520569.925869,14199
1659520569.965124,14140
1659520570.006598,14107
1659520570.048072,14071
1659520570.086986,14031
1659520570.1259,14011
1659520570.164814,13994
1659520570.206288,14008
1659520570.247762,13990
1659520570.285993,13987
1659520570.324224,13986
1659520570.362456,14003
1659520570.40137,14011
1659520570.440284,14022
1659520570.479198,14041
1659520570.521696,14050
1659520570.564194,14066
1659520570.602084,14067
1659520570.639974,14078
1659520570.677864,14099
1659520570.71985,14095
1659520570.761836,14107
1659520570.801091,14097
1659520570.840346,14037
1659520570.879602,13961
1659520570.918515,13910
1659520570.957429,13872
1659520570.996343,13846
1659520571.038841,13855
1659520571.08134,13861
1659520571.120595,13871
1659520571.15985,13881
1659520571.199106,13883
1659520571.239556,13891
1659520571.280006,13905
1659520571.324381,13917
1659520571.368757,13929
1659520571.413132,13947
1659520571.447438,13963
1659520571.481744,13970
1659520571.525437,13992
1659520571.569129,14000
1659520571.612822,14005
1659520571.64508,14029
1659520571.677337,14045
1659520571.722396,14051
1659520571.767454,14041
1659520571.812512,13997
1659520571.850744,13954
1659520571.888975,13961
1659520571.927206,13947
1659520571.969192,13948
1659520572.011178,13956
1659520572.050092,13972
1659520572.089006,13979
1659520572.12792,13982
1659520572.166493,14006
1659520572.205065,14022
1659520572.243638,14042
1659520572.2846,14062
1659520572.325562,14071
1659520572.365159,14097
1659520572.404755,14099
1659520572.444352,14113
1659520572.484802,14122
1659520572.525252,14133
1659520572.563824,14137
1659520572.602397,14146
1659520572.64097,14148
1659520572.679542,14131
1659520572.718115,14109
1659520572.756687,14100
1659520572.800722,14092
1659520572.844756,14098
1659520572.88879,14107
1659520572.927704,14115
1659520572.966618,14125
1659520573.005532,14129
1659520573.044446,14138
1659520573.08336,14146
1659520573.122274,14150
1659520573.16426,14161
1659520573.206246,14169
1659520573.244819,14179
1659520573.283391,14176
1659520573.321964,14188
1659520573.36395,14197
1659520573.405936,14198
1659520573.44485,14201
1659520573.483764,14193
1659520573.522678,14191
1659520573.564152,14151
1659520573.605626,14122
1659520573.64454,14103
1659520573.683454,14103
1659520573.722368,14100
1659520573.766743,14104
1659520573.811119,14116
1659520573.855494,14119
1659520573.888264,14129
1659520573.921034,14137
1659520573.965751,14147
1659520574.010468,14157
1659520574.055184,14168
1659520574.08949,14169
1659520574.123796,14177
1659520574.16783,14185
1659520574.211864,14188
1659520574.255898,14195
1659520574.28918,14209
1659520574.322462,14211
1659520574.36752,14214
1659520574.412578,14178
1659520574.457637,14143
1659520574.496551,14128
1659520574.535465,14108
1659520574.574378,14102
1659520574.61534,14110
1659520574.656302,14119
1659520574.695558,14123
1659520574.734813,14147
1659520574.774068,14130
1659520574.811958,14144
1659520574.849848,14158
1659520574.887738,14160
1659520574.929724,14168
1659520574.97171,14169
1659520575.010966,14178
1659520575.050221,14180
1659520575.089476,14190
1659520575.130438,14204
1659520575.1714,14209
1659520575.210314,14210
1659520575.249228,14195
1659520575.288142,14151
1659520575.33064,14106
1659520575.373138,14055
1659520575.41137,14031
1659520575.449601,14026
1659520575.487832,14027
1659520575.529306,14037
1659520575.57078,14048
1659520575.609694,14057
1659520575.648608,14076
1659520575.687522,14072
1659520575.731556,14081
1659520575.77559,14109
1659520575.819625,14113
1659520575.858197,14125
1659520575.89677,14138
1659520575.935343,14156
1659520575.977841,14165
1659520576.020339,14182
1659520576.05857,14183
1659520576.096801,14183
1659520576.135032,14190
1659520576.173605,14167
1659520576.212178,14146
1659520576.25075,14141
1659520576.292736,14139
1659520576.334723,14146
1659520576.373295,14159
1659520576.411868,14168
1659520576.45044,14179
1659520576.492938,14188
1659520576.535437,14191
1659520576.574692,14195
1659520576.613947,14207
1659520576.653202,14214
1659520576.694676,14223
1659520576.736151,14228
1659520576.774723,14244
1659520576.813296,14250
1659520576.851868,14264
1659520576.894367,14269
1659520576.936865,14272
1659520576.975437,14272
1659520577.01401,14252
1659520577.052583,14233
1659520577.096958,14230
1659520577.141334,14233
1659520577.185709,14233
1659520577.218479,14234
1659520577.251248,14237
1659520577.295965,14236
1659520577.340682,14250
1659520577.385399,14265
1659520577.426873,14259
1659520577.468347,14276
1659520577.507602,14277
1659520577.546858,14285
1659520577.586113,14284
1659520577.625027,14282
1659520577.663941,14290
1659520577.702855,14293
1659520577.744329,14276
1659520577.785803,14242
1659520577.825058,14208
1659520577.864314,14192
1659520577.903569,14188
1659520577.942483,14185
1659520577.981397,14190
1659520578.020311,14210
1659520578.060761,14213
1659520578.101211,14218
1659520578.139783,14233
1659520578.178356,14266
1659520578.216929,14278
1659520578.260963,14299
1659520578.304997,14310
1659520578.349031,14318
1659520578.387945,14331
1659520578.426859,14332
1659520578.465773,14333
1659520578.504687,14306
1659520578.543601,14255
1659520578.582515,14186
1659520578.624501,14150
1659520578.666487,14117
1659520578.705401,14107
1659520578.744315,14113
1659520578.783229,14108
1659520578.824703,14113
1659520578.866177,14123
1659520578.905432,14130
1659520578.944688,14148
1659520578.983943,14177
1659520579.022516,14184
1659520579.061088,14196
1659520579.099661,14210
1659520579.140623,14201
1659520579.181585,14194
1659520579.22084,14199
1659520579.260096,14199
1659520579.299351,14206
1659520579.339801,14189
1659520579.380251,14130
1659520579.419506,14069
1659520579.458761,14044
1659520579.498017,14004
1659520579.540003,13981
1659520579.581989,13991
1659520579.626364,13979
1659520579.67074,13991
1659520579.715116,13984
1659520579.747885,14001
1659520579.780655,14032
1659520579.825713,14057
1659520579.870771,14079
1659520579.91583,14103
1659520579.949623,14123
1659520579.983417,14143
1659520580.027792,14158
1659520580.072168,14167
1659520580.116544,14178
1659520580.155799,14198
1659520580.195054,14199
1659520580.234309,14188
1659520580.275784,14153
1659520580.317258,14102
1659520580.35583,14064
1659520580.394403,14044
1659520580.432976,14052
1659520580.474962,14047
1659520580.516948,14069
1659520580.55552,14065
1659520580.594093,14051
1659520580.632665,14061
1659520580.671238,14070
1659520580.709811,14082
1659520580.748383,14100
1659520580.790881,14101
1659520580.83338,14120
1659520580.872293,14139
1659520580.911207,14138
1659520580.950121,14137
1659520580.991083,14137
1659520581.032045,14131
1659520581.071301,14137
1659520581.110556,14143
1659520581.149811,14141
1659520581.191797,14078
1659520581.233783,14012
1659520581.272015,13960
1659520581.310246,13916
1659520581.348477,13893
1659520581.389439,13891
1659520581.430401,13909
1659520581.468974,13918
1659520581.507547,13923
1659520581.546119,13946
1659520581.589812,13963
1659520581.633505,13997
1659520581.677198,14023
1659520581.710991,14039
1659520581.744785,14052
1659520581.789502,14076
1659520581.834219,14076
1659520581.878936,14084
1659520581.917508,14093
1659520581.956081,14105
1659520581.994654,14112
1659520582.03664,14115
1659520582.078626,14123
1659520582.117881,14109
1659520582.157136,14076
1659520582.196392,14062
1659520582.237866,14048
1659520582.27934,14055
1659520582.318254,14057
1659520582.357168,14074
1659520582.396082,14086
1659520582.434654,14106
1659520582.473227,14114
1659520582.5118,14135
1659520582.553273,14148
1659520582.594748,14165
1659520582.632979,14175
1659520582.67121,14185
1659520582.709441,14199
1659520582.75194,14210
1659520582.794438,14219
1659520582.833352,14223
1659520582.872266,14232
1659520582.91118,14237
1659520582.952142,14238
1659520582.993104,14246
1659520583.032359,14242
1659520583.071614,14223
1659520583.110869,14220
1659520583.1526,14198
1659520583.19433,14211
1659520583.23606,14225
1659520583.27779,14242
1659520583.319776,14240
1659520583.361762,14243
1659520583.401017,14241
1659520583.440273,14235
1659520583.479528,14253
1659520583.52049,14267
1659520583.561452,14267
1659520583.600024,14276
1659520583.638597,14277
1659520583.67717,14290
1659520583.716084,14283
1659520583.754998,14294
1659520583.793912,14290
1659520583.835898,14291
1659520583.877884,14245
1659520583.915774,14176
1659520583.953664,14155
1659520583.991554,14142
1659520584.03354,14166
1659520584.075526,14169
1659520584.119901,14150
1659520584.164277,14155
1659520584.208652,14142
1659520584.241934,14141
1659520584.275216,14145
1659520584.319933,14167
1659520584.36465,14189
1659520584.409366,14204
1659520584.44316,14198
1659520584.476954,14200
1659520584.520647,14220
1659520584.564339,14232
1659520584.608032,14223
1659520584.646605,14212
1659520584.685178,14218
1659520584.72375,14197
1659520584.766248,14166
1659520584.808746,14131
1659520584.846636,14091
1659520584.884526,14088
1659520584.922416,14090
1659520584.96133,14109
1659520585.000244,14129
1659520585.039158,14115
1659520585.081144,14126
1659520585.12313,14130
1659520585.161361,14132
1659520585.199593,14141
1659520585.237824,14146
1659520585.27981,14155
1659520585.321796,14143
1659520585.361051,14136
1659520585.400307,14113
1659520585.439562,14121
1659520585.481036,14126
1659520585.52251,14131
1659520585.561424,14114
1659520585.600338,14052
1659520585.639252,13997
1659520585.68175,13959
1659520585.724248,13939
1659520585.762479,13945
1659520585.800711,13964
1659520585.838942,13985
1659520585.883317,13996
1659520585.927693,14026
1659520585.972069,14019
1659520586.00535,14032
1659520586.038632,14030
1659520586.083007,14039
1659520586.127383,14056
1659520586.171759,14055
1659520586.20504,14080
1659520586.238322,14074
1659520586.28338,14072
1659520586.328438,14021
1659520586.373497,13968
1659520586.412069,13971
1659520586.450642,13970
1659520586.489214,13983
1659520586.530689,14020
1659520586.572163,14052
1659520586.611759,14069
1659520586.651356,14093
1659520586.690953,14113
1659520586.732427,14124
1659520586.773901,14137
1659520586.812132,14145
1659520586.850363,14156
1659520586.888594,14158
1659520586.927508,14167
1659520586.966422,14164
1659520587.005336,14156
1659520587.04681,14137
1659520587.088284,14102
1659520587.126857,14100
1659520587.16543,14105
1659520587.204002,14107
1659520587.244964,14128
1659520587.285926,14122
1659520587.3274,14137
1659520587.368875,14152
1659520587.410348,14153
1659520587.451823,14160
1659520587.493297,14161
1659520587.534771,14178
1659520587.574026,14174
1659520587.613281,14199
1659520587.652537,14200
1659520587.691451,14200
1659520587.730365,14217
1659520587.769279,14195
1659520587.810753,14178
1659520587.852226,14146
1659520587.890799,14123
1659520587.929372,14120
1659520587.967944,14123
1659520588.008906,14130
1659520588.049869,14128
1659520588.088441,14146
1659520588.127014,14147
1659520588.165586,14157
1659520588.204842,14153
1659520588.244097,14157
1659520588.283352,14162
1659520588.324826,14177
1659520588.3663,14189
1659520588.404873,14189
1659520588.443445,14201
1659520588.482018,14209
1659520588.523492,14210
1659520588.564966,14221
1659520588.609683,14220
1659520588.6544,14195
1659520588.699117,14146
1659520588.732911,14127
1659520588.766704,14115
1659520588.811421,14116
1659520588.856138,14125
1659520588.900855,14148
1659520588.934649,14151
1659520588.968442,14170
1659520589.012135,14162
1659520589.055828,14160
1659520589.099521,14166
1659520589.138776,14173
1659520589.178032,14191
1659520589.217287,14193
1659520589.258761,14208
1659520589.300235,14216
1659520589.338808,14221
1659520589.37738,14237
1659520589.415953,14242
1659520589.454184,14247
1659520589.492415,14262
1659520589.530647,14238
1659520589.573657,14220
1659520589.616667,14200
1659520589.65524,14180
1659520589.693812,14171
1659520589.732385,14170
1659520589.773347,14182
1659520589.814309,14181
1659520589.853905,14196
1659520589.893502,14207
1659520589.933099,14203
1659520589.974573,14223
1659520590.016047,14233
1659520590.05462,14233
1659520590.093192,14237
1659520590.131765,14260
1659520590.173239,14264
1659520590.214713,14274
1659520590.253285,14284
1659520590.291858,14286
1659520590.330431,14307
1659520590.374123,14304
1659520590.417816,14321
1659520590.461509,14303
1659520590.495815,14285
1659520590.530121,14292
1659520590.574155,14286
1659520590.618189,14290
1659520590.662223,14294
1659520590.700454,14306
1659520590.738686,14303
1659520590.776917,14305
1659520590.818903,14311
1659520590.860889,14311
1659520590.899803,14324
1659520590.938717,14327
1659520590.977631,14331
1659520591.019105,14337
1659520591.060579,14350
1659520591.099834,14342
1659520591.13909,14345
1659520591.178345,14352
1659520591.216918,14347
1659520591.25549,14356
1659520591.294063,14340
1659520591.334513,14320
1659520591.374963,14309
1659520591.413877,14294
1659520591.452791,14318
1659520591.491705,14342
1659520591.534203,14346
1659520591.576701,14365
1659520591.614932,14365
1659520591.653163,14376
1659520591.691395,14384
1659520591.733381,14392
1659520591.775367,14388
1659520591.815177,14381
1659520591.854987,14385
1659520591.894797,14381
1659520591.934607,14381
1659520591.974417,14384
1659520592.014227,14381
1659520592.054037,14366
1659520592.093847,14382
1659520592.135492,14370
1659520592.177136,14367
1659520592.218781,14349
1659520592.260426,14302
1659520592.302071,14268
1659520592.343715,14246
1659520592.385445,14247
1659520592.427176,14255
1659520592.468905,14260
1659520592.510636,14271
1659520592.543405,14267
1659520592.576175,14286
1659520592.619868,14295
1659520592.663561,14297
1659520592.707253,14306
1659520592.746167,14308
1659520592.785081,14314
1659520592.823995,14322
1659520592.865981,14331
1659520592.907968,14326
1659520592.946882,14340
1659520592.985795,14346
1659520593.024709,14352
1659520593.066183,14352
1659520593.107657,14347
1659520593.146571,14341
1659520593.185485,14321
1659520593.224399,14316
1659520593.263655,14323
1659520593.30291,14328
1659520593.342165,14339
1659520593.383639,14368
1659520593.425113,14364
1659520593.464027,14374
1659520593.502941,14378
1659520593.541855,14388
1659520593.582817,14389
1659520593.623779,14396
1659520593.662352,14403
1659520593.700924,14407
1659520593.739497,14410
1659520593.781483,14419
1659520593.823469,14422
1659520593.861701,14421
1659520593.899932,14431
1659520593.938163,14428
1659520593.982539,14405
1659520594.026914,14394
1659520594.07129,14396
1659520594.105595,14397
1659520594.139901,14407
1659520594.184277,14414
1659520594.228652,14417
1659520594.273028,14416
1659520594.305285,14420
1659520594.337543,14426
1659520594.382601,14426
1659520594.42766,14444
1659520594.472718,14430
1659520594.51129,14440
1659520594.549863,14452
1659520594.588436,14452
1659520594.630422,14457
1659520594.672408,14458
1659520594.711663,14456
1659520594.750918,14436
1659520594.790174,14416
1659520594.831136,14405
1659520594.872098,14398
1659520594.909988,14404
1659520594.947878,14408
1659520594.985767,14407
1659520595.025364,14412
1659520595.064961,14417
1659520595.104557,14415
1659520595.146544,14425
1659520595.188529,14422
1659520595.227102,14429
1659520595.265675,14444
1659520595.304247,14431
1659520595.346233,14437
1659520595.38822,14456
1659520595.427475,14445
1659520595.46673,14449
1659520595.505985,14434
1659520595.54746,14409
1659520595.588934,14388
1659520595.628189,14387
1659520595.667444,14375
1659520595.7067,14388
1659520595.748173,14393
1659520595.789648,14395
1659520595.827879,14384
1659520595.86611,14393
1659520595.904341,14395
1659520595.946327,14377
1659520595.988314,14392
1659520596.033031,14398
1659520596.077747,14406
1659520596.122464,14413
1659520596.160354,14416
1659520596.198244,14409
1659520596.236134,14388
1659520596.27812,14335
1659520596.320106,14295
1659520596.35902,14258
1659520596.397934,14240
1659520596.436848,14240
1659520596.475079,14251
1659520596.51331,14256
1659520596.551542,14257
1659520596.593528,14256
1659520596.635514,14263
1659520596.674769,14270
1659520596.714025,14270
1659520596.75328,14262
1659520596.79373,14278
1659520596.83418,14290
1659520596.872752,14295
1659520596.911325,14311
1659520596.949898,14306
1659520596.989153,14288
1659520597.028408,14253
1659520597.067664,14186
1659520597.109138,14149
1659520597.150612,14128
1659520597.188843,14118
1659520597.227074,14153
1659520597.265306,14184
1659520597.307292,14207
1659520597.349278,14222
1659520597.388874,14239
1659520597.428471,14261
1659520597.468068,14260
1659520597.512443,14273
1659520597.556819,14282
1659520597.601194,14280
1659520597.64318,14296
1659520597.685166,14302
1659520597.72408,14308
1659520597.762994,14312
1659520597.801908,14289
1659520597.84287,14215
1659520597.883832,14137
1659520597.923429,14094
1659520597.963026,14073
1659520598.002622,14059
1659520598.041536,14077
1659520598.08045,14102
1659520598.119364,14114
1659520598.157595,14121
1659520598.195827,14125
1659520598.234058,14132
1659520598.27502,14150
1659520598.315982,14174
1659520598.355579,14194
1659520598.395175,14207
1659520598.434772,14221
1659520598.476246,14242
1659520598.51772,14256
1659520598.556634,14265
1659520598.595548,14278
1659520598.634462,14244
1659520598.67696,14193
1659520598.719458,14171
1659520598.757689,14169
1659520598.795921,14191
1659520598.834152,14210
1659520598.876138,14219
1659520598.918124,14245
1659520598.96011,14243
1659520599.002096,14254
1659520599.040328,14264
1659520599.078559,14267
1659520599.11679,14273
1659520599.160824,14296
1659520599.204859,14280
1659520599.248893,14285
1659520599.283198,14301
1659520599.317504,14299
1659520599.361538,14279
1659520599.405573,14240
1659520599.449607,14212
1659520599.487497,14194
1659520599.525387,14214
1659520599.563277,14215
1659520599.605775,14228
1659520599.648273,14241
1659520599.686845,14250
1659520599.725418,14252
1659520599.76399,14263
1659520599.805465,14274
1659520599.846939,14276
1659520599.886535,14285
1659520599.926132,14294
1659520599.965729,14293
1659520600.004301,14314
1659520600.042874,14315
1659520600.081446,14305
1659520600.121896,14252
1659520600.162346,14223
1659520600.201602,14212
1659520600.240857,14215
1659520600.280112,14218
1659520600.322098,14228
1659520600.364084,14239
1659520600.402657,14244
1659520600.44123,14262
1659520600.479802,14263
1659520600.521276,14272
1659520600.56275,14285
1659520600.601664,14289
1659520600.640578,14309
1659520600.679492,14304
1659520600.720966,14318
1659520600.76244,14318
1659520600.801696,14324
1659520600.840951,14310
1659520600.880206,14275
1659520600.924923,14271
1659520600.96964,14262
1659520601.014357,14257
1659520601.047639,14260
1659520601.08092,14268
1659520601.125296,14266
1659520601.169672,14279
1659520601.214047,14280
1659520601.256545,14279
1659520601.299043,14304
1659520601.337275,14298
1659520601.375506,14309
1659520601.413737,14313
1659520601.452651,14314
1659520601.491565,14317
1659520601.530479,14326
1659520601.571953,14328
1659520601.613427,14303
1659520601.652341,14289
1659520601.691255,14249
1659520601.730169,14225
1659520601.771643,14209
1659520601.813117,14211
1659520601.852372,14219
1659520601.891628,14230
1659520601.930883,14236
1659520601.969455,14233
1659520602.008028,14258
1659520602.046601,14247
1659520602.088587,14259
1659520602.130573,14266
1659520602.169487,14264
1659520602.208401,14289
1659520602.247315,14293
1659520602.288789,14304
1659520602.330263,14320
1659520602.368494,14325
1659520602.406725,14319
1659520602.444957,14296
1659520602.486943,14260
1659520602.528929,14235
1659520602.572963,14231
1659520602.616997,14229
1659520602.661031,14227
1659520602.693801,14241
1659520602.726571,14248
1659520602.770946,14249
1659520602.815322,14258
1659520602.859697,14273
1659520602.898611,14269
1659520602.937525,14287
1659520602.976439,14289
1659520603.017913,14296
1659520603.059387,14301
1659520603.098301,14293
1659520603.137215,14307
1659520603.176129,14305
1659520603.217603,14270
1659520603.259077,14225
1659520603.297991,14188
1659520603.336905,14162
1659520603.375819,14163
1659520603.414392,14166
1659520603.452964,14176
1659520603.491537,14194
1659520603.534547,14202
1659520603.577557,14216
1659520603.615788,14229
1659520603.65402,14240
1659520603.692251,14245
1659520603.731165,14257
1659520603.770079,14276
1659520603.808993,14271
1659520603.850467,14278
1659520603.891941,14290
1659520603.930172,14280
1659520603.968403,14258
1659520604.006635,14209
1659520604.048621,14186
1659520604.090607,14181
1659520604.133105,14167
1659520604.175603,14187
1659520604.218101,14193
1659520604.260599,14206
1659520604.298831,14217
1659520604.337062,14231
1659520604.375293,14231
1659520604.417279,14242
1659520604.459265,14255
1659520604.498179,14266
1659520604.537093,14280
1659520604.576007,14289
1659520604.617481,14299
1659520604.658955,14316
1659520604.697869,14333
1659520604.736783,14310
1659520604.775697,14278
1659520604.817171,14241
1659520604.858645,14191
1659520604.896535,14160
1659520604.934425,14163
1659520604.972315,14178
1659520605.014813,14186
1659520605.057311,14211
1659520605.096225,14218
1659520605.135139,14220
1659520605.174053,14215
1659520605.218429,14208
1659520605.262804,14231
1659520605.30718,14237
1659520605.339949,14249
1659520605.372719,14263
1659520605.417777,14281
1659520605.462836,14294
1659520605.507894,14283
1659520605.540663,14286
1659520605.573433,14284
1659520605.617809,14299
1659520605.662184,14295
1659520605.70656,14300
1659520605.745132,14315
1659520605.783705,14311
1659520605.822278,14314
1659520605.86324,14320
1659520605.904202,14321
1659520605.942433,14325
1659520605.980664,14342
1659520606.018895,14337
1659520606.057809,14339
1659520606.096723,14358
1659520606.135637,14353
1659520606.177111,14370
1659520606.218585,14379
1659520606.257499,14376
1659520606.296413,14374
1659520606.335327,14350
1659520606.377313,14337
1659520606.419299,14334
1659520606.457872,14329
1659520606.496444,14348
1659520606.535017,14348
1659520606.577003,14367
1659520606.618989,14361
1659520606.658245,14362
1659520606.6975,14369
1659520606.736755,14375
1659520606.777717,14382
1659520606.818679,14385
1659520606.857593,14387
1659520606.896507,14386
1659520606.935421,14390
1659520606.979797,14372
1659520607.024172,14393
1659520607.068548,14391
1659520607.111046,14387
1659520607.153544,14368
1659520607.191775,14335
1659520607.230007,14312
1659520607.268238,14313
1659520607.310224,14313
1659520607.35221,14327
1659520607.391124,14335
1659520607.430038,14349
1659520607.468952,14347
1659520607.510938,14355
1659520607.552924,14355
1659520607.591838,14355
1659520607.630752,14358
1659520607.669666,14361
1659520607.70858,14368
1659520607.747494,14361
1659520607.786408,14374
1659520607.82737,14375
1659520607.868332,14388
1659520607.907587,14382
1659520607.946842,14362
1659520607.986098,14341
1659520608.025012,14309
1659520608.063926,14300
1659520608.10284,14305
1659520608.14329,14314
1659520608.18374,14331
1659520608.22163,14355
1659520608.259519,14351
1659520608.297409,14367
1659520608.34042,14376
1659520608.38343,14389
1659520608.422002,14399
1659520608.460575,14399
1659520608.499147,14411
1659520608.540109,14410
1659520608.581072,14420
1659520608.625447,14434
1659520608.669823,14435
1659520608.714198,14449
1659520608.748504,14449
1659520608.782809,14437
1659520608.826844,14429
1659520608.870878,14438
1659520608.914912,14432
1659520608.953485,14437
1659520608.992057,14454
1659520609.03063,14455
1659520609.072104,14465
1659520609.113578,14464
1659520609.151468,14478
1659520609.189358,14478
1659520609.227248,14475
1659520609.269746,14489
1659520609.312244,14490
1659520609.351499,14500
1659520609.390755,14489
1659520609.43001,14506
1659520609.4679,14507
1659520609.50579,14501
1659520609.54368,14484
1659520609.583276,14466
1659520609.622873,14481
1659520609.66247,14481
1659520609.703944,14481
1659520609.745418,14492
1659520609.78399,14500
1659520609.822563,14495
1659520609.861135,14506
1659520609.903634,14514
1659520609.946132,14508
1659520609.985387,14520
1659520610.024642,14518
1659520610.063898,14526
1659520610.104348,14535
1659520610.144798,14535
1659520610.189173,14539
1659520610.233549,14544
1659520610.277924,14544
1659520610.31223,14530
1659520610.346536,14513
1659520610.390229,14498
1659520610.433922,14498
1659520610.477614,14507
1659520610.516528,14511
1659520610.555442,14506
1659520610.594356,14528
1659520610.636342,14526
1659520610.678329,14525
1659520610.716901,14530
1659520610.755474,14538
1659520610.794046,14535
1659520610.836544,14543
1659520610.879042,14542
1659520610.918298,14546
1659520610.957553,14557
1659520610.996808,14555
1659520611.035381,14555
1659520611.073954,14551
1659520611.112526,14530
1659520611.153488,14493
1659520611.19445,14488
1659520611.234047,14482
1659520611.273643,14483
1659520611.31324,14503
1659520611.351471,14516
1659520611.389703,14533
1659520611.427934,14527
1659520611.468896,14541
1659520611.509858,14539
1659520611.55082,14551
1659520611.591782,14561
1659520611.631037,14564
1659520611.670293,14581
1659520611.709548,14584
1659520611.753582,14600
1659520611.797616,14595
1659520611.841651,14593
1659520611.874932,14603
1659520611.908214,14597
1659520611.95259,14579
1659520611.996965,14573
1659520612.041341,14575
1659520612.075134,14563
1659520612.108928,14584
1659520612.153645,14587
1659520612.198362,14580
1659520612.243079,14594
1659520612.28131,14590
1659520612.319541,14597
1659520612.357772,14589
1659520612.396516,14601
1659520612.435259,14602
1659520612.474002,14597
1659520612.512746,14596
1659520612.551489,14593
1659520612.590232,14605
1659520612.631706,14597
1659520612.67318,14566
1659520612.711753,14547
1659520612.750325,14526
1659520612.788898,14524
1659520612.830884,14513
1659520612.87287,14494
1659520612.912467,14505
1659520612.952064,14540
1659520612.99166,14546
1659520613.032622,14557
1659520613.073584,14566
1659520613.118301,14547
1659520613.163018,14548
1659520613.207735,14540
1659520613.242041,14532
1659520613.276346,14526
1659520613.320722,14529
1659520613.365098,14529
1659520613.409473,14535
1659520613.441731,14542
1659520613.473988,14548
1659520613.518705,14501
1659520613.563422,14424
1659520613.608139,14349
1659520613.646712,14313
1659520613.685284,14284
1659520613.723857,14271
1659520613.765843,14279
1659520613.807829,14270
1659520613.847084,14246
1659520613.88634,14241
1659520613.925595,14223
1659520613.963826,14226
1659520614.002057,14247
1659520614.040289,14256
1659520614.081251,14273
1659520614.122213,14303
1659520614.162151,14309
1659520614.202089,14324
1659520614.242027,14329
1659520614.282989,14338
1659520614.323951,14329
1659520614.362523,14285
1659520614.401096,14182
1659520614.439669,14092
1659520614.481143,14046
1659520614.522617,14039
1659520614.563835,14063
1659520614.605053,14112
1659520614.646271,14156
1659520614.687489,14164
1659520614.726062,14187
1659520614.764634,14195
1659520614.803207,14205
1659520614.841779,14223
1659520614.880352,14229
1659520614.918925,14247
1659520614.960399,14251
1659520615.001873,14262
1659520615.041128,14292
1659520615.080383,14308
1659520615.119639,14320
1659520615.161625,14331
1659520615.203611,14315
1659520615.242183,14277
1659520615.280756,14254
1659520615.319329,14249
1659520615.361827,14244
1659520615.404325,14269
1659520615.44358,14282
1659520615.482836,14289
1659520615.522091,14288
1659520615.563053,14310
1659520615.604015,14325
1659520615.642587,14338
1659520615.68116,14354
1659520615.719733,14343
1659520615.762231,14346
1659520615.804729,14351
1659520615.843302,14338
1659520615.881874,14362
1659520615.920447,14363
1659520615.964822,14352
1659520616.009198,14322
1659520616.053573,14285
1659520616.095047,14285
1659520616.136521,14279
1659520616.175435,14274
1659520616.214349,14273
1659520616.253263,14280
1659520616.295249,14265
1659520616.337235,14267
1659520616.376491,14272
1659520616.415746,14279
1659520616.455001,14282
1659520616.493915,14288
1659520616.532829,14294
1659520616.571743,14305
1659520616.613217,14334
1659520616.654691,14326
1659520616.694288,14315
1659520616.733885,14283
1659520616.773481,14221
1659520616.814955,14206
1659520616.85643,14179
1659520616.894661,14179
1659520616.932892,14189
1659520616.971123,14190
1659520617.009696,14191
1659520617.048268,14199
1659520617.086841,14207
1659520617.128827,14221
1659520617.170813,14238
1659520617.209386,14235
1659520617.247958,14243
1659520617.286531,14251
1659520617.328005,14259
1659520617.369479,14269
1659520617.408393,14266
1659520617.447307,14263
1659520617.486221,14217
1659520617.528207,14135
1659520617.570193,14076
1659520617.614227,14028
1659520617.658262,14019
1659520617.702296,14024
1659520617.735577,14034
1659520617.768859,14055
1659520617.812893,14060
1659520617.856928,14060
1659520617.900962,14068
1659520617.939534,14081
1659520617.978107,14101
1659520618.01668,14123
1659520618.058666,14139
1659520618.100652,14159
1659520618.139566,14166
1659520618.17848,14177
1659520618.217394,14176
1659520618.255283,14185
1659520618.293173,14181
1659520618.331063,14132
1659520618.373049,14077
1659520618.415035,14037
1659520618.454291,14006
1659520618.493546,13991
1659520618.532801,13987
1659520618.574275,13997
1659520618.615749,14008
1659520618.655005,14015
1659520618.69426,14038
1659520618.733515,14067
1659520618.772429,14091
1659520618.811343,14110
1659520618.850257,14144
1659520618.891219,14151
1659520618.932181,14164
1659520618.974679,14178
1659520619.017178,14204
1659520619.056092,14202
1659520619.095006,14211
1659520619.133919,14230
1659520619.174881,14211
1659520619.215843,14205
1659520619.254757,14187
1659520619.293671,14177
1659520619.332585,14192
1659520619.377302,14203
1659520619.422019,14223
1659520619.466736,14226
1659520619.499506,14235
1659520619.532275,14238
1659520619.576992,14250
1659520619.621709,14261
1659520619.666426,14258
1659520619.70022,14273
1659520619.734013,14284
1659520619.775231,14294
1659520619.81645,14294
1659520619.857668,14303
1659520619.898886,14310
1659520619.938141,14306
1659520619.977396,14288
1659520620.016652,14243
1659520620.058638,14234
1659520620.100624,14225
1659520620.138855,14237
1659520620.177086,14246
1659520620.215317,14248
1659520620.259693,14266
1659520620.304069,14260
1659520620.348444,14263
1659520620.380702,14263
1659520620.412959,14271
1659520620.456652,14267
1659520620.500345,14279
1659520620.544038,14283
1659520620.586536,14279
1659520620.629034,14291
1659520620.667948,14300
1659520620.706862,14302
1659520620.745776,14304
1659520620.784349,14272
1659520620.822921,14213
1659520620.861494,14170
1659520620.90348,14150
1659520620.945466,14133
1659520620.984721,14151
1659520621.023977,14187
1659520621.063232,14208
1659520621.101463,14238
1659520621.139694,14252
1659520621.177926,14265
1659520621.219912,14280
1659520621.261898,14281
1659520621.30047,14281
1659520621.339043,14287
1659520621.377616,14273
1659520621.418578,14245
1659520621.45954,14208
1659520621.497771,14194
1659520621.536002,14188
1659520621.574234,14193
1659520621.616732,14154
1659520621.65923,14158
1659520621.698485,14127
1659520621.73774,14060
1659520621.776996,14026
1659520621.817958,14047
1659520621.85892,14078
1659520621.898175,14096
1659520621.93743,14115
1659520621.976686,14121
1659520622.021403,14131
1659520622.066119,14137
1659520622.110836,14143
1659520622.152822,14154
1659520622.194808,14172
1659520622.234064,14167
1659520622.273319,14186
1659520622.312574,14196
1659520622.353536,14209
1659520622.394499,14222
1659520622.433071,14156
1659520622.471644,14084
1659520622.510216,14042
1659520622.552714,14008
1659520622.595212,13996
1659520622.634126,13989
1659520622.67304,14004
1659520622.711954,14025
1659520622.750186,14032
1659520622.788417,14050
1659520622.826648,14064
1659520622.868122,14089
1659520622.909596,14104
1659520622.949193,14119
1659520622.98879,14135
1659520623.028386,14126
1659520623.066617,14133
1659520623.104849,14138
1659520623.14308,14141
1659520623.184554,14165
1659520623.226028,14158
1659520623.265283,14111
1659520623.304539,14071
1659520623.343794,14051
1659520623.385268,14033
1659520623.426742,14007
1659520623.470776,14021
1659520623.514811,14027
1659520623.558845,14020
1659520623.592126,14028
1659520623.625408,14048
1659520623.669101,14056
1659520623.712794,14089
1659520623.756487,14118
1659520623.789768,14130
1659520623.82305,14161
1659520623.867425,14178
1659520623.911801,14195
1659520623.956177,14189
1659520623.994749,14192
1659520624.033322,14179
1659520624.071894,14135
1659520624.112856,14062
1659520624.153819,13999
1659520624.193415,13976
1659520624.233012,13957
1659520624.272609,13960
1659520624.314595,13963
1659520624.356581,13952
1659520624.394812,13958
1659520624.433043,13971
1659520624.471274,13972
1659520624.51053,13998
1659520624.549785,14020
1659520624.58904,14036
1659520624.630002,14061
1659520624.670964,14092
1659520624.709537,14106
1659520624.74811,14138
1659520624.786682,14139
1659520624.825596,14102
1659520624.86451,14034
1659520624.903424,13990
1659520624.94541,13971
1659520624.987396,13960
1659520625.031772,13962
1659520625.076147,13970
1659520625.120523,13981
1659520625.16012,14013
1659520625.199716,14011
1659520625.239313,14032
1659520625.277885,14035
1659520625.316458,14033
1659520625.355031,14042
1659520625.397017,14036
1659520625.439003,14040
1659520625.4786,14052
1659520625.518196,14063
1659520625.557793,14071
1659520625.596024,14078
1659520625.634255,14012
1659520625.672487,13938
1659520625.713449,13874
1659520625.754411,13828
1659520625.793324,13803
1659520625.832238,13780
1659520625.871152,13778
1659520625.912627,13783
1659520625.954101,13782
1659520625.992673,13780
1659520626.031246,13781
1659520626.069818,13811
1659520626.11078,13810
1659520626.151742,13839
1659520626.190998,13860
1659520626.230253,13867
1659520626.269508,13890
1659520626.310982,13913
1659520626.352457,13931
1659520626.391371,13939
1659520626.430284,13938
1659520626.469198,13872
1659520626.513574,13834
1659520626.55795,13810
1659520626.602325,13814
1659520626.643799,13848
1659520626.685273,13872
1659520626.723846,13893
1659520626.762418,13910
1659520626.800991,13921
1659520626.839564,13935
1659520626.878136,13952
1659520626.916709,13955
1659520626.958695,13966
1659520627.000681,13981
1659520627.039253,13970
1659520627.077826,13979
1659520627.116399,13983
1659520627.157361,13978
1659520627.198323,13977
1659520627.237237,13943
1659520627.276151,13864
1659520627.315065,13804
1659520627.353637,13772
1659520627.39221,13754
1659520627.430782,13779
1659520627.473793,13822
1659520627.516803,13808
1659520627.555375,13796
1659520627.593948,13800
1659520627.63252,13792
1659520627.673995,13830
1659520627.715469,13873
1659520627.754724,13896
1659520627.793979,13919
1659520627.833235,13938
1659520627.875221,13941
1659520627.917207,13955
1659520627.961241,13959
1659520628.005275,13944
1659520628.049309,13864
1659520628.082591,13782
1659520628.115873,13757
1659520628.159907,13754
1659520628.203941,13767
1659520628.247975,13799
1659520628.286889,13836
1659520628.325803,13865
1659520628.364717,13882
1659520628.407215,13898
1659520628.449713,13910
1659520628.48931,13907
1659520628.528907,13908
1659520628.568503,13908
1659520628.609465,13914
1659520628.650427,13928
1659520628.689683,13947
1659520628.728938,13949
1659520628.768193,13961
1659520628.810691,13893
1659520628.853189,13805
1659520628.891079,13769
1659520628.928969,13714
1659520628.966859,13675
1659520629.005773,13659
1659520629.044687,13642
1659520629.083601,13636
1659520629.125075,13661
1659520629.166549,13658
1659520629.205122,13666
1659520629.243695,13699
1659520629.282267,13736
1659520629.321181,13772
1659520629.360095,13794
1659520629.399009,13819
1659520629.439971,13831
1659520629.480933,13847
1659520629.521895,13863
1659520629.562857,13854
1659520629.602112,13792
1659520629.641368,13697
1659520629.680623,13649
1659520629.722097,13626
1659520629.763571,13612
1659520629.802144,13629
1659520629.840716,13648
1659520629.879289,13650
1659520629.924006,13658
1659520629.968723,13676
1659520630.01344,13692
1659520630.047233,13713
1659520630.081027,13719
1659520630.125061,13718
1659520630.169096,13742
1659520630.21313,13756
1659520630.251702,13763
1659520630.290275,13790
1659520630.328847,13822
1659520630.367761,13840
1659520630.406675,13845
1659520630.445589,13784
1659520630.48382,13715
1659520630.522052,13679
1659520630.560283,13663
1659520630.602269,13675
1659520630.644255,13702
1659520630.683169,13739
1659520630.722083,13764
1659520630.760997,13792
1659520630.803495,13798
1659520630.845993,13806
1659520630.89071,13820
1659520630.935427,13824
1659520630.980144,13828
1659520631.019399,13824
1659520631.058655,13826
1659520631.09791,13832
1659520631.13836,13843
1659520631.17881,13854
1659520631.217724,13863
1659520631.256638,13855
1659520631.295552,13800
1659520631.33805,13767
1659520631.380548,13742
1659520631.418779,13740
1659520631.457011,13748
1659520631.495242,13766
1659520631.533814,13771
1659520631.572387,13773
1659520631.61096,13785
1659520631.652946,13794
1659520631.694932,13822
1659520631.734187,13836
1659520631.773442,13846
1659520631.812698,13857
1659520631.854172,13858
1659520631.895646,13869
1659520631.93456,13866
1659520631.973474,13892
1659520632.012388,13877
1659520632.051643,13851
1659520632.090898,13776
1659520632.130153,13725
1659520632.171628,13716
1659520632.213102,13703
1659520632.251674,13706
1659520632.290247,13706
1659520632.32882,13711
1659520632.370294,13696
1659520632.411767,13665
1659520632.455461,13641
1659520632.499153,13646
1659520632.542846,13667
1659520632.576128,13686
1659520632.60941,13717
1659520632.653785,13725
1659520632.698161,13731
1659520632.742536,13741
1659520632.775306,13737
1659520632.808075,13714
1659520632.852451,13631
1659520632.896827,13559
1659520632.941202,13533
1659520632.980457,13543
1659520633.019713,13563
1659520633.058968,13603
1659520633.100442,13637
1659520633.141916,13661
1659520633.180489,13672
1659520633.219061,13670
1659520633.257634,13677
1659520633.300132,13687
1659520633.34263,13693
1659520633.380861,13700
1659520633.419093,13716
1659520633.457324,13740
1659520633.495897,13742
1659520633.534469,13708
1659520633.573042,13698
1659520633.616052,13672
1659520633.659062,13669
1659520633.697293,13669
1659520633.735524,13681
1659520633.773756,13702
1659520633.812328,13703
1659520633.850901,13724
1659520633.889473,13730
1659520633.93146,13761
1659520633.973446,13791
1659520634.015432,13818
1659520634.057418,13849
1659520634.096332,13865
1659520634.135246,13871
1659520634.17416,13865
1659520634.216146,13868
1659520634.258132,13872
1659520634.297387,13896
1659520634.336643,13883
1659520634.375898,13839
1659520634.419591,13804
1659520634.463284,13778
1659520634.506976,13760
1659520634.541282,13754
1659520634.575588,13775
1659520634.619963,13772
1659520634.664339,13781
1659520634.708714,13783
1659520634.749165,13778
1659520634.789614,13777
1659520634.828528,13772
1659520634.867442,13776
1659520634.906356,13791
1659520634.94527,13795
1659520634.984184,13819
1659520635.023098,13833
1659520635.064572,13838
1659520635.106046,13802
1659520635.145302,13721
1659520635.184557,13635
1659520635.223812,13609
1659520635.265286,13592
1659520635.30676,13582
1659520635.345333,13602
1659520635.383906,13610
1659520635.422478,13607
1659520635.461734,13601
1659520635.500989,13630
1659520635.540244,13649
1659520635.579772,13674
1659520635.619301,13689
1659520635.658829,13706
1659520635.698358,13719
1659520635.737886,13724
1659520635.778848,13737
1659520635.81981,13724
1659520635.859065,13684
1659520635.898321,13587
1659520635.937576,13517
1659520635.97905,13465
1659520636.020524,13445
1659520636.058755,13431
1659520636.096987,13439
1659520636.135218,13453
1659520636.177204,13479
1659520636.21919,13502
1659520636.263566,13514
1659520636.307941,13542
1659520636.352317,13574
1659520636.391572,13591
1659520636.430827,13608
1659520636.470083,13633
1659520636.512069,13635
1659520636.554055,13658
1659520636.592969,13664
1659520636.631883,13645
1659520636.670797,13606
1659520636.711247,13570
1659520636.751697,13569
1659520636.791293,13578
1659520636.83089,13608
1659520636.870487,13625
1659520636.9094,13642
1659520636.948314,13661
1659520636.987228,13666
1659520637.027678,13693
1659520637.068129,13710
1659520637.107043,13719
1659520637.145957,13736
1659520637.18487,13746
1659520637.227368,13751
1659520637.269867,13778
1659520637.308439,13773
1659520637.347012,13755
1659520637.385584,13710
1659520637.42484,13676
1659520637.464095,13672
1659520637.50335,13667
1659520637.545336,13681
1659520637.587322,13698
1659520637.628797,13720
1659520637.670271,13720
1659520637.708843,13729
1659520637.747416,13757
1659520637.785988,13763
1659520637.830705,13788
1659520637.875422,13791
1659520637.920139,13810
1659520637.952397,13834
1659520637.984654,13844
1659520638.028689,13817
1659520638.072723,13745
1659520638.116757,13685
1659520638.151063,13658
1659520638.185368,13664
1659520638.229061,13673
1659520638.272754,13686
1659520638.316447,13725
1659520638.35502,13729
1659520638.393592,13745
1659520638.432165,13767
1659520638.474663,13786
1659520638.517161,13802
1659520638.555734,13826
1659520638.594306,13842
1659520638.632879,13856
1659520638.671793,13871
1659520638.710707,13855
1659520638.749621,13774
1659520638.792119,13685
1659520638.834617,13627
1659520638.872507,13599
1659520638.910397,13598
1659520638.948287,13615
1659520638.988737,13626
1659520639.029186,13649
1659520639.0681,13648
1659520639.107014,13647
1659520639.145928,13676
1659520639.187915,13677
1659520639.229901,13699
1659520639.268132,13723
1659520639.306363,13733
1659520639.344594,13750
1659520639.389311,13750
1659520639.434028,13749
1659520639.478745,13703
1659520639.511515,13565
1659520639.544284,13462
1659520639.588319,13390
1659520639.632353,13353
1659520639.676387,13339
1659520639.710693,13378
1659520639.744998,13384
1659520639.789715,13382
1659520639.834432,13388
1659520639.879149,13380
1659520639.918063,13388
1659520639.956977,13385
1659520639.995891,13409
1659520640.037365,13410
1659520640.078839,13440
1659520640.118436,13444
1659520640.158032,13447
1659520640.197629,13479
1659520640.238079,13453
1659520640.278529,13371
1659520640.317443,13295
1659520640.356357,13244
1659520640.395271,13197
1659520640.433844,13189
1659520640.472416,13180
1659520640.510989,13185
1659520640.552975,13176
1659520640.594961,13164
1659520640.633875,13168
1659520640.672789,13158
1659520640.711703,13168
1659520640.753689,13157
1659520640.795675,13145
1659520640.835613,13126
1659520640.875551,13134
1659520640.915489,13155
1659520640.955427,13177
1659520640.995365,13190
1659520641.034279,13119
1659520641.073193,13019
1659520641.112107,12979
1659520641.153069,12982
1659520641.194031,13002
1659520641.232604,13027
1659520641.271176,13065
1659520641.309749,13088
1659520641.351223,13104
1659520641.392697,13122
1659520641.436731,13140
1659520641.480765,13176
1659520641.524799,13186
1659520641.563372,13207
1659520641.601945,13222
1659520641.640517,13246
1659520641.682503,13258
1659520641.724489,13269
1659520641.763403,13246
1659520641.802317,13160
1659520641.841231,13087
1659520641.882705,13066
1659520641.924179,13050
1659520641.963093,13052
1659520642.002007,13037
1659520642.040921,13045
1659520642.082395,13058
1659520642.123869,13070
1659520642.162783,13105
1659520642.201697,13133
1659520642.240611,13176
1659520642.279184,13219
1659520642.317756,13263
1659520642.356329,13286
1659520642.398827,13324
1659520642.441325,13332
1659520642.479557,13294
1659520642.517788,13252
1659520642.556019,13251
1659520642.594933,13273
1659520642.633847,13285
1659520642.672761,13325
1659520642.714235,13339
1659520642.755709,13334
1659520642.797183,13338
1659520642.838657,13344
1659520642.877571,13350
1659520642.916485,13367
1659520642.955399,13405
1659520642.997897,13429
1659520643.040395,13469
1659520643.078968,13498
1659520643.11754,13495
1659520643.156113,13437
1659520643.200489,13404
1659520643.244864,13417
1659520643.28924,13421
1659520643.323545,13435
1659520643.357851,13474
1659520643.401885,13490
1659520643.44592,13508
1659520643.489954,13509
1659520643.528185,13525
1659520643.566416,13542
1659520643.604647,13542
1659520643.646634,13563
1659520643.68862,13561
1659520643.726851,13583
1659520643.765082,13589
1659520643.803313,13596
1659520643.844788,13544
1659520643.886261,13451
1659520643.925858,13392
1659520643.965455,13364
1659520644.005052,13346
1659520644.043624,13342
1659520644.082197,13342
1659520644.120769,13323
1659520644.162243,13316
1659520644.203717,13316
1659520644.243314,13323
1659520644.282911,13331
1659520644.322507,13338
1659520644.363981,13349
1659520644.405456,13358
1659520644.443687,13380
1659520644.481918,13401
1659520644.520149,13423
1659520644.561623,13423
1659520644.603097,13320
1659520644.642011,13184
1659520644.680925,13098
1659520644.719839,13066
1659520644.760289,13025
1659520644.800739,13032
1659520644.839312,13069
1659520644.877884,13084
1659520644.916457,13096
1659520644.961174,13085
1659520645.005891,13095
1659520645.050608,13139
1659520645.09157,13215
1659520645.132532,13238
1659520645.172128,13236
1659520645.211725,13243
1659520645.251322,13259
1659520645.292796,13269
1659520645.33427,13282
1659520645.372843,13260
1659520645.411415,13161
1659520645.449988,13067
1659520645.488902,13037
1659520645.527816,13045
1659520645.56673,13077
1659520645.609228,13122
1659520645.651726,13148
1659520645.689957,13155
1659520645.728188,13162
1659520645.76642,13192
1659520645.807894,13216
1659520645.849368,13227
1659520645.888282,13250
1659520645.927196,13275
1659520645.96611,13315
1659520646.004682,13329
1659520646.043255,13323
1659520646.081827,13321
1659520646.123813,13337
1659520646.1658,13324
1659520646.207786,13266
1659520646.249772,13190
1659520646.289027,13162
1659520646.328282,13141
1659520646.367538,13137
1659520646.40611,13148
1659520646.444683,13166
1659520646.483255,13185
1659520646.525242,13198
1659520646.567228,13220
1659520646.611945,13244
1659520646.656662,13281
1659520646.701378,13313
1659520646.734148,13341
1659520646.766918,13369
1659520646.811293,13402
1659520646.855669,13436
1659520646.900044,13453
1659520646.93435,13479
1659520646.968656,13491
1659520647.012349,13443
1659520647.056041,13432
1659520647.099734,13442
1659520647.138307,13467
1659520647.176879,13485
1659520647.215452,13506
1659520647.256926,13529
1659520647.2984,13544
1659520647.337314,13543
1659520647.376228,13535
1659520647.415142,13570
1659520647.457128,13599
1659520647.499114,13608
1659520647.537004,13614
1659520647.574894,13601
1659520647.612784,13596
1659520647.650674,13605
1659520647.691636,13582
1659520647.732598,13530
1659520647.771171,13510
1659520647.809743,13483
1659520647.848316,13457
1659520647.892691,13462
1659520647.937067,13489
1659520647.981442,13519
1659520648.021893,13513
1659520648.062342,13515
1659520648.101598,13506
1659520648.140853,13518
1659520648.180108,13554
1659520648.219022,13585
1659520648.257936,13594
1659520648.29685,13579
1659520648.337812,13596
1659520648.378774,13579
1659520648.41803,13476
1659520648.457285,13362
1659520648.49654,13288
1659520648.539038,13229
1659520648.581537,13209
1659520648.619768,13223
1659520648.657999,13273
1659520648.69623,13330
1659520648.735827,13378
1659520648.775424,13405
1659520648.81502,13425
1659520648.856494,13429
1659520648.897968,13440
1659520648.936199,13439
1659520648.974431,13446
1659520649.012662,13461
1659520649.05516,13475
1659520649.097658,13482
1659520649.136572,13412
1659520649.175486,13301
1659520649.2144,13229
1659520649.255362,13181
1659520649.296324,13143
1659520649.334897,13138
1659520649.373469,13162
1659520649.412042,13172
1659520649.45454,13195
1659520649.497038,13251
1659520649.541755,13295
1659520649.586472,13330
1659520649.631189,13366
1659520649.663959,13396
1659520649.696728,13413
1659520649.741786,13433
1659520649.786845,13438
1659520649.831903,13452
1659520649.870476,13457
1659520649.909048,13412
1659520649.947621,13301
1659520649.989607,13215
1659520650.031593,13177
1659520650.070507,13151
1659520650.109421,13144
1659520650.148335,13148
1659520650.186566,13163
1659520650.224797,13190
1659520650.263029,13205
1659520650.303991,13238
1659520650.344953,13266
1659520650.383867,13295
1659520650.422781,13332
1659520650.461694,13347
1659520650.503169,13369
1659520650.544643,13393
1659520650.583215,13404
1659520650.621788,13404
1659520650.66036,13378
1659520650.699274,13303
1659520650.738188,13240
1659520650.777102,13247
1659520650.818576,13280
1659520650.86005,13315
1659520650.899306,13355
1659520650.938561,13368
1659520650.977816,13385
1659520651.01929,13392
1659520651.060765,13409
1659520651.10514,13431
1659520651.149516,13431
1659520651.193891,13450
1659520651.226661,13478
1659520651.25943,13495
1659520651.299368,13520
1659520651.339306,13539
1659520651.379244,13549
1659520651.419182,13542
1659520651.45912,13474
1659520651.503155,13408
1659520651.547189,13406
1659520651.591223,13397
1659520651.630137,13407
1659520651.669051,13414
1659520651.707965,13426
1659520651.749951,13431
1659520651.791937,13449
1659520651.831534,13469
1659520651.87113,13472
1659520651.910727,13484
1659520651.951689,13507
1659520651.992651,13530
1659520652.031906,13548
1659520652.071162,13566
1659520652.110417,13580
1659520652.148989,13543
1659520652.187562,13456
1659520652.226135,13415
1659520652.268121,13425
1659520652.310107,13421
1659520652.349021,13455
1659520652.387935,13493
1659520652.426849,13510
1659520652.468323,13539
1659520652.509797,13559
1659520652.547687,13572
1659520652.585577,13581
1659520652.623467,13593
1659520652.665965,13596
1659520652.708463,13607
1659520652.747377,13620
1659520652.786291,13629
1659520652.825205,13653
1659520652.866167,13646
1659520652.907129,13600
1659520652.946384,13422
1659520652.985639,13155
1659520653.024895,12724
1659520653.069612,12253
1659520653.114329,11854
1659520653.159045,11576
1659520653.191815,11340
1659520653.224585,11107
1659520653.269302,10876
1659520653.314018,10652
1659520653.358735,10468
1659520653.400209,10332
1659520653.441684,10203
1659520653.479915,10081
1659520653.518146,9965
1659520653.556377,9838
1659520653.59495,9691
1659520653.633523,9504
1659520653.672095,9165
1659520653.714593,8799
1659520653.757091,8507
1659520653.794981,8268
1659520653.832871,8017
1659520653.870761,7791
1659520653.910016,7573
1659520653.949272,7374
1659520653.988527,7154
