LocalTimestamp,PG
1659515506.786882,10892
1659515506.825157,11081
1659515506.863432,11115
1659515506.905466,11139
1659515506.9475,11187
1659515506.990047,11283
1659515507.032594,11435
1659515507.070527,11513
1659515507.10846,11608
1659515507.146394,11701
1659515507.190136,11761
1659515507.233879,11771
1659515507.277622,11819
1659515507.310429,11861
1659515507.343236,11865
1659515507.387321,11883
1659515507.431406,11909
1659515507.47549,11941
1659515507.51479,11998
1659515507.55409,12051
1659515507.593391,12110
1659515507.634912,12173
1659515507.676434,12209
1659515507.71505,12261
1659515507.753667,12319
1659515507.792284,12383
1659515507.833293,12436
1659515507.874302,12491
1659515507.914285,12458
1659515507.954269,12411
1659515507.994253,12414
1659515508.032869,12452
1659515508.071486,12513
1659515508.110103,12571
1659515508.152137,12630
1659515508.194171,12672
1659515508.23313,12731
1659515508.272088,12779
1659515508.311046,12832
1659515508.353081,12884
1659515508.395115,12939
1659515508.43339,12984
1659515508.471665,12997
1659515508.50994,13007
1659515508.551461,13010
1659515508.592983,13028
1659515508.631599,13058
1659515508.670216,13075
1659515508.708833,13099
1659515508.750867,13052
1659515508.792901,13013
1659515508.831859,13019
1659515508.870818,13060
1659515508.909776,13098
1659515508.954544,13132
1659515508.999312,13185
1659515509.04408,13220
1659515509.076888,13260
1659515509.109695,13269
1659515509.154463,13260
1659515509.199231,13282
1659515509.243999,13314
1659515509.286546,13348
1659515509.329092,13390
1659515509.367367,13429
1659515509.405642,13448
1659515509.443917,13466
1659515509.482534,13487
1659515509.521151,13522
1659515509.559767,13511
1659515509.601289,13409
1659515509.64281,13251
1659515509.681085,13108
1659515509.71936,12979
1659515509.757635,12863
1659515509.796594,12752
1659515509.835552,12680
1659515509.874511,12644
1659515509.916545,12591
1659515509.958579,12542
1659515509.997537,12527
1659515510.036496,12528
1659515510.075454,12538
1659515510.116463,12563
1659515510.157472,12588
1659515510.196772,12609
1659515510.236073,12657
1659515510.275373,12691
1659515510.317407,12731
1659515510.359441,12781
1659515510.398809,12768
1659515510.438178,12675
1659515510.477547,12550
1659515510.516915,12482
1659515510.556284,12444
1659515510.5949,12395
1659515510.633517,12378
1659515510.672134,12364
1659515510.713655,12343
1659515510.755177,12326
1659515510.799603,12314
1659515510.844029,12316
1659515510.888456,12320
1659515510.921776,12344
1659515510.955095,12354
1659515510.99918,12384
1659515511.043264,12398
1659515511.087349,12447
1659515511.120669,12465
1659515511.153988,12495
1659515511.199098,12543
1659515511.244208,12558
1659515511.289318,12484
1659515511.327935,12362
1659515511.366551,12291
1659515511.405168,12259
1659515511.446689,12230
1659515511.488211,12201
1659515511.527511,12208
1659515511.566811,12230
1659515511.606112,12232
1659515511.647633,12239
1659515511.689155,12264
1659515511.72743,12296
1659515511.765704,12332
1659515511.803979,12364
1659515511.84328,12412
1659515511.88258,12441
1659515511.92188,12478
1659515511.962889,12514
1659515512.003898,12556
1659515512.043198,12614
1659515512.082498,12661
1659515512.121799,12680
1659515512.163833,12618
1659515512.205867,12526
1659515512.244483,12474
1659515512.2831,12464
1659515512.321717,12456
1659515512.363238,12444
1659515512.40476,12471
1659515512.444402,12495
1659515512.484044,12525
1659515512.523686,12557
1659515512.565207,12595
1659515512.606729,12653
1659515512.645004,12704
1659515512.683279,12754
1659515512.721554,12807
1659515512.766322,12875
1659515512.81109,12942
1659515512.855858,13003
1659515512.888665,13040
1659515512.921472,13060
1659515512.965215,13066
1659515513.008958,13076
1659515513.052701,13098
1659515513.091317,13059
1659515513.129934,12982
1659515513.16855,12935
1659515513.210072,12948
1659515513.251594,12982
1659515513.29021,13028
1659515513.328827,13117
1659515513.367444,13189
1659515513.409991,13252
1659515513.452537,13307
1659515513.491496,13356
1659515513.530454,13409
1659515513.569412,13461
1659515513.608029,13502
1659515513.646646,13544
1659515513.685263,13570
1659515513.726272,13610
1659515513.767281,13622
1659515513.805897,13647
1659515513.844514,13683
1659515513.883131,13711
1659515513.925165,13738
1659515513.967199,13722
1659515514.005816,13658
1659515514.044432,13626
1659515514.083049,13629
1659515514.124058,13645
1659515514.165067,13644
1659515514.204025,13666
1659515514.242984,13679
1659515514.281942,13713
1659515514.326369,13710
1659515514.370795,13727
1659515514.415221,13759
1659515514.457768,13780
1659515514.500315,13791
1659515514.538931,13810
1659515514.577548,13847
1659515514.616165,13876
1659515514.657686,13912
1659515514.699208,13928
1659515514.738166,13939
1659515514.777125,13962
1659515514.816083,13985
1659515514.8547,14003
1659515514.893317,13938
1659515514.931933,13820
1659515514.973967,13709
1659515515.016001,13659
1659515515.05496,13620
1659515515.093918,13589
1659515515.132877,13602
1659515515.173886,13635
1659515515.214895,13652
1659515515.253511,13687
1659515515.292128,13721
1659515515.330745,13771
1659515515.370387,13817
1659515515.410029,13862
1659515515.449671,13906
1659515515.491192,13946
1659515515.532714,13979
1659515515.570989,13998
1659515515.609264,14031
1659515515.647539,14049
1659515515.687932,14078
1659515515.728326,14097
1659515515.76872,14057
1659515515.809114,13977
1659515515.849507,13893
1659515515.893592,13854
1659515515.937676,13846
1659515515.981761,13840
1659515516.02277,13845
1659515516.063779,13872
1659515516.102737,13885
1659515516.141696,13881
1659515516.180654,13885
1659515516.218587,13885
1659515516.256521,13899
1659515516.294454,13920
1659515516.336488,13941
1659515516.378522,13962
1659515516.417139,13965
1659515516.455756,13988
1659515516.494372,14005
1659515516.532647,14028
1659515516.570922,14060
1659515516.609197,14085
1659515516.651231,14116
1659515516.693265,14090
1659515516.732224,13998
1659515516.771183,13967
1659515516.810141,13954
1659515516.851662,13933
1659515516.893184,13910
1659515516.932484,13871
1659515516.971784,13843
1659515517.011085,13786
1659515517.052606,13702
1659515517.094127,13597
1659515517.132402,13540
1659515517.170677,13558
1659515517.208952,13550
1659515517.251499,13571
1659515517.294046,13589
1659515517.333004,13605
1659515517.371963,13638
1659515517.410921,13679
1659515517.454664,13718
1659515517.498407,13762
1659515517.54215,13809
1659515517.583159,13853
1659515517.624167,13861
1659515517.66381,13755
1659515517.703451,13601
1659515517.743093,13515
1659515517.785127,13450
1659515517.827162,13412
1659515517.86612,13394
1659515517.905078,13405
1659515517.944037,13416
1659515517.983337,13430
1659515518.022637,13438
1659515518.061938,13469
1659515518.100554,13520
1659515518.139171,13552
1659515518.177788,13587
1659515518.218796,13624
1659515518.259805,13665
1659515518.299448,13686
1659515518.339089,13723
1659515518.378731,13765
1659515518.41974,13788
1659515518.460749,13831
1659515518.499366,13863
1659515518.537982,13832
1659515518.576599,13735
1659515518.618121,13637
1659515518.659642,13602
1659515518.698942,13564
1659515518.738243,13550
1659515518.777543,13569
1659515518.818552,13613
1659515518.859561,13642
1659515518.898519,13670
1659515518.937478,13715
1659515518.976436,13754
1659515519.020862,13790
1659515519.065289,13828
1659515519.109715,13847
1659515519.151237,13893
1659515519.192758,13920
1659515519.232058,13956
1659515519.271358,13986
1659515519.310658,14030
1659515519.351667,14065
1659515519.392676,14101
1659515519.430951,14129
1659515519.469226,14152
1659515519.507501,14109
1659515519.546118,14017
1659515519.584735,13966
1659515519.623351,13965
1659515519.665385,13948
1659515519.70742,13939
1659515519.746036,13962
1659515519.784653,13982
1659515519.82327,13993
1659515519.864791,14006
1659515519.906313,14039
1659515519.945613,14071
1659515519.984913,14125
1659515520.024213,14154
1659515520.06283,14179
1659515520.101447,14209
1659515520.140064,14237
1659515520.182098,14257
1659515520.224132,14279
1659515520.263774,14309
1659515520.303416,14324
1659515520.343058,14350
1659515520.383554,14360
1659515520.42405,14323
1659515520.468135,14205
1659515520.512219,14097
1659515520.556304,14056
1659515520.590649,14014
1659515520.624994,13994
1659515520.669078,13994
1659515520.713163,14016
1659515520.757247,14039
1659515520.789029,14059
1659515520.820811,14084
1659515520.862845,14121
1659515520.90488,14167
1659515520.946914,14195
1659515520.988948,14218
1659515521.030982,14267
1659515521.073016,14313
1659515521.111633,14364
1659515521.150249,14381
1659515521.188866,14401
1659515521.231925,14413
1659515521.274985,14412
1659515521.313943,14416
1659515521.352902,14418
1659515521.39186,14357
1659515521.432869,14167
1659515521.473878,13952
1659515521.513178,13830
1659515521.552478,13786
1659515521.591779,13756
1659515521.633813,13767
1659515521.675847,13809
1659515521.71378,13817
1659515521.751713,13816
1659515521.789647,13841
1659515521.828605,13866
1659515521.867563,13902
1659515521.906522,13944
1659515521.947531,13999
1659515521.98854,14058
1659515522.032624,14096
1659515522.076709,14119
1659515522.120793,14135
1659515522.154626,14154
1659515522.188458,14176
1659515522.232884,14160
1659515522.277311,14084
1659515522.321737,13917
1659515522.354032,13784
1659515522.386326,13698
1659515522.431094,13643
1659515522.475862,13625
1659515522.52063,13646
1659515522.55993,13684
1659515522.599231,13733
1659515522.638531,13763
1659515522.679027,13791
1659515522.719523,13830
1659515522.758482,13874
1659515522.79744,13907
1659515522.836399,13938
1659515522.875015,13953
1659515522.913632,13978
1659515522.952249,14020
1659515522.99377,14049
1659515523.035292,14076
1659515523.073909,14098
1659515523.112525,14126
1659515523.151142,14127
1659515523.193176,14071
1659515523.23521,13969
1659515523.273827,13945
1659515523.312444,13958
1659515523.35106,13947
1659515523.389677,13941
1659515523.428294,13963
1659515523.466911,13978
1659515523.509457,13988
1659515523.552004,14026
1659515523.593525,14056
1659515523.635047,14103
1659515523.673664,14160
1659515523.712281,14203
1659515523.750897,14232
1659515523.795665,14264
1659515523.840433,14290
1659515523.885201,14330
1659515523.919034,14356
1659515523.952866,14383
1659515523.996609,14394
1659515524.040352,14414
1659515524.084095,14412
1659515524.123053,14316
1659515524.162011,14208
1659515524.20097,14153
1659515524.241979,14138
1659515524.282988,14106
1659515524.321946,14073
1659515524.360904,14074
1659515524.399863,14085
1659515524.44241,14064
1659515524.484957,14058
1659515524.523915,14076
1659515524.562873,14095
1659515524.601832,14113
1659515524.640449,14135
1659515524.679065,14159
1659515524.717682,14179
1659515524.759203,14202
1659515524.800725,14225
1659515524.839684,14260
1659515524.878642,14291
1659515524.9176,14317
1659515524.956217,14347
1659515524.994834,14394
1659515525.03345,14408
1659515525.074459,14335
1659515525.115468,14250
1659515525.15699,14230
1659515525.198511,14251
1659515525.236786,14267
1659515525.275061,14301
1659515525.313336,14338
1659515525.357763,14351
1659515525.402189,14339
1659515525.446615,14335
1659515525.48096,14326
1659515525.515305,14337
1659515525.55939,14358
1659515525.603474,14367
1659515525.647559,14381
1659515525.680366,14398
1659515525.713173,14412
1659515525.757941,14421
1659515525.802709,14448
1659515525.847477,14476
1659515525.886436,14500
1659515525.925394,14536
1659515525.964353,14534
1659515526.004849,14436
1659515526.045345,14329
1659515526.085622,14280
1659515526.125898,14257
1659515526.166175,14253
1659515526.206451,14235
1659515526.246728,14253
1659515526.287005,14258
1659515526.327281,14264
1659515526.36624,14269
1659515526.405198,14307
1659515526.444157,14334
1659515526.482773,14355
1659515526.52139,14380
1659515526.560007,14407
1659515526.598965,14446
1659515526.637924,14468
1659515526.676882,14443
1659515526.719429,14418
1659515526.761976,14442
1659515526.800934,14469
1659515526.839893,14499
1659515526.878851,14543
1659515526.920372,14536
1659515526.961894,14431
1659515527.001194,14287
1659515527.040494,14190
1659515527.079795,14117
1659515527.122341,14039
1659515527.164888,13980
1659515527.203163,13986
1659515527.241438,14016
1659515527.279713,14043
1659515527.321234,14074
1659515527.362756,14094
1659515527.407182,14116
1659515527.451609,14138
1659515527.496035,14145
1659515527.533968,14124
1659515527.571901,14112
1659515527.609835,14104
1659515527.652381,14098
1659515527.694928,14101
1659515527.733886,14116
1659515527.772845,14127
1659515527.811803,14138
1659515527.852812,14161
1659515527.893821,14198
1659515527.93278,14219
1659515527.971738,14158
1659515528.010697,14053
1659515528.049655,13994
1659515528.088614,13988
1659515528.127572,14002
1659515528.169093,14008
1659515528.210615,14055
1659515528.249232,14098
1659515528.287848,14154
1659515528.326465,14190
1659515528.365082,14224
1659515528.403698,14275
1659515528.442315,14282
1659515528.483324,14284
1659515528.524333,14261
1659515528.56295,14242
1659515528.601567,14214
1659515528.640183,14222
1659515528.681705,14202
1659515528.723226,14214
1659515528.767653,14238
1659515528.812079,14269
1659515528.856505,14308
1659515528.889825,14347
1659515528.923145,14378
1659515528.967913,14323
1659515529.012681,14215
1659515529.057449,14151
1659515529.091281,14133
1659515529.125113,14129
1659515529.168856,14111
1659515529.212599,14118
1659515529.256342,14117
1659515529.2953,14114
1659515529.334259,14139
1659515529.373217,14179
1659515529.414226,14225
1659515529.455235,14271
1659515529.493852,14314
1659515529.532469,14354
1659515529.571085,14380
1659515529.613632,14424
1659515529.656179,14451
1659515529.695137,14485
1659515529.734096,14519
1659515529.773054,14554
1659515529.811671,14584
1659515529.850287,14618
1659515529.888904,14654
1659515529.930426,14681
1659515529.971947,14643
1659515530.011931,14568
1659515530.051914,14587
1659515530.091898,14653
1659515530.132907,14685
1659515530.173916,14714
1659515530.212874,14719
1659515530.251833,14735
1659515530.290792,14738
1659515530.333338,14743
1659515530.375885,14758
1659515530.414843,14784
1659515530.453802,14812
1659515530.49276,14830
1659515530.533257,14859
1659515530.573753,14865
1659515530.613053,14873
1659515530.652353,14900
1659515530.691653,14912
1659515530.735738,14929
1659515530.779823,14956
1659515530.823907,14986
1659515530.857739,14971
1659515530.891572,14894
1659515530.935998,14813
1659515530.980424,14803
1659515531.024851,14828
1659515531.057658,14837
1659515531.090465,14848
1659515531.13455,14851
1659515531.178634,14851
1659515531.222719,14849
1659515531.262361,14842
1659515531.302002,14860
1659515531.341645,14880
1659515531.383166,14913
1659515531.424687,14930
1659515531.464466,14943
1659515531.504245,14978
1659515531.544023,14987
1659515531.583802,15004
1659515531.623581,15016
1659515531.66459,15029
1659515531.705598,15051
1659515531.744215,15062
1659515531.782832,15010
1659515531.821449,14879
1659515531.860407,14811
1659515531.899365,14823
1659515531.938324,14837
1659515531.979333,14869
1659515532.020342,14900
1659515532.058959,14915
1659515532.097575,14930
1659515532.136192,14937
1659515532.17515,14957
1659515532.214109,14994
1659515532.253067,15022
1659515532.295101,15059
1659515532.337136,15088
1659515532.375752,15103
1659515532.414369,15127
1659515532.452986,15145
1659515532.494507,15157
1659515532.536029,15168
1659515532.580455,15185
1659515532.624881,15209
1659515532.669308,15211
1659515532.70314,15108
1659515532.736972,14998
1659515532.781057,14950
1659515532.825141,14963
1659515532.869226,14974
1659515532.902033,14976
1659515532.93484,15005
1659515532.978925,15012
1659515533.023009,15017
1659515533.067094,15017
1659515533.106394,15034
1659515533.145694,15047
1659515533.184994,15056
1659515533.227541,15067
1659515533.270088,15089
1659515533.309047,15097
1659515533.348005,15126
1659515533.386963,15152
1659515533.427972,15167
1659515533.468981,15175
1659515533.508281,15191
1659515533.547581,15184
1659515533.586882,15171
1659515533.625499,15047
1659515533.664115,14861
1659515533.702732,14750
1659515533.744766,14725
1659515533.7868,14683
1659515533.825417,14660
1659515533.864033,14687
1659515533.90265,14713
1659515533.943659,14729
1659515533.984668,14737
1659515534.022943,14749
1659515534.061218,14784
1659515534.099493,14814
1659515534.141527,14829
1659515534.183561,14859
1659515534.22252,14875
1659515534.261478,14888
1659515534.300436,14904
1659515534.341445,14937
1659515534.382454,14941
1659515534.421071,14956
1659515534.459688,14979
1659515534.498305,14998
1659515534.543072,14978
1659515534.587841,14855
1659515534.632609,14679
1659515534.665928,14558
1659515534.699248,14527
1659515534.743675,14457
1659515534.788101,14405
1659515534.832527,14393
1659515534.871485,14377
1659515534.910444,14360
1659515534.949402,14341
1659515534.989899,14335
1659515535.030395,14351
1659515535.069012,14357
1659515535.107628,14371
1659515535.146245,14393
1659515535.185545,14408
1659515535.224845,14447
1659515535.264146,14474
1659515535.304642,14505
1659515535.345138,14516
1659515535.384097,14541
1659515535.423055,14567
1659515535.462014,14570
1659515535.50456,14596
1659515535.547107,14619
1659515535.585382,14586
1659515535.623657,14452
1659515535.661932,14361
1659515535.702941,14337
1659515535.74395,14341
1659515535.783592,14338
1659515535.823234,14342
1659515535.862876,14348
1659515535.90491,14343
1659515535.946944,14342
1659515535.985561,14359
1659515536.024177,14399
1659515536.062794,14438
1659515536.107562,14468
1659515536.15233,14483
1659515536.197098,14497
1659515536.229393,14510
1659515536.261687,14542
1659515536.30543,14556
1659515536.349173,14595
1659515536.392916,14628
1659515536.435975,14634
1659515536.479034,14658
1659515536.517993,14679
1659515536.556951,14656
1659515536.59591,14519
1659515536.634868,14348
1659515536.673827,14238
1659515536.712785,14184
1659515536.754819,14158
1659515536.796853,14147
1659515536.838887,14157
1659515536.880922,14147
1659515536.919197,14132
1659515536.957472,14132
1659515536.995747,14165
1659515537.037268,14198
1659515537.078789,14241
1659515537.117748,14265
1659515537.156706,14293
1659515537.195665,14333
1659515537.23394,14357
1659515537.272215,14384
1659515537.31049,14430
1659515537.352524,14459
1659515537.394558,14491
1659515537.433517,14513
1659515537.472475,14553
1659515537.511433,14548
1659515537.55193,14450
1659515537.592426,14309
1659515537.631384,14224
1659515537.670343,14212
1659515537.709301,14194
1659515537.74826,14177
1659515537.787218,14179
1659515537.826177,14180
1659515537.868211,14161
1659515537.910245,14156
1659515537.951254,14149
1659515537.992263,14149
1659515538.030879,14157
1659515538.069496,14173
1659515538.108113,14169
1659515538.152197,14167
1659515538.196282,14141
1659515538.240367,14128
1659515538.274199,14168
1659515538.308031,14217
1659515538.352458,14280
1659515538.396884,14336
1659515538.44131,14399
1659515538.474117,14414
1659515538.506924,14289
1659515538.550667,14057
1659515538.59441,13868
1659515538.638153,13737
1659515538.677453,13604
1659515538.716753,13513
1659515538.756053,13480
1659515538.798088,13471
1659515538.840122,13463
1659515538.87908,13487
1659515538.918039,13525
1659515538.956997,13569
1659515538.999031,13619
1659515539.041065,13653
1659515539.080366,13688
1659515539.119666,13727
1659515539.158966,13767
1659515539.197924,13787
1659515539.236883,13830
1659515539.275841,13860
1659515539.31685,13897
1659515539.357859,13921
1659515539.397159,13957
1659515539.43646,13986
1659515539.47576,13929
1659515539.516256,13809
1659515539.556752,13728
1659515539.595711,13719
1659515539.634669,13723
1659515539.673628,13731
1659515539.715662,13757
1659515539.757696,13762
1659515539.796313,13762
1659515539.834929,13764
1659515539.873546,13787
1659515539.914555,13831
1659515539.955564,13904
1659515539.995548,13969
1659515540.035531,14036
1659515540.075515,14073
1659515540.119941,14089
1659515540.164367,14117
1659515540.208794,14138
1659515540.250315,14156
1659515540.291837,14164
1659515540.331137,14177
1659515540.370437,14180
1659515540.409737,14188
1659515540.450746,14103
1659515540.491755,13928
1659515540.530372,13774
1659515540.568989,13713
1659515540.607605,13716
1659515540.646905,13769
1659515540.686206,13829
1659515540.725506,13879
1659515540.766002,13926
1659515540.806499,13976
1659515540.844432,14020
1659515540.882365,14042
1659515540.920298,14044
1659515540.959598,14019
1659515540.998899,13984
1659515541.038199,13916
1659515541.080233,13889
1659515541.122267,13888
1659515541.160884,13905
1659515541.199501,13932
1659515541.238117,13946
1659515541.280151,13975
1659515541.322186,14007
1659515541.360802,14025
1659515541.399419,13921
1659515541.438035,13732
1659515541.479557,13605
1659515541.521079,13535
1659515541.560037,13493
1659515541.598995,13443
1659515541.637954,13415
1659515541.679476,13400
1659515541.720997,13384
1659515541.76474,13374
1659515541.808483,13380
1659515541.852226,13418
1659515541.891526,13462
1659515541.930826,13498
1659515541.970126,13539
1659515542.007803,13572
1659515542.04548,13612
1659515542.083157,13652
1659515542.120834,13679
1659515542.16526,13717
1659515542.209686,13746
1659515542.254113,13793
1659515542.287945,13819
1659515542.321777,13804
1659515542.366204,13662
1659515542.41063,13492
1659515542.455056,13426
1659515542.494015,13372
1659515542.532973,13337
1659515542.571932,13320
1659515542.613453,13327
1659515542.654975,13318
1659515542.693591,13292
1659515542.732208,13289
1659515542.770825,13295
1659515542.809442,13329
1659515542.848058,13348
1659515542.886675,13389
1659515542.929222,13467
1659515542.971768,13526
1659515543.010385,13586
1659515543.049002,13628
1659515543.087619,13662
1659515543.12914,13692
1659515543.170661,13742
1659515543.20962,13803
1659515543.248579,13841
1659515543.287537,13807
1659515543.330084,13698
1659515543.37263,13633
1659515543.411247,13617
1659515543.449864,13589
1659515543.488481,13575
1659515543.530002,13583
1659515543.571524,13599
1659515543.610482,13594
1659515543.649441,13619
1659515543.688399,13645
1659515543.7318,13669
1659515543.775201,13709
1659515543.818602,13724
1659515543.851922,13745
1659515543.885242,13762
1659515543.929326,13786
1659515543.973411,13820
1659515544.017495,13837
1659515544.058504,13848
1659515544.099513,13838
1659515544.13813,13832
1659515544.176747,13814
1659515544.215363,13735
1659515544.255005,13503
1659515544.294647,13026
1659515544.334289,12583
1659515544.375811,12299
1659515544.417332,12110
1659515544.455607,11969
1659515544.493882,11904
1659515544.532157,11887
1659515544.574704,11844
1659515544.61725,11813
1659515544.656209,11794
1659515544.695167,11813
1659515544.734126,11837
1659515544.772743,11863
1659515544.811359,11897
1659515544.849976,11883
1659515544.89201,11885
1659515544.934044,11914
1659515544.972319,11914
1659515545.010594,11932
1659515545.048869,11956
1659515545.090391,11992
1659515545.131912,12019
1659515545.171212,12006
1659515545.210513,11774
1659515545.249813,11401
1659515545.293897,11157
1659515545.337982,11045
1659515545.382066,10959
1659515545.415386,10905
1659515545.448706,10869
1659515545.493474,10820
1659515545.538242,10781
1659515545.58301,10761
1659515545.621627,10788
1659515545.660244,10832
1659515545.69886,10892
1659515545.740382,10944
1659515545.781903,10996
1659515545.821545,11035
1659515545.861187,11085
1659515545.900829,11147
1659515545.939104,11202
1659515545.977379,11269
1659515546.015654,11337
1659515546.056663,11411
1659515546.097672,11477
1659515546.13663,11554
1659515546.175589,11537
1659515546.214547,11295
1659515546.256581,10997
1659515546.298615,10815
1659515546.33689,10737
1659515546.375165,10657
1659515546.41344,10603
1659515546.455474,10608
1659515546.497509,10622
1659515546.536125,10621
1659515546.574742,10629
1659515546.613359,10680
1659515546.655393,10760
1659515546.697427,10843
1659515546.736044,10949
1659515546.77466,11025
1659515546.813277,11117
1659515546.858045,11220
1659515546.902813,11315
1659515546.947581,11402
1659515546.979876,11498
1659515547.01217,11617
1659515547.056255,11727
1659515547.100339,11849
1659515547.144424,11967
1659515547.186458,12064
1659515547.228492,12179
1659515547.267656,12248
1659515547.306819,12184
1659515547.345983,11975
1659515547.385146,11788
1659515547.42431,11720
1659515547.463268,11698
1659515547.502227,11685
1659515547.541185,11696
1659515547.580143,11733
1659515547.619102,11742
1659515547.65806,11755
1659515547.699582,11786
1659515547.741103,11825
1659515547.780062,11898
1659515547.81902,11972
1659515547.857979,12048
1659515547.897279,12112
1659515547.936579,12200
1659515547.975879,12269
1659515548.017401,12335
1659515548.058922,12402
1659515548.098222,12469
1659515548.137523,12541
1659515548.176823,12610
1659515548.218344,12667
1659515548.259866,12621
1659515548.298141,12394
1659515548.336416,12178
1659515548.374691,12070
1659515548.416725,12026
1659515548.458759,11977
1659515548.498059,11940
1659515548.537359,11978
1659515548.57666,12008
1659515548.617156,12052
1659515548.657652,12092
1659515548.70242,12152
1659515548.747188,12224
1659515548.791956,12283
1659515548.830915,12359
1659515548.869873,12422
1659515548.908832,12507
1659515548.950866,12587
1659515548.9929,12666
1659515549.031858,12723
1659515549.070817,12773
1659515549.109776,12841
1659515549.152322,12899
1659515549.194869,12968
1659515549.233144,13010
1659515549.271419,12890
1659515549.309694,12666
1659515549.34831,12501
1659515549.386927,12387
1659515549.425544,12304
1659515549.468603,12288
1659515549.511663,12342
1659515549.549596,12409
1659515549.587529,12479
1659515549.625462,12514
1659515549.665959,12543
1659515549.706455,12593
1659515549.746097,12632
1659515549.785739,12655
1659515549.825381,12661
1659515549.863656,12688
1659515549.901931,12725
1659515549.940206,12766
1659515549.982752,12803
1659515550.025299,12842
1659515550.063916,12890
1659515550.102533,12935
1659515550.141149,12983
1659515550.182671,13038
1659515550.224192,13000
1659515550.267935,12808
1659515550.311678,12587
1659515550.355421,12476
1659515550.389766,12463
1659515550.424111,12472
1659515550.468195,12492
1659515550.51228,12508
1659515550.556364,12518
1659515550.588659,12509
1659515550.620953,12531
1659515550.665721,12583
1659515550.71049,12652
1659515550.755258,12707
1659515550.793533,12763
1659515550.831808,12830
1659515550.870082,12892
1659515550.911604,12954
1659515550.953125,12999
1659515550.992767,13042
1659515551.032409,13106
1659515551.072051,13141
1659515551.110668,13176
1659515551.149285,13211
1659515551.187901,13207
1659515551.229936,13096
1659515551.27197,12945
1659515551.31127,12883
1659515551.35057,12907
1659515551.38987,12955
1659515551.431392,13008
1659515551.472913,13052
1659515551.511188,13075
1659515551.549463,13081
1659515551.587738,13095
1659515551.62926,13151
1659515551.670781,13191
1659515551.710081,13245
1659515551.749382,13306
1659515551.788682,13362
1659515551.830203,13411
1659515551.871725,13448
1659515551.910342,13480
1659515551.948958,13509
1659515551.987575,13547
1659515552.029609,13577
1659515552.071643,13618
1659515552.110943,13608
1659515552.150244,13483
1659515552.189544,13354
1659515552.234312,13320
1659515552.27908,13353
1659515552.323848,13371
1659515552.357168,13401
1659515552.390487,13425
1659515552.434914,13405
1659515552.47934,13413
1659515552.523766,13430
1659515552.560931,13466
1659515552.598095,13509
1659515552.635259,13537
1659515552.672424,13570
1659515552.716508,13599
1659515552.760593,13633
1659515552.804677,13655
1659515552.843294,13679
1659515552.881911,13712
1659515552.920527,13746
1659515552.961536,13777
1659515553.002545,13725
1659515553.041504,13550
1659515553.080462,13389
1659515553.119421,13292
1659515553.158037,13260
1659515553.196654,13245
1659515553.235271,13245
1659515553.276792,13255
1659515553.318314,13268
1659515553.357614,13291
1659515553.396914,13319
1659515553.436214,13375
1659515553.474489,13445
1659515553.512764,13513
1659515553.551039,13588
1659515553.593586,13649
1659515553.636133,13681
1659515553.675433,13713
1659515553.714733,13683
1659515553.754033,13660
1659515553.79453,13628
1659515553.835026,13605
1659515553.873643,13582
1659515553.912259,13440
1659515553.950876,13167
1659515553.993423,12949
1659515554.035969,12870
1659515554.079712,12822
1659515554.123455,12795
1659515554.167198,12809
1659515554.205473,12816
1659515554.243748,12800
1659515554.282023,12781
1659515554.32457,12793
1659515554.367116,12822
1659515554.405733,12868
1659515554.44435,12924
1659515554.482966,12970
1659515554.522267,13021
1659515554.561567,13069
1659515554.600867,13111
1659515554.643414,13161
1659515554.685961,13202
1659515554.724236,13247
1659515554.762511,13297
1659515554.800786,13278
1659515554.841794,13114
1659515554.882803,12886
1659515554.922103,12753
1659515554.961404,12718
1659515555.000704,12721
1659515555.039662,12770
1659515555.078621,12809
1659515555.117579,12848
1659515555.159101,12858
1659515555.200622,12879
1659515555.239581,12890
1659515555.278539,12882
1659515555.317498,12853
1659515555.358506,12828
1659515555.399515,12807
1659515555.438474,12794
1659515555.477432,12796
1659515555.516391,12808
1659515555.558425,12816
1659515555.600459,12841
1659515555.644885,12875
1659515555.689312,12898
1659515555.733738,12904
1659515555.766545,12739
1659515555.799352,12296
1659515555.843779,11834
1659515555.888205,11509
1659515555.932631,11259
1659515555.97159,11071
1659515556.010548,10974
1659515556.049506,10907
1659515556.090003,10848
1659515556.130499,10785
1659515556.169457,10758
1659515556.208416,10749
1659515556.247375,10746
1659515556.285649,10788
1659515556.323924,10832
1659515556.362199,10888
1659515556.404233,10953
1659515556.446268,11032
1659515556.485226,11105
1659515556.524184,11171
1659515556.563143,11250
1659515556.604665,11317
1659515556.646186,11376
1659515556.684803,11445
1659515556.723419,11469
1659515556.762036,11346
1659515556.800995,11084
1659515556.839953,10916
1659515556.878911,10835
1659515556.920946,10778
1659515556.96298,10741
1659515557.001596,10747
1659515557.040213,10752
1659515557.07883,10726
1659515557.119326,10718
1659515557.159822,10722
1659515557.204249,10747
1659515557.248675,10782
1659515557.293101,10802
1659515557.326934,10812
1659515557.360766,10847
1659515557.404851,10893
1659515557.448935,10951
1659515557.49302,10998
1659515557.525827,11052
1659515557.558634,11110
1659515557.603402,11144
1659515557.64817,11201
1659515557.692938,11260
1659515557.731897,11292
1659515557.770855,11136
1659515557.809813,10866
1659515557.851848,10684
1659515557.893882,10587
1659515557.935916,10509
1659515557.97795,10467
1659515558.016908,10508
1659515558.055867,10544
1659515558.094825,10566
1659515558.137372,10588
1659515558.179919,10638
1659515558.218536,10715
1659515558.257152,10789
1659515558.295769,10854
1659515558.334044,10930
1659515558.372319,11012
1659515558.410594,11080
1659515558.451603,11164
1659515558.492612,11234
1659515558.53157,11309
1659515558.570529,11389
1659515558.609487,11464
1659515558.647762,11547
1659515558.686037,11640
1659515558.724312,11706
1659515558.766346,11788
1659515558.80838,11866
1659515558.84768,11924
1659515558.886981,11860
1659515558.926281,11657
1659515558.96729,11507
1659515559.008299,11450
1659515559.047257,11417
1659515559.086215,11375
1659515559.125174,11388
1659515559.167721,11425
1659515559.210268,11395
1659515559.248201,11340
1659515559.286134,11292
1659515559.324067,11302
1659515559.365076,11351
1659515559.406085,11413
1659515559.450511,11492
1659515559.494938,11572
1659515559.539364,11657
1659515559.577639,11738
1659515559.615914,11828
1659515559.654189,11909
1659515559.69571,11978
1659515559.737232,12044
1659515559.776874,12108
1659515559.816516,12167
1659515559.856158,12230
1659515559.897166,12293
1659515559.938175,12267
1659515559.97645,12072
1659515560.014725,11836
1659515560.053,11628
1659515560.092984,11481
1659515560.132968,11376
1659515560.172951,11343
1659515560.214473,11359
1659515560.255994,11385
1659515560.294611,11444
1659515560.333228,11514
1659515560.371845,11644
1659515560.413366,11772
1659515560.454888,11895
1659515560.493846,12012
1659515560.532804,12109
1659515560.571763,12206
1659515560.61038,12269
1659515560.648996,12316
1659515560.687613,12358
1659515560.729135,12413
1659515560.770656,12463
1659515560.809273,12515
1659515560.847889,12586
1659515560.886506,12649
1659515560.92854,12710
1659515560.970574,12771
1659515561.015684,12745
1659515561.060794,12541
1659515561.105904,12275
1659515561.138711,12097
1659515561.171518,12026
1659515561.215944,12006
1659515561.260371,12052
1659515561.304797,12139
1659515561.338629,12235
1659515561.372462,12329
1659515561.417572,12420
1659515561.462681,12536
1659515561.507791,12639
1659515561.546066,12750
1659515561.584341,12818
1659515561.622616,12890
1659515561.663625,12968
1659515561.704634,13033
1659515561.742311,13083
1659515561.779988,13120
1659515561.817665,13166
1659515561.855341,13199
1659515561.899084,13254
1659515561.942827,13314
1659515561.98657,13381
1659515562.02587,13444
1659515562.06517,13439
1659515562.10447,13335
1659515562.145479,13232
1659515562.186488,13197
1659515562.225789,13199
1659515562.265089,13200
1659515562.304389,13223
1659515562.34591,13236
1659515562.387432,13250
1659515562.42639,13269
1659515562.465349,13292
1659515562.504307,13343
1659515562.542582,13386
1659515562.580857,13446
1659515562.619132,13495
1659515562.661166,13537
1659515562.703201,13561
1659515562.742159,13592
1659515562.781117,13636
1659515562.820076,13675
1659515562.858009,13721
1659515562.895942,13761
1659515562.933876,13805
1659515562.974885,13856
1659515563.015893,13874
1659515563.056082,13825
1659515563.096271,13652
1659515563.13646,13482
1659515563.176648,13381
1659515563.216837,13306
1659515563.261263,13230
1659515563.30569,13195
1659515563.350116,13205
1659515563.383948,13204
1659515563.417781,13194
1659515563.462207,13206
1659515563.506633,13223
1659515563.551059,13260
1659515563.589334,13315
1659515563.627609,13353
1659515563.665884,13400
1659515563.708944,13434
1659515563.752003,13485
1659515563.790278,13524
1659515563.828553,13569
1659515563.866828,13614
1659515563.907837,13651
1659515563.948846,13693
1659515563.988146,13723
1659515564.027446,13746
1659515564.066746,13689
1659515564.105021,13513
1659515564.143296,13360
1659515564.181571,13279
1659515564.223093,13255
1659515564.264614,13253
1659515564.304256,13297
1659515564.343898,13372
1659515564.38354,13421
1659515564.425062,13485
1659515564.466583,13529
1659515564.505542,13579
1659515564.5445,13624
1659515564.583458,13670
1659515564.622759,13700
1659515564.662059,13729
1659515564.701359,13754
1659515564.742368,13772
1659515564.783377,13801
1659515564.823873,13835
1659515564.864369,13858
1659515564.903328,13889
1659515564.942286,13917
1659515564.981245,13958
1659515565.025329,13990
1659515565.069414,13998
1659515565.113498,13923
1659515565.146818,13811
1659515565.180138,13790
1659515565.224564,13816
1659515565.268991,13836
1659515565.313417,13845
1659515565.352034,13867
1659515565.39065,13896
1659515565.429267,13889
1659515565.470276,13903
1659515565.511285,13939
1659515565.550927,13953
1659515565.590569,13977
1659515565.630211,13997
1659515565.671732,14008
1659515565.713254,13997
1659515565.75187,13988
1659515565.790487,13992
1659515565.829104,14007
1659515565.867379,14034
1659515565.905654,14071
1659515565.943929,14116
1659515565.982545,14137
1659515566.021162,14099
1659515566.059779,13936
1659515566.101813,13685
1659515566.143847,13477
1659515566.182464,13361
1659515566.221081,13294
1659515566.259697,13235
1659515566.300706,13228
1659515566.341715,13227
1659515566.3858,13216
1659515566.429884,13182
1659515566.473969,13180
1659515566.507801,13199
1659515566.541633,13223
1659515566.586743,13241
1659515566.631853,13257
1659515566.676963,13269
1659515566.71558,13290
1659515566.754196,13308
1659515566.792813,13322
1659515566.834847,13347
1659515566.876881,13374
1659515566.915498,13418
1659515566.954115,13443
1659515566.992731,13465
1659515567.035278,13452
1659515567.077825,13250
1659515567.1161,12919
1659515567.154375,12684
1659515567.19265,12587
1659515567.231608,12526
1659515567.270567,12508
1659515567.309525,12533
1659515567.350534,12556
1659515567.391543,12548
1659515567.43016,12521
1659515567.468776,12514
1659515567.507393,12535
1659515567.549427,12543
1659515567.591461,12578
1659515567.630761,12612
1659515567.670062,12659
1659515567.709362,12687
1659515567.747637,12715
1659515567.785912,12774
1659515567.824187,12837
1659515567.866734,12906
1659515567.90928,12941
1659515567.951827,12969
1659515567.994374,13009
1659515568.032649,13049
1659515568.070924,13069
1659515568.109199,12948
1659515568.153625,12746
1659515568.198051,12596
1659515568.242478,12543
1659515568.280923,12503
1659515568.319369,12454
1659515568.357815,12436
1659515568.396261,12418
1659515568.434707,12420
1659515568.473153,12438
1659515568.512453,12461
1659515568.551753,12520
1659515568.591053,12585
1659515568.632575,12636
1659515568.674096,12670
1659515568.712371,12694
1659515568.750646,12728
1659515568.788921,12747
1659515568.830955,12795
1659515568.872989,12814
1659515568.911606,12864
1659515568.950223,12951
1659515568.98884,13032
1659515569.030361,13114
1659515569.071882,13109
1659515569.111183,12980
1659515569.150483,12805
1659515569.189783,12665
1659515569.230792,12551
1659515569.271801,12441
1659515569.310076,12338
1659515569.348351,12226
1659515569.386626,12144
1659515569.431394,12106
1659515569.476162,12110
1659515569.52093,12143
1659515569.563477,12210
1659515569.606024,12272
1659515569.643957,12334
1659515569.68189,12407
1659515569.719823,12478
1659515569.761857,12523
1659515569.803891,12580
1659515569.843192,12601
1659515569.882492,12651
1659515569.921792,12708
1659515569.960409,12770
1659515569.999025,12825
1659515570.037642,12878
1659515570.080189,12858
1659515570.122736,12689
1659515570.162036,12507
1659515570.201336,12406
1659515570.240636,12368
1659515570.281132,12349
1659515570.321629,12346
1659515570.360245,12366
1659515570.398862,12381
1659515570.437479,12383
1659515570.476779,12400
1659515570.516079,12445
1659515570.55538,12508
1659515570.596388,12564
1659515570.637397,12615
1659515570.676014,12665
1659515570.714631,12716
1659515570.753247,12775
1659515570.794769,12811
1659515570.836291,12856
1659515570.880717,12908
1659515570.925143,12943
1659515570.969569,12971
1659515571.00887,13001
1659515571.04817,13031
1659515571.08747,12957
1659515571.129504,12799
1659515571.171538,12671
1659515571.210155,12580
1659515571.248772,12492
1659515571.287388,12378
1659515571.32891,12307
1659515571.370431,12257
1659515571.410073,12280
1659515571.449715,12344
1659515571.489357,12416
1659515571.527632,12480
1659515571.565907,12536
1659515571.604182,12606
1659515571.644678,12660
1659515571.685175,12745
1659515571.723791,12835
1659515571.762408,12924
1659515571.801025,12995
1659515571.839983,13040
1659515571.878942,13017
1659515571.9179,12980
1659515571.959422,13026
1659515572.000943,13121
1659515572.039902,13143
1659515572.07886,13059
1659515572.117819,12961
1659515572.159853,12938
1659515572.201887,12907
1659515572.240162,12801
1659515572.278437,12675
1659515572.316712,12550
1659515572.358746,12460
1659515572.40078,12410
1659515572.445548,12400
1659515572.490316,12456
1659515572.535084,12510
1659515572.567891,12558
1659515572.600698,12591
1659515572.644783,12617
1659515572.688868,12630
1659515572.732952,12656
1659515572.77191,12706
1659515572.810869,12756
1659515572.849828,12789
1659515572.891862,12831
1659515572.933896,12885
1659515572.972171,12928
1659515573.010446,12985
1659515573.048721,12950
1659515573.090755,12762
1659515573.132789,12508
1659515573.171747,12319
1659515573.210706,12202
1659515573.249664,12100
1659515573.288281,12036
1659515573.326898,12035
1659515573.365514,12064
1659515573.408574,12079
1659515573.451633,12130
1659515573.490592,12212
1659515573.52955,12312
1659515573.568508,12395
1659515573.610286,12504
1659515573.652064,12585
1659515573.693842,12652
1659515573.73562,12740
1659515573.774236,12808
1659515573.812853,12870
1659515573.85147,12928
1659515573.889745,12990
1659515573.92802,13038
1659515573.966295,13093
1659515574.007816,13138
1659515574.049338,13174
1659515574.087955,13219
1659515574.126571,13195
1659515574.165188,13037
1659515574.206709,12857
1659515574.248231,12762
1659515574.287531,12756
1659515574.326831,12756
1659515574.366132,12778
1659515574.407653,12777
1659515574.449175,12781
1659515574.487791,12777
1659515574.526408,12772
1659515574.565025,12800
1659515574.609451,12813
1659515574.653877,12860
1659515574.698304,12886
1659515574.740338,12923
1659515574.782372,12949
1659515574.820305,12983
1659515574.858238,13011
1659515574.896172,13040
1659515574.934788,13078
1659515574.973405,13118
1659515575.012022,13145
1659515575.05303,13194
1659515575.094039,13224
1659515575.132998,13220
1659515575.171956,13035
1659515575.210915,12770
1659515575.251924,12567
1659515575.292933,12457
1659515575.332233,12358
1659515575.371533,12280
1659515575.410833,12272
1659515575.44945,12268
1659515575.488067,12269
1659515575.526683,12249
1659515575.568717,12261
1659515575.610752,12304
1659515575.64971,12348
1659515575.688668,12393
1659515575.727627,12444
1659515575.769661,12508
1659515575.811695,12570
1659515575.84997,12622
1659515575.888245,12691
1659515575.92652,12759
1659515575.969067,12822
1659515576.011614,12885
1659515576.050572,12953
1659515576.08953,13014
1659515576.128489,13070
1659515576.168985,13097
1659515576.209481,13015
1659515576.253908,12826
1659515576.298334,12701
1659515576.342761,12682
1659515576.381377,12671
1659515576.419994,12675
1659515576.458611,12705
1659515576.500645,12735
1659515576.542679,12740
1659515576.581979,12759
1659515576.621279,12814
1659515576.660579,12889
1659515576.702101,12961
1659515576.743623,13014
1659515576.782581,13027
1659515576.821539,13026
1659515576.860498,13010
1659515576.899115,13034
1659515576.937731,13098
1659515576.976348,13159
1659515577.018895,13234
1659515577.061441,13306
1659515577.099716,13380
1659515577.137991,13443
1659515577.176266,13445
1659515577.214883,13332
1659515577.2535,13227
1659515577.292116,13165
1659515577.334151,13027
1659515577.376185,12859
1659515577.414118,12711
1659515577.452051,12565
1659515577.489985,12407
1659515577.531506,12274
1659515577.573027,12200
1659515577.612669,12168
1659515577.652311,12208
1659515577.691953,12250
1659515577.732962,12313
1659515577.773971,12394
1659515577.818397,12464
1659515577.862824,12528
1659515577.90725,12580
1659515577.941082,12614
1659515577.974915,12644
1659515578.018999,12698
1659515578.063084,12746
1659515578.107168,12810
1659515578.145102,12835
1659515578.183035,12713
1659515578.220968,12464
1659515578.263002,12291
1659515578.305036,12195
1659515578.343311,12121
1659515578.381586,12067
1659515578.419861,12050
1659515578.461383,12057
1659515578.502904,12050
1659515578.542204,12079
1659515578.581505,12132
1659515578.620805,12222
1659515578.659422,12297
1659515578.698038,12362
1659515578.736655,12413
1659515578.777664,12443
1659515578.818673,12451
1659515578.859272,12434
1659515578.89987,12418
1659515578.940469,12395
1659515578.981068,12372
1659515579.021667,12395
1659515579.060625,12414
1659515579.099584,12416
1659515579.138542,12238
1659515579.179551,11846
1659515579.22056,11516
1659515579.260202,11335
1659515579.299844,11236
1659515579.339486,11181
1659515579.379982,11184
1659515579.420478,11217
1659515579.459437,11241
1659515579.498395,11289
1659515579.537354,11378
1659515579.578875,11495
1659515579.620397,11614
1659515579.659355,11735
1659515579.698314,11802
1659515579.737272,11869
1659515579.778794,11908
1659515579.820315,11932
1659515579.859615,11970
1659515579.898916,12021
1659515579.938216,12085
1659515579.982642,12134
1659515580.027068,12148
1659515580.071495,11977
1659515580.113529,11652
1659515580.155563,11428
1659515580.195205,11240
1659515580.234847,11056
1659515580.274489,10959
1659515580.314985,10937
1659515580.355481,10966
1659515580.393756,11013
1659515580.432031,11105
1659515580.470306,11230
1659515580.509265,11373
1659515580.548223,11500
1659515580.587182,11591
1659515580.628703,11684
1659515580.670225,11749
1659515580.708841,11823
1659515580.747458,11906
1659515580.786075,11974
1659515580.82435,12033
1659515580.862625,12061
1659515580.9009,12051
1659515580.942934,12015
1659515580.984968,11929
1659515581.023585,11645
1659515581.062201,11197
1659515581.100818,10835
1659515581.142852,10554
1659515581.184886,10351
1659515581.224186,10219
1659515581.263487,10183
1659515581.302787,10182
1659515581.346871,10175
1659515581.390956,10173
1659515581.43504,10200
1659515581.467848,10255
1659515581.500655,10347
1659515581.545081,10454
1659515581.589507,10585
1659515581.633934,10733
1659515581.675455,10908
1659515581.716977,11128
1659515581.755935,11352
1659515581.794894,11572
1659515581.833852,11746
1659515581.872811,11884
1659515581.911769,11999
1659515581.950727,12080
1659515581.991736,12023
1659515582.032745,11836
1659515582.071704,11692
1659515582.110662,11627
1659515582.149621,11589
1659515582.192168,11595
1659515582.234714,11643
1659515582.273331,11706
1659515582.311948,11729
1659515582.350564,11775
1659515582.389864,11831
1659515582.429165,11924
1659515582.468465,11991
1659515582.509986,12066
1659515582.551508,12127
1659515582.590466,12181
1659515582.629425,12246
1659515582.668383,12296
1659515582.709392,12353
1659515582.750401,12441
1659515582.789701,12516
1659515582.829001,12601
1659515582.868302,12643
1659515582.909311,12668
1659515582.95032,12548
1659515582.98962,12313
1659515583.02892,12149
1659515583.06822,12073
1659515583.110254,12023
1659515583.152288,11957
1659515583.196715,11931
1659515583.241141,11893
1659515583.285567,11825
1659515583.323842,11768
1659515583.362117,11748
1659515583.400392,11741
1659515583.442939,11740
1659515583.485486,11741
1659515583.524444,11741
1659515583.563402,11760
1659515583.602361,11810
1659515583.642857,11855
1659515583.683353,11910
1659515583.722312,11973
1659515583.761271,12034
1659515583.800229,12109
1659515583.838162,12199
1659515583.876095,12288
1659515583.914029,12398
1659515583.95555,12443
1659515583.997072,12360
1659515584.03603,12236
1659515584.074989,12208
1659515584.113947,12216
1659515584.153521,12222
1659515584.193094,12254
1659515584.232668,12292
1659515584.272241,12356
1659515584.311815,12394
1659515584.354362,12463
1659515584.396908,12533
1659515584.435867,12603
1659515584.474825,12646
1659515584.513784,12696
1659515584.554793,12770
1659515584.595802,12843
1659515584.63476,12911
1659515584.673718,12970
1659515584.712677,13036
1659515584.755224,13087
1659515584.79777,13159
1659515584.836045,13221
1659515584.87432,13276
1659515584.912595,13289
1659515584.95668,13192
1659515585.000764,13122
1659515585.044849,13092
1659515585.077656,13083
1659515585.110463,13103
1659515585.154548,13150
1659515585.198632,13172
1659515585.242717,13180
1659515585.276549,13199
1659515585.310382,13234
1659515585.355491,13248
1659515585.400601,13254
1659515585.445711,13271
1659515585.484328,13297
1659515585.522944,13368
1659515585.561561,13451
1659515585.603083,13526
1659515585.644604,13586
1659515585.683904,13632
1659515585.723205,13704
1659515585.762505,13742
1659515585.804539,13790
1659515585.846573,13821
1659515585.88519,13777
1659515585.923806,13581
1659515585.962423,13342
1659515586.001382,13158
1659515586.04034,13014
1659515586.079298,12878
1659515586.120307,12760
1659515586.161316,12702
1659515586.199591,12668
1659515586.237866,12670
1659515586.276141,12709
1659515586.318175,12791
1659515586.360209,12835
1659515586.39951,12863
1659515586.43881,12865
1659515586.47811,12869
1659515586.519119,12874
1659515586.560128,12900
1659515586.598745,12943
1659515586.637361,13004
1659515586.675978,13072
1659515586.718525,13127
1659515586.761071,13123
1659515586.805156,12972
1659515586.849241,12752
1659515586.893325,12597
1659515586.931942,12537
1659515586.970559,12511
1659515587.009175,12525
1659515587.050184,12576
1659515587.091193,12611
1659515587.12981,12638
1659515587.168427,12686
1659515587.207043,12755
1659515587.249077,12818
1659515587.291111,12905
1659515587.329728,12968
1659515587.368345,13051
1659515587.406962,13113
1659515587.445237,13105
1659515587.483511,13080
1659515587.521786,13112
1659515587.562795,13204
1659515587.603804,13202
1659515587.643788,13113
1659515587.683772,13043
1659515587.723755,13028
1659515587.76203,13005
1659515587.800305,12941
1659515587.83858,12869
1659515587.879589,12794
1659515587.920598,12729
1659515587.959898,12700
1659515587.999198,12739
1659515588.038499,12827
1659515588.080533,12897
1659515588.122567,12981
1659515588.161184,13041
1659515588.1998,13099
1659515588.238417,13141
1659515588.279938,13179
1659515588.32146,13251
1659515588.365886,13310
1659515588.410313,13353
1659515588.454739,13317
1659515588.488059,13136
1659515588.521379,12928
1659515588.566147,12822
1659515588.610914,12779
1659515588.655683,12752
1659515588.694641,12757
1659515588.733599,12774
1659515588.772558,12788
1659515588.813567,12802
1659515588.854576,12832
1659515588.894218,12869
1659515588.93386,12902
1659515588.973502,12963
1659515589.015536,13009
1659515589.05757,13077
1659515589.095845,13133
1659515589.13412,13182
1659515589.172395,13237
1659515589.211353,13285
1659515589.250312,13326
1659515589.28927,13356
1659515589.330792,13381
1659515589.372313,13420
1659515589.412092,13371
1659515589.45187,13165
1659515589.491649,12949
1659515589.531428,12888
1659515589.571206,12877
1659515589.609823,12843
1659515589.64844,12823
1659515589.687056,12799
1659515589.728065,12755
1659515589.769074,12705
1659515589.808033,12672
1659515589.846991,12674
1659515589.88595,12712
1659515589.928496,12743
1659515589.971043,12783
1659515590.00966,12835
1659515590.048276,12889
1659515590.086893,12960
1659515590.128415,13019
1659515590.169936,13063
1659515590.208211,13114
1659515590.246486,13159
1659515590.284761,13211
1659515590.327308,13261
1659515590.369855,13324
1659515590.40813,13283
1659515590.446404,13121
1659515590.484679,12967
1659515590.529106,12929
1659515590.573532,12943
1659515590.617959,12950
1659515590.658455,12951
1659515590.698951,12963
1659515590.737226,12962
1659515590.775501,12964
1659515590.813776,12985
1659515590.853076,13040
1659515590.892376,13102
1659515590.931677,13179
1659515590.973711,13245
1659515591.015745,13311
1659515591.054703,13376
1659515591.093662,13412
1659515591.13262,13452
1659515591.174654,13480
1659515591.216688,13522
1659515591.255989,13556
1659515591.295289,13590
1659515591.334589,13634
1659515591.373547,13626
1659515591.412506,13477
1659515591.451464,13219
1659515591.492473,13061
1659515591.533482,13032
1659515591.572782,13045
1659515591.612082,13078
1659515591.651383,13092
1659515591.691879,13062
1659515591.732375,13020
1659515591.771676,13013
1659515591.810976,13011
1659515591.850276,13020
1659515591.89231,13050
1659515591.934344,13069
1659515591.972961,13086
1659515592.011578,13096
1659515592.050194,13114
1659515592.09462,13139
1659515592.139047,13164
1659515592.183473,13217
1659515592.225507,13257
1659515592.267541,13325
1659515592.306842,13344
1659515592.346142,13210
1659515592.385442,12939
1659515592.426964,12722
1659515592.468485,12658
1659515592.507443,12648
1659515592.546402,12624
1659515592.58536,12614
1659515592.623635,12585
1659515592.66191,12552
1659515592.700185,12503
1659515592.741707,12503
1659515592.783228,12514
1659515592.822529,12550
1659515592.861829,12590
1659515592.901129,12626
1659515592.939062,12665
1659515592.976995,12708
1659515593.014929,12739
1659515593.05645,12775
1659515593.097972,12823
1659515593.13693,12868
1659515593.175889,12899
1659515593.214847,12932
1659515593.256881,12910
1659515593.298915,12713
1659515593.337532,12356
1659515593.376149,12177
1659515593.414765,12180
1659515593.4568,12206
1659515593.498834,12246
1659515593.53745,12294
1659515593.576067,12350
1659515593.614684,12358
1659515593.656718,12408
1659515593.698752,12504
1659515593.743178,12624
1659515593.787605,12705
1659515593.832031,12764
1659515593.870306,12800
1659515593.908581,12836
1659515593.946856,12869
1659515593.987352,12909
1659515594.027848,12973
1659515594.066807,13031
1659515594.105765,13109
1659515594.144724,13177
1659515594.186758,13196
1659515594.228792,13054
1659515594.267409,12854
1659515594.306026,12753
1659515594.344642,12754
1659515594.383942,12787
1659515594.423243,12827
1659515594.462543,12870
1659515594.504577,12877
1659515594.546611,12879
1659515594.585228,12912
1659515594.623844,12970
1659515594.662461,13008
1659515594.704495,13062
1659515594.746529,13134
1659515594.788563,13198
1659515594.830598,13253
1659515594.869214,13286
1659515594.907831,13323
1659515594.946448,13363
1659515594.984723,13399
1659515595.022998,13425
1659515595.061273,13338
1659515595.103819,13066
1659515595.146366,12760
1659515595.184983,12596
1659515595.2236,12492
1659515595.262216,12387
1659515595.303738,12319
1659515595.345259,12244
1659515595.384218,12167
1659515595.423176,12112
1659515595.462135,12109
1659515595.504169,12123
1659515595.546203,12143
1659515595.58482,12197
1659515595.623436,12265
1659515595.662053,12323
1659515595.703575,12351
1659515595.745096,12361
1659515595.784055,12401
1659515595.823013,12436
1659515595.861971,12470
1659515595.905714,12521
1659515595.949457,12575
1659515595.9932,12555
1659515596.035234,12306
1659515596.077268,11971
1659515596.115885,11742
1659515596.154502,11634
1659515596.193118,11525
1659515596.231393,11474
1659515596.269668,11478
1659515596.307943,11482
1659515596.349465,11463
1659515596.390986,11460
1659515596.430628,11505
1659515596.47027,11575
1659515596.509912,11654
1659515596.550921,11711
1659515596.59193,11782
1659515596.630205,11879
1659515596.66848,11958
1659515596.706755,12032
1659515596.746397,12087
1659515596.786039,12174
1659515596.825681,12272
1659515596.867202,12382
1659515596.908724,12493
1659515596.94734,12597
1659515596.985957,12687
1659515597.024574,12683
1659515597.066095,12484
1659515597.107617,12275
1659515597.14555,12177
1659515597.183483,12179
1659515597.221416,12202
1659515597.263194,12280
1659515597.304972,12331
1659515597.34675,12305
1659515597.388528,12259
1659515597.430049,12227
1659515597.471571,12222
1659515597.509846,12197
1659515597.548121,12144
1659515597.586396,12106
1659515597.626379,12085
1659515597.666363,12083
1659515597.706347,12100
1659515597.747868,12144
1659515597.78939,12184
1659515597.828007,12225
1659515597.866623,12282
1659515597.90524,12331
1659515597.947274,12396
1659515597.989308,12406
1659515598.02895,12217
1659515598.068592,11982
1659515598.108234,11873
1659515598.14873,11835
1659515598.189227,11768
1659515598.233311,11700
1659515598.277396,11672
1659515598.32148,11622
1659515598.3548,11534
1659515598.38812,11479
1659515598.432204,11479
1659515598.476289,11485
1659515598.520373,11508
1659515598.559674,11564
1659515598.598974,11634
1659515598.638274,11719
1659515598.680308,11818
1659515598.722342,11933
1659515598.760959,12014
1659515598.799576,12091
1659515598.838192,12176
1659515598.879714,12272
1659515598.921235,12398
1659515598.960877,12491
1659515599.000519,12579
1659515599.040161,12600
1659515599.078778,12400
1659515599.117395,12123
1659515599.156011,11973
1659515599.19702,11899
1659515599.238029,11830
1659515599.276988,11812
1659515599.315946,11837
1659515599.354904,11846
1659515599.393179,11855
1659515599.431454,11885
1659515599.469729,11909
1659515599.511251,11948
1659515599.552773,11960
1659515599.591048,11954
1659515599.629322,11992
1659515599.667597,12058
1659515599.709119,12142
1659515599.75064,12246
1659515599.795067,12325
1659515599.839493,12420
1659515599.883919,12535
1659515599.924313,12647
1659515599.964707,12735
1659515600.005101,12795
1659515600.045494,12837
1659515600.085888,12869
1659515600.124505,12761
1659515600.163121,12527
1659515600.201738,12369
1659515600.24326,12315
1659515600.284781,12275
1659515600.323398,12250
1659515600.362015,12257
1659515600.400631,12241
1659515600.439248,12212
1659515600.477865,12184
1659515600.516482,12192
1659515600.559028,12247
1659515600.601575,12314
1659515600.640533,12382
1659515600.679492,12429
1659515600.71845,12488
1659515600.756725,12549
1659515600.795,12612
1659515600.833275,12665
1659515600.874797,12726
1659515600.916318,12801
1659515600.956302,12847
1659515600.996286,12905
1659515601.036269,12959
1659515601.077278,13014
1659515601.118287,13025
1659515601.156904,12883
1659515601.195521,12689
1659515601.234137,12581
1659515601.276684,12567
1659515601.319231,12567
1659515601.362974,12577
1659515601.406716,12610
1659515601.450459,12594
1659515601.483779,12593
1659515601.517099,12608
1659515601.561867,12654
1659515601.606635,12729
1659515601.651403,12818
1659515601.68421,12895
1659515601.717017,12952
1659515601.761102,12986
1659515601.805186,13031
1659515601.849271,13066
1659515601.888913,13122
1659515601.928555,13168
1659515601.968197,13213
1659515602.009718,13251
1659515602.05124,13270
1659515602.089515,13279
1659515602.127789,13228
1659515602.166065,13021
1659515602.208099,12757
1659515602.250133,12644
1659515602.289433,12627
1659515602.328733,12617
1659515602.368033,12604
1659515602.406308,12584
1659515602.444583,12540
1659515602.482858,12477
1659515602.52438,12446
1659515602.565901,12455
1659515602.604518,12509
1659515602.643135,12573
1659515602.681751,12630
1659515602.720026,12710
1659515602.758301,12778
1659515602.796576,12837
1659515602.839123,12916
1659515602.88167,12967
1659515602.922679,13031
1659515602.963688,13105
1659515603.001963,13164
1659515603.040238,13230
1659515603.078513,13283
1659515603.123622,13255
1659515603.168732,13064
1659515603.213842,12865
1659515603.247674,12764
1659515603.281507,12760
1659515603.325591,12779
1659515603.369676,12794
1659515603.41376,12789
1659515603.44708,12757
1659515603.4804,12740
1659515603.524826,12739
1659515603.569252,12779
1659515603.613679,12841
1659515603.651954,12898
1659515603.690229,12986
1659515603.728504,13044
1659515603.77105,13106
1659515603.813597,13146
1659515603.852556,13176
1659515603.891514,13205
1659515603.930472,13235
1659515603.970969,13274
1659515604.011465,13317
1659515604.050082,13364
1659515604.088698,13369
1659515604.127315,13188
1659515604.166615,12888
1659515604.205916,12665
1659515604.245216,12564
1659515604.28725,12493
1659515604.329284,12473
1659515604.368243,12507
1659515604.407201,12534
1659515604.446159,12511
1659515604.488194,12487
1659515604.530228,12500
1659515604.569186,12523
1659515604.608145,12580
1659515604.647103,12644
1659515604.689137,12704
1659515604.731171,12782
1659515604.769788,12831
1659515604.808405,12903
1659515604.847021,12963
1659515604.891106,13032
1659515604.93519,13091
1659515604.979275,13148
1659515605.012082,13190
1659515605.044889,13214
1659515605.089316,13245
1659515605.133742,13102
1659515605.178168,12762
1659515605.217947,12480
1659515605.257725,12342
1659515605.297504,12244
1659515605.337283,12165
1659515605.377061,12147
1659515605.415678,12107
1659515605.454295,12091
1659515605.492912,12094
1659515605.534433,12144
1659515605.575955,12198
1659515605.615255,12216
1659515605.654555,12242
1659515605.693855,12307
1659515605.732472,12401
1659515605.771089,12489
1659515605.809705,12561
1659515605.851227,12641
1659515605.892748,12726
1659515605.931023,12813
1659515605.969298,12883
1659515606.007573,12922
1659515606.049095,12966
1659515606.090616,12904
1659515606.129916,12643
1659515606.169217,12382
1659515606.208517,12300
1659515606.249013,12300
1659515606.28951,12289
1659515606.328126,12282
1659515606.366743,12244
1659515606.40536,12195
1659515606.448419,12114
1659515606.491478,12092
1659515606.535905,12123
1659515606.580331,12228
1659515606.624757,12346
1659515606.663374,12451
1659515606.701991,12543
1659515606.740607,12576
1659515606.782641,12586
1659515606.824676,12605
1659515606.863292,12660
1659515606.901909,12765
1659515606.940526,12868
1659515606.978801,12993
1659515607.017076,13093
1659515607.055351,13151
1659515607.09841,13074
1659515607.141469,12760
1659515607.179744,12439
1659515607.218019,12298
1659515607.256294,12242
1659515607.296791,12248
1659515607.337287,12306
1659515607.376587,12357
1659515607.415887,12346
1659515607.455187,12328
1659515607.493804,12345
1659515607.532421,12410
1659515607.571038,12501
1659515607.613072,12608
1659515607.655106,12715
1659515607.694406,12810
1659515607.733706,12902
1659515607.773006,13004
1659515607.814528,13072
1659515607.856049,13098
1659515607.894666,13086
1659515607.933283,13098
1659515607.9719,13087
1659515608.014446,13061
1659515608.056993,13004
1659515608.101419,12729
1659515608.145846,12279
1659515608.190272,11969
1659515608.222566,11927
1659515608.254861,11929
1659515608.298945,11936
1659515608.34303,11903
1659515608.387115,11791
1659515608.425731,11701
1659515608.464348,11695
1659515608.502965,11771
1659515608.544486,11878
1659515608.586008,11975
1659515608.624966,11986
1659515608.663925,11977
1659515608.702883,12035
1659515608.744405,12135
1659515608.785926,12212
1659515608.824201,12277
1659515608.862476,12357
1659515608.900751,12439
1659515608.940051,12491
1659515608.979352,12530
1659515609.018652,12484
1659515609.060686,12246
1659515609.10272,11952
1659515609.140995,11800
1659515609.17927,11745
1659515609.217545,11681
1659515609.256162,11665
1659515609.294778,11638
1659515609.333395,11604
1659515609.375429,11602
1659515609.417463,11637
1659515609.456422,11714
1659515609.49538,11792
1659515609.534339,11866
1659515609.574835,11931
1659515609.615331,12002
1659515609.657365,12059
1659515609.699399,12120
1659515609.739041,12198
1659515609.778683,12267
1659515609.818325,12320
1659515609.86241,12376
1659515609.906494,12432
1659515609.950579,12485
1659515609.983899,12475
1659515610.017218,12261
1659515610.061986,11940
1659515610.106755,11738
1659515610.151523,11593
1659515610.185355,11503
1659515610.219187,11447
1659515610.263613,11433
1659515610.30804,11423
1659515610.352466,11380
1659515610.391425,11365
1659515610.430383,11381
1659515610.469342,11435
1659515610.507617,11487
1659515610.545892,11513
1659515610.584167,11559
1659515610.623125,11622
1659515610.662083,11701
1659515610.701042,11783
1659515610.742563,11876
1659515610.784085,11983
1659515610.82236,12053
1659515610.860635,12113
1659515610.89891,12148
1659515610.94402,12217
1659515610.989129,12269
1659515611.034239,12227
1659515611.068071,12016
1659515611.101904,11832
1659515611.145988,11765
1659515611.190073,11719
1659515611.234158,11677
1659515611.275679,11679
1659515611.3172,11687
1659515611.356159,11664
1659515611.395118,11672
1659515611.434076,11722
1659515611.472693,11806
1659515611.511309,11909
1659515611.549926,11987
1659515611.590935,12086
1659515611.631944,12217
1659515611.670902,12324
1659515611.709861,12388
1659515611.748819,12429
1659515611.786752,12435
1659515611.824686,12455
1659515611.862619,12454
1659515611.905166,12465
1659515611.947712,12463
1659515611.986671,12462
1659515612.025629,12467
1659515612.064588,12404
1659515612.105597,12160
1659515612.146605,11823
1659515612.185906,11627
1659515612.225206,11537
1659515612.264506,11478
1659515612.30654,11457
1659515612.348574,11473
1659515612.387191,11462
1659515612.425808,11436
1659515612.464425,11432
1659515612.505946,11447
1659515612.547467,11485
1659515612.592236,11533
1659515612.637004,11585
1659515612.681772,11644
1659515612.719705,11701
1659515612.757638,11751
1659515612.795571,11804
1659515612.837093,11876
1659515612.878614,11952
1659515612.917573,12022
1659515612.956531,12100
1659515612.99549,12173
1659515613.037011,12227
1659515613.078533,12168
1659515613.117491,11959
1659515613.15645,11765
1659515613.195408,11664
1659515613.234708,11616
1659515613.274009,11573
1659515613.313309,11591
1659515613.355343,11618
1659515613.397377,11634
1659515613.436335,11652
1659515613.475294,11673
1659515613.514252,11727
1659515613.555774,11787
1659515613.597295,11857
1659515613.635912,11939
1659515613.674529,12042
1659515613.713145,12129
1659515613.751762,12213
1659515613.790379,12293
1659515613.828996,12371
1659515613.871542,12452
1659515613.914089,12518
1659515613.952706,12578
1659515613.991323,12655
1659515614.029939,12703
1659515614.070436,12621
1659515614.110932,12409
1659515614.1557,12226
1659515614.200468,12138
1659515614.245236,12074
1659515614.278556,12045
1659515614.311875,12049
1659515614.356302,12070
1659515614.400728,12069
1659515614.445154,12076
1659515614.478474,12116
1659515614.511794,12153
1659515614.555878,12196
1659515614.599963,12249
1659515614.644047,12316
1659515614.682323,12386
1659515614.720598,12459
1659515614.758873,12523
1659515614.800907,12589
1659515614.842941,12662
1659515614.881557,12718
1659515614.920174,12772
1659515614.958791,12816
1659515614.997407,12893
1659515615.036024,12905
1659515615.074641,12742
1659515615.11565,12473
1659515615.156659,12292
1659515615.195959,12252
1659515615.235259,12225
1659515615.274559,12236
1659515615.316081,12265
1659515615.357602,12292
1659515615.395877,12342
1659515615.434152,12409
1659515615.472427,12485
1659515615.512069,12540
1659515615.551711,12572
1659515615.591353,12582
1659515615.632875,12594
1659515615.674396,12590
1659515615.715405,12579
1659515615.756414,12591
1659515615.797423,12604
1659515615.838432,12658
1659515615.881491,12722
1659515615.92455,12790
1659515615.962825,12808
1659515616.0011,12646
1659515616.039375,12260
1659515616.078334,11888
1659515616.117292,11674
1659515616.156251,11503
1659515616.197772,11343
1659515616.239294,11273
1659515616.277569,11252
1659515616.315844,11238
1659515616.354119,11252
1659515616.396153,11300
1659515616.438187,11380
1659515616.477829,11476
1659515616.517471,11553
1659515616.557113,11614
1659515616.598634,11677
1659515616.640156,11743
1659515616.679114,11797
1659515616.718073,11867
1659515616.757031,11935
1659515616.799578,12022
1659515616.842124,12110
1659515616.880399,12174
1659515616.918674,12235
1659515616.956949,12181
1659515617.000692,11944
1659515617.044435,11701
1659515617.088178,11590
1659515617.130212,11508
1659515617.172246,11424
1659515617.210521,11351
1659515617.248796,11304
1659515617.287071,11215
1659515617.326371,11117
1659515617.365671,11051
1659515617.404972,11042
1659515617.445981,11095
1659515617.486989,11171
1659515617.525948,11270
1659515617.564906,11370
1659515617.603865,11489
1659515617.644874,11603
1659515617.685883,11720
1659515617.725525,11807
1659515617.765167,11881
1659515617.804808,11971
1659515617.843425,12052
1659515617.882042,12150
1659515617.920659,12182
1659515617.96218,12067
1659515618.003702,11732
1659515618.042318,11434
1659515618.080935,11304
1659515618.119552,11248
1659515618.161586,11231
1659515618.20362,11268
1659515618.241895,11303
1659515618.28017,11331
1659515618.318445,11382
1659515618.359454,11507
1659515618.400463,11658
1659515618.43908,11792
1659515618.477696,11916
1659515618.516313,12023
1659515618.558347,12125
1659515618.600381,12238
1659515618.644807,12353
1659515618.689234,12481
1659515618.73366,12583
1659515618.772619,12670
1659515618.811577,12742
1659515618.850535,12814
1659515618.891544,12866
1659515618.932553,12921
1659515618.971853,12882
1659515619.011154,12598
1659515619.050454,12218
1659515619.093,12059
1659515619.135547,12059
1659515619.174164,12055
1659515619.212781,12099
1659515619.251397,12119
1659515619.290014,12083
1659515619.328631,12040
1659515619.367248,12015
1659515619.408769,12023
1659515619.45029,12050
1659515619.488907,12083
1659515619.527524,12122
1659515619.566141,12206
1659515619.605099,12295
1659515619.644058,12351
1659515619.683016,12381
1659515619.725563,12417
1659515619.76811,12487
1659515619.80741,12549
1659515619.84671,12636
1659515619.88601,12722
1659515619.927019,12797
1659515619.968028,12755
1659515620.007328,12497
1659515620.046628,12194
1659515620.085928,12039
1659515620.128475,11999
1659515620.171022,11958
1659515620.214765,11941
1659515620.258508,11961
1659515620.30225,11944
1659515620.334545,11922
1659515620.366839,11920
1659515620.411266,11969
1659515620.455692,12029
1659515620.500118,12078
1659515620.538393,12131
1659515620.576668,12210
1659515620.614943,12318
1659515620.656977,12416
1659515620.699012,12516
1659515620.73797,12613
1659515620.776928,12700
1659515620.815887,12792
1659515620.856896,12870
1659515620.897905,12933
1659515620.935582,12991
1659515620.973258,13034
1659515621.010936,12906
1659515621.048612,12615
1659515621.090647,12425
1659515621.132681,12389
1659515621.170956,12392
1659515621.209231,12410
1659515621.247506,12443
1659515621.28954,12482
1659515621.331574,12482
1659515621.370191,12472
1659515621.408807,12459
1659515621.447424,12488
1659515621.491167,12530
1659515621.53491,12605
1659515621.578652,12669
1659515621.620687,12705
1659515621.662721,12746
1659515621.702021,12803
1659515621.741321,12883
1659515621.780621,12952
1659515621.821118,13039
1659515621.861614,13127
1659515621.900914,13197
1659515621.940214,13272
1659515621.979514,13340
1659515622.018473,13412
1659515622.057431,13365
1659515622.09639,13119
1659515622.137911,12831
1659515622.179433,12693
1659515622.218391,12626
1659515622.25735,12528
1659515622.296308,12492
1659515622.338342,12491
1659515622.380376,12504
1659515622.418651,12497
1659515622.456926,12525
1659515622.495201,12610
1659515622.53416,12721
1659515622.573118,12834
1659515622.612077,12927
1659515622.654624,13052
1659515622.69717,13172
1659515622.735787,13274
1659515622.774404,13319
1659515622.81302,13316
1659515622.853517,13294
1659515622.894013,13243
1659515622.933313,13191
1659515622.972613,13181
1659515623.011914,13233
1659515623.053948,13324
1659515623.095982,13334
1659515623.14075,13122
1659515623.185518,12841
1659515623.230286,12697
1659515623.263093,12635
1659515623.2959,12581
1659515623.340668,12575
1659515623.385436,12577
1659515623.430204,12576
1659515623.468479,12583
1659515623.506754,12610
1659515623.545029,12672
1659515623.587576,12752
1659515623.630123,12847
1659515623.668398,12913
1659515623.706673,12994
1659515623.744948,13055
1659515623.785956,13118
1659515623.826965,13182
1659515623.865582,13239
1659515623.904199,13299
1659515623.942816,13357
1659515623.982116,13411
1659515624.021416,13452
1659515624.060716,13515
1659515624.101213,13502
1659515624.141709,13325
1659515624.180667,13168
1659515624.219625,13097
1659515624.258584,13107
1659515624.297884,13098
1659515624.337184,13119
1659515624.376485,13167
1659515624.418006,13193
1659515624.459528,13209
1659515624.497803,13250
1659515624.536077,13313
1659515624.574353,13370
1659515624.616387,13434
1659515624.658421,13504
1659515624.702164,13552
1659515624.745906,13607
1659515624.789649,13653
1659515624.822969,13697
1659515624.856289,13745
1659515624.900715,13786
1659515624.945141,13828
1659515624.989568,13875
1659515625.022887,13912
1659515625.056207,13856
1659515625.09995,13623
1659515625.143693,13415
1659515625.187436,13317
1659515625.227077,13289
1659515625.26672,13270
1659515625.306361,13275
1659515625.348396,13288
1659515625.39043,13260
1659515625.429046,13231
1659515625.467663,13229
1659515625.50628,13272
1659515625.548314,13322
1659515625.590348,13379
1659515625.629648,13425
1659515625.668948,13466
1659515625.708249,13521
1659515625.746182,13572
1659515625.784115,13613
1659515625.822048,13660
1659515625.865108,13710
1659515625.908167,13759
1659515625.946784,13801
1659515625.9854,13859
1659515626.024017,13864
1659515626.064513,13710
1659515626.10501,13421
1659515626.147044,13203
1659515626.189078,13123
1659515626.231112,13059
1659515626.273146,13007
1659515626.311421,13015
1659515626.349696,13018
1659515626.387971,13013
1659515626.42898,13011
1659515626.469989,13040
1659515626.509973,13096
1659515626.549956,13197
1659515626.58994,13294
1659515626.628215,13383
1659515626.66649,13469
1659515626.704765,13513
1659515626.746286,13565
1659515626.787808,13599
1659515626.826766,13639
1659515626.865725,13688
1659515626.904683,13747
1659515626.946718,13805
1659515626.988751,13861
1659515627.027026,13889
1659515627.065301,13728
1659515627.103576,13493
1659515627.145098,13353
1659515627.18662,13294
1659515627.224895,13270
1659515627.26317,13253
1659515627.301444,13252
1659515627.343478,13219
1659515627.385513,13192
1659515627.423788,13168
1659515627.462063,13187
1659515627.500338,13237
1659515627.545106,13273
1659515627.589874,13323
1659515627.634642,13366
1659515627.675651,13397
1659515627.71666,13438
1659515627.75596,13479
1659515627.79526,13502
1659515627.83456,13539
1659515627.876594,13584
1659515627.918628,13624
1659515627.956903,13663
1659515627.995178,13662
1659515628.033453,13448
1659515628.072412,13122
1659515628.11137,12884
1659515628.150329,12773
1659515628.19185,12703
1659515628.233372,12665
1659515628.271646,12658
1659515628.309922,12636
1659515628.348197,12605
1659515628.387155,12560
1659515628.426113,12573
1659515628.465072,12623
1659515628.507106,12708
1659515628.54914,12817
1659515628.588099,12902
1659515628.627057,12976
1659515628.666016,13031
1659515628.707537,13088
1659515628.749058,13127
1659515628.788359,13160
1659515628.827659,13214
1659515628.866959,13279
1659515628.908993,13361
1659515628.951027,13413
1659515628.989986,13394
1659515629.028944,13168
1659515629.067903,12875
1659515629.108912,12706
1659515629.14992,12662
1659515629.194347,12621
1659515629.238773,12637
1659515629.2832,12677
1659515629.317032,12697
1659515629.350864,12703
1659515629.39529,12725
1659515629.439717,12774
1659515629.484143,12840
1659515629.52276,12928
1659515629.561377,13002
1659515629.599993,13095
1659515629.641515,13190
1659515629.683036,13275
1659515629.721995,13347
1659515629.760953,13449
1659515629.799911,13525
1659515629.842458,13609
1659515629.885005,13703
1659515629.923622,13762
1659515629.962239,13836
1659515630.000855,13802
1659515630.039814,13598
1659515630.078772,13373
1659515630.117731,13267
1659515630.159252,13223
1659515630.200773,13190
1659515630.23939,13192
1659515630.278007,13172
1659515630.316624,13128
1659515630.35524,13105
1659515630.393857,13083
1659515630.432474,13099
1659515630.473483,13138
1659515630.514492,13177
1659515630.552425,13228
1659515630.590358,13267
1659515630.628291,13295
1659515630.670838,13343
1659515630.713385,13382
1659515630.757811,13419
1659515630.802238,13464
1659515630.846664,13521
1659515630.879471,13572
1659515630.912278,13624
1659515630.956704,13668
1659515631.001131,13580
1659515631.045557,13290
1659515631.079902,13020
1659515631.114247,12910
1659515631.158673,12863
1659515631.203099,12839
1659515631.247526,12871
1659515631.286484,12937
1659515631.325443,12968
1659515631.364401,12993
1659515631.40336,13053
1659515631.442318,13109
1659515631.481277,13194
1659515631.519552,13308
1659515631.557827,13425
1659515631.596102,13508
1659515631.637623,13568
1659515631.679144,13613
1659515631.718103,13649
1659515631.757061,13688
1659515631.79602,13723
1659515631.840104,13772
1659515631.884189,13834
1659515631.928273,13887
1659515631.962106,13873
1659515631.995938,13684
1659515632.040706,13432
1659515632.085474,13277
1659515632.130242,13220
1659515632.163049,13196
1659515632.195857,13197
1659515632.240625,13202
1659515632.285393,13174
1659515632.330161,13147
1659515632.369803,13157
1659515632.409445,13187
1659515632.449086,13239
1659515632.489583,13292
1659515632.530079,13346
1659515632.568696,13400
1659515632.607312,13452
1659515632.645929,13487
1659515632.687451,13539
1659515632.728972,13592
1659515632.767931,13634
1659515632.806889,13678
1659515632.845848,13715
1659515632.884464,13769
1659515632.923081,13707
1659515632.961698,13461
1659515633.003732,13183
1659515633.045766,13039
1659515633.084383,12980
1659515633.122999,12912
1659515633.161616,12877
1659515633.203138,12888
1659515633.244659,12886
1659515633.283618,12886
1659515633.322576,12905
1659515633.361535,12949
1659515633.403056,13014
1659515633.444577,13096
1659515633.483536,13173
1659515633.522495,13254
1659515633.561453,13337
1659515633.605879,13414
1659515633.650306,13499
1659515633.694732,13572
1659515633.736253,13659
1659515633.777775,13733
1659515633.81605,13822
1659515633.854325,13924
1659515633.8926,14006
1659515633.933609,14015
1659515633.974617,13833
1659515634.013234,13626
1659515634.051851,13502
1659515634.090468,13444
1659515634.129426,13434
1659515634.168385,13466
1659515634.207343,13515
1659515634.249377,13555
1659515634.291411,13605
1659515634.330712,13620
1659515634.370012,13590
1659515634.409312,13508
1659515634.450833,13431
1659515634.492355,13383
1659515634.530972,13407
1659515634.569588,13523
1659515634.608205,13642
1659515634.647505,13710
1659515634.686805,13791
1659515634.726106,13889
1659515634.767627,13976
1659515634.809149,13942
1659515634.847424,13703
1659515634.885699,13398
1659515634.923974,13160
1659515634.966008,12925
1659515635.008042,12579
1659515635.046659,12274
1659515635.085275,12111
1659515635.123892,12070
1659515635.165414,12119
1659515635.206935,12240
1659515635.252045,12349
1659515635.297155,12408
1659515635.342264,12429
1659515635.375584,12444
1659515635.408904,12447
1659515635.45333,12403
1659515635.497756,12343
1659515635.542183,12361
1659515635.581483,12459
1659515635.620783,12581
1659515635.660083,12697
1659515635.702117,12792
1659515635.744152,12725
1659515635.782085,12401
1659515635.820018,11940
1659515635.857951,11625
1659515635.899473,11490
1659515635.940994,11365
1659515635.979611,11258
1659515636.018228,11175
1659515636.056844,11107
1659515636.095461,11072
1659515636.134078,11103
1659515636.172695,11142
1659515636.214216,11130
1659515636.255738,11126
1659515636.294354,11164
1659515636.332971,11275
1659515636.371588,11446
1659515636.410204,11546
1659515636.448821,11584
1659515636.487438,11616
1659515636.529472,11701
1659515636.571506,11847
1659515636.610465,12068
1659515636.649423,12328
1659515636.688381,12495
1659515636.72939,12489
1659515636.770399,12407
1659515636.814826,12433
1659515636.859252,12509
1659515636.903678,12563
1659515636.93751,12631
1659515636.971343,12650
1659515637.015086,12635
1659515637.058829,12611
1659515637.102571,12643
1659515637.135379,12672
1659515637.168186,12718
1659515637.212612,12754
1659515637.257038,12777
1659515637.301465,12778
1659515637.33974,12780
1659515637.378015,12805
1659515637.41629,12805
1659515637.45559,12764
1659515637.49489,12705
1659515637.53419,12660
1659515637.576737,12657
1659515637.619283,12697
1659515637.6579,12683
1659515637.696517,12423
1659515637.735134,12028
1659515637.776655,11765
1659515637.818177,11658
1659515637.857135,11648
1659515637.896094,11680
1659515637.935052,11677
1659515637.973669,11607
1659515638.012285,11551
1659515638.050902,11548
1659515638.092936,11629
1659515638.13497,11740
1659515638.176492,11787
1659515638.218014,11838
1659515638.25663,11877
1659515638.295247,11961
1659515638.333863,12061
1659515638.377948,12178
1659515638.422033,12261
1659515638.466117,12336
1659515638.49995,12410
1659515638.533782,12501
1659515638.57855,12593
1659515638.623318,12558
1659515638.668086,12348
1659515638.701406,12159
1659515638.734726,12108
1659515638.779494,12119
1659515638.824262,12185
1659515638.86903,12280
1659515638.907988,12349
1659515638.946947,12416
1659515638.985905,12510
1659515639.027427,12623
1659515639.068948,12739
1659515639.107565,12854
1659515639.146182,12960
1659515639.184798,13061
1659515639.225807,13158
1659515639.266816,13229
1659515639.305433,13310
1659515639.344049,13383
1659515639.382666,13449
1659515639.421625,13516
1659515639.460583,13576
1659515639.499542,13582
1659515639.541063,13474
1659515639.582585,13396
1659515639.62086,13422
1659515639.659135,13512
1659515639.69741,13580
1659515639.738418,13640
1659515639.779427,13699
1659515639.819411,13732
1659515639.859395,13763
1659515639.899378,13797
1659515639.940387,13844
1659515639.981396,13905
1659515640.020013,13942
1659515640.05863,13998
1659515640.097246,14043
1659515640.13928,14076
1659515640.181314,14122
1659515640.220273,14160
1659515640.259232,14207
1659515640.29819,14240
1659515640.342274,14268
1659515640.386359,14305
1659515640.430444,14269
1659515640.471965,14118
1659515640.513487,14009
1659515640.552103,14003
1659515640.59072,14035
1659515640.629337,14081
1659515640.667612,14112
1659515640.705887,14146
1659515640.744162,14166
1659515640.787221,14184
1659515640.83028,14212
1659515640.869239,14254
1659515640.908197,14301
1659515640.947156,14337
1659515640.988165,14377
1659515641.029174,14390
1659515641.068815,14424
1659515641.108457,14456
1659515641.148099,14487
1659515641.186716,14520
1659515641.225333,14553
1659515641.263949,14584
1659515641.305984,14607
1659515641.348018,14534
1659515641.386976,14394
1659515641.425935,14335
1659515641.464893,14370
1659515641.506415,14408
1659515641.547936,14460
1659515641.586211,14477
1659515641.624486,14492
1659515641.662761,14494
1659515641.705308,14511
1659515641.747854,14546
1659515641.786471,14573
1659515641.825088,14626
1659515641.863705,14647
1659515641.907789,14679
1659515641.951874,14700
1659515641.995958,14721
1659515642.035259,14755
1659515642.074559,14779
1659515642.113859,14807
1659515642.15538,14833
1659515642.196902,14858
1659515642.235519,14796
1659515642.274135,14613
1659515642.312752,14520
1659515642.352052,14516
1659515642.391352,14535
1659515642.430653,14555
1659515642.471662,14573
1659515642.512671,14594
1659515642.550946,14585
1659515642.589221,14590
1659515642.627495,14613
1659515642.668504,14650
1659515642.709513,14680
1659515642.748813,14710
1659515642.788114,14728
1659515642.827414,14738
1659515642.868423,14767
1659515642.909432,14780
1659515642.94839,14787
1659515642.987349,14812
1659515643.026307,14828
1659515643.071075,14850
1659515643.115843,14871
1659515643.160611,14890
1659515643.194443,14774
1659515643.228276,14586
1659515643.27236,14477
1659515643.316445,14435
1659515643.360529,14428
1659515643.399488,14419
1659515643.438446,14438
1659515643.477405,14450
1659515643.518414,14455
1659515643.559423,14462
1659515643.597698,14496
1659515643.635972,14537
1659515643.674248,14573
1659515643.713206,14612
1659515643.752164,14643
1659515643.791123,14683
1659515643.833157,14711
1659515643.875191,14728
1659515643.913466,14762
1659515643.951741,14796
1659515643.990016,14811
1659515644.029316,14842
1659515644.068616,14875
1659515644.107917,14913
1659515644.149438,14927
1659515644.19096,14871
1659515644.232994,14694
1659515644.275028,14598
1659515644.314328,14598
1659515644.353628,14626
1659515644.392929,14640
1659515644.434963,14673
1659515644.476997,14692
1659515644.515272,14690
1659515644.553547,14699
1659515644.591822,14712
1659515644.63659,14738
1659515644.681358,14772
1659515644.726126,14808
1659515644.759958,14823
1659515644.793791,14850
1659515644.837533,14870
1659515644.881276,14895
1659515644.925019,14914
1659515644.966028,14931
1659515645.007037,14961
1659515645.045995,14987
1659515645.084954,15005
1659515645.123912,15032
1659515645.162187,15019
1659515645.200462,14893
1659515645.238737,14717
1659515645.280771,14651
1659515645.322805,14652
1659515645.361764,14668
1659515645.400722,14702
1659515645.439681,14725
1659515645.477956,14758
1659515645.516231,14753
1659515645.554506,14776
1659515645.59654,14825
1659515645.638574,14854
1659515645.677874,14898
1659515645.717174,14934
1659515645.756474,14975
1659515645.796971,14985
1659515645.837467,15020
1659515645.876084,15034
1659515645.914701,15046
1659515645.953317,15061
1659515645.994326,15066
1659515646.035335,15085
1659515646.074293,15101
1659515646.113252,15109
1659515646.15221,15082
1659515646.193219,14909
1659515646.234228,14713
1659515646.273528,14635
1659515646.312829,14617
1659515646.352129,14605
1659515646.396213,14609
1659515646.440298,14615
1659515646.484382,14597
1659515646.523341,14596
1659515646.562299,14614
1659515646.601258,14650
1659515646.643805,14676
1659515646.686351,14694
1659515646.724968,14708
1659515646.763585,14722
1659515646.802201,14740
1659515646.843723,14753
1659515646.885244,14770
1659515646.924203,14821
1659515646.963161,14865
1659515647.00212,14934
1659515647.040395,14987
1659515647.07867,15030
1659515647.116945,15021
1659515647.161371,14874
1659515647.205797,14719
1659515647.250224,14661
1659515647.289182,14654
1659515647.32814,14633
1659515647.367099,14646
1659515647.408621,14672
1659515647.450142,14685
1659515647.489442,14694
1659515647.528742,14712
1659515647.568043,14750
1659515647.607001,14778
1659515647.64596,14809
1659515647.684918,14830
1659515647.726439,14837
1659515647.767961,14865
1659515647.806919,14893
1659515647.845878,14930
1659515647.884836,14958
1659515647.92687,14990
1659515647.968904,15035
1659515648.007521,15068
1659515648.046138,15062
1659515648.084755,14946
1659515648.123371,14806
1659515648.161988,14768
1659515648.200605,14755
1659515648.242639,14762
1659515648.284673,14776
1659515648.323632,14802
1659515648.36259,14785
1659515648.401548,14789
1659515648.442045,14818
1659515648.482541,14851
1659515648.521841,14891
1659515648.561141,14923
1659515648.600442,14964
1659515648.642476,15003
1659515648.68451,15036
1659515648.728595,15069
1659515648.772679,15090
1659515648.816764,15119
1659515648.85538,15147
1659515648.893997,15175
1659515648.932614,15161
1659515648.974648,15028
1659515649.016682,14892
1659515649.054957,14860
1659515649.093232,14870
1659515649.131507,14871
1659515649.173541,14907
1659515649.215575,14926
1659515649.254534,14931
1659515649.293492,14933
1659515649.33245,14948
1659515649.370384,14993
1659515649.408317,15020
1659515649.44625,15052
1659515649.487259,15084
1659515649.528268,15112
1659515649.567568,15133
1659515649.606868,15153
1659515649.646168,15173
1659515649.684443,15193
1659515649.722718,15219
1659515649.760993,15243
1659515649.804053,15272
1659515649.847112,15239
1659515649.886071,15073
1659515649.925029,14927
1659515649.963988,14881
1659515650.005509,14879
1659515650.047031,14856
1659515650.085989,14870
1659515650.124948,14917
1659515650.163906,14928
1659515650.206453,14957
1659515650.248999,14959
1659515650.293084,14969
1659515650.337168,14982
1659515650.381253,14983
1659515650.41406,14981
1659515650.446867,15000
1659515650.491635,15014
1659515650.536403,15056
1659515650.581172,15098
1659515650.614491,15131
1659515650.647811,15162
1659515650.691554,15190
1659515650.735296,15219
1659515650.779039,15245
1659515650.818681,15229
1659515650.858323,15088
1659515650.897965,14905
1659515650.939487,14835
1659515650.981008,14830
1659515651.019967,14819
1659515651.058925,14849
1659515651.097884,14853
1659515651.139918,14838
1659515651.181952,14843
1659515651.220569,14864
1659515651.259185,14900
1659515651.297802,14945
1659515651.336077,14964
1659515651.374352,14985
1659515651.412627,14991
1659515651.454149,15004
1659515651.49567,15009
1659515651.534628,15027
1659515651.573587,15025
1659515651.612545,15055
1659515651.653554,15095
1659515651.694563,15125
1659515651.73318,15151
1659515651.771796,15082
1659515651.810413,14887
1659515651.851935,14717
1659515651.893456,14669
1659515651.932415,14650
1659515651.971373,14638
1659515652.010332,14653
1659515652.051853,14632
1659515652.093375,14608
1659515652.132333,14597
1659515652.171292,14601
1659515652.21025,14637
1659515652.254676,14663
1659515652.299103,14675
1659515652.343529,14675
1659515652.376849,14714
1659515652.410168,14754
1659515652.454937,14781
1659515652.499705,14785
1659515652.544472,14803
1659515652.582747,14837
1659515652.621022,14891
1659515652.659297,14915
1659515652.700306,14929
1659515652.741315,14802
1659515652.779932,14560
1659515652.818549,14382
1659515652.857165,14278
1659515652.899199,14163
1659515652.941234,14050
1659515652.97985,13968
1659515653.018467,13881
1659515653.057084,13798
1659515653.096726,13732
1659515653.136368,13743
1659515653.17601,13787
1659515653.217531,13843
1659515653.259053,13872
1659515653.297669,13892
1659515653.336286,13947
1659515653.374903,14014
1659515653.417449,14085
1659515653.459996,14169
1659515653.498955,14249
1659515653.537913,14341
1659515653.576872,14388
1659515653.617368,14435
1659515653.657864,14469
1659515653.696823,14510
1659515653.735781,14493
1659515653.77474,14314
1659515653.817286,14008
1659515653.859833,13823
1659515653.903576,13788
1659515653.947319,13767
1659515653.991061,13772
1659515654.029678,13806
1659515654.068295,13819
1659515654.106912,13815
1659515654.148946,13831
1659515654.19098,13840
1659515654.229597,13866
1659515654.268213,13909
1659515654.30683,13946
1659515654.348864,13979
1659515654.390898,14026
1659515654.430198,14048
1659515654.469499,14087
1659515654.508799,14132
1659515654.547074,14153
1659515654.585349,14183
1659515654.623624,14216
1659515654.664633,14257
1659515654.705642,14298
1659515654.7446,14341
1659515654.783558,14317
1659515654.822517,14136
1659515654.861134,13926
1659515654.89975,13826
1659515654.938367,13814
1659515654.979889,13827
1659515655.02141,13851
1659515655.060027,13872
1659515655.098644,13882
1659515655.13726,13902
1659515655.178269,13939
1659515655.219278,13991
1659515655.258236,14045
1659515655.297195,14094
1659515655.336154,14139
1659515655.377675,14190
1659515655.419196,14251
1659515655.463623,14282
1659515655.508049,14336
1659515655.552475,14372
1659515655.585283,14429
1659515655.61809,14466
1659515655.662858,14524
1659515655.707626,14558
1659515655.752394,14593
1659515655.791352,14553
1659515655.830311,14385
1659515655.869269,14252
1659515655.909765,14246
1659515655.950262,14273
1659515655.989562,14314
1659515656.028862,14352
1659515656.068162,14354
1659515656.106437,14343
1659515656.144712,14355
1659515656.182987,14380
1659515656.225534,14423
1659515656.268081,14470
1659515656.307381,14502
1659515656.346681,14550
1659515656.385981,14577
1659515656.427503,14608
1659515656.469024,14647
1659515656.507641,14680
1659515656.546258,14706
1659515656.584874,14735
1659515656.627421,14783
1659515656.669968,14817
1659515656.708926,14831
1659515656.747885,14733
1659515656.786843,14540
1659515656.82546,14418
1659515656.864077,14408
1659515656.902693,14424
1659515656.943702,14432
1659515656.984711,14469
1659515657.026745,14462
1659515657.068779,14458
1659515657.107054,14468
1659515657.145329,14482
1659515657.183604,14515
1659515657.228031,14550
1659515657.272457,14587
1659515657.316883,14635
1659515657.34969,14691
1659515657.382498,14729
1659515657.426924,14758
1659515657.47135,14776
1659515657.515776,14792
1659515657.554735,14819
1659515657.593693,14849
1659515657.632652,14871
1659515657.675199,14891
1659515657.717745,14759
1659515657.756362,14579
1659515657.794979,14482
1659515657.833595,14492
1659515657.872554,14505
1659515657.911512,14542
1659515657.950471,14550
1659515657.99148,14545
1659515658.032489,14530
1659515658.071105,14537
1659515658.109722,14566
1659515658.148339,14591
1659515658.186955,14620
1659515658.225572,14638
1659515658.264189,14668
1659515658.306223,14708
1659515658.348257,14726
1659515658.386532,14745
1659515658.424807,14771
1659515658.463082,14803
1659515658.504091,14841
1659515658.5451,14865
1659515658.589868,14830
1659515658.634636,14659
1659515658.679404,14493
1659515658.713236,14418
1659515658.747069,14400
1659515658.791153,14404
1659515658.835238,14418
1659515658.879322,14428
1659515658.913155,14402
1659515658.946987,14393
1659515658.991413,14416
1659515659.03584,14443
1659515659.080266,14477
1659515659.119224,14516
1659515659.158183,14548
1659515659.197141,14575
1659515659.238663,14611
1659515659.280184,14633
1659515659.319143,14657
1659515659.358101,14686
1659515659.39706,14707
1659515659.437556,14735
1659515659.478052,14759
1659515659.517694,14761
1659515659.557336,14626
1659515659.596978,14407
1659515659.635936,14242
1659515659.674895,14172
1659515659.713853,14149
1659515659.754862,14142
1659515659.795871,14152
1659515659.835171,14148
1659515659.874472,14135
1659515659.913772,14148
1659515659.956319,14168
1659515659.998865,14207
1659515660.037482,14245
1659515660.076099,14303
1659515660.114715,14334
1659515660.156749,14368
1659515660.198784,14405
1659515660.237742,14429
1659515660.2767,14479
1659515660.315659,14508
1659515660.357181,14551
1659515660.398702,14599
1659515660.437319,14638
1659515660.475935,14636
1659515660.514552,14511
1659515660.55932,14313
1659515660.604088,14220
1659515660.648856,14189
1659515660.680638,14184
1659515660.71242,14180
1659515660.757188,14198
1659515660.801956,14183
1659515660.846724,14173
1659515660.889271,14177
1659515660.931818,14216
1659515660.970093,14252
1659515661.008368,14314
1659515661.046643,14344
1659515661.085259,14379
1659515661.123876,14428
1659515661.162493,14456
1659515661.204014,14473
1659515661.245536,14509
1659515661.283811,14541
1659515661.322086,14571
1659515661.360361,14616
1659515661.398978,14641
1659515661.437594,14637
1659515661.476211,14504
1659515661.518758,14279
1659515661.561304,14132
1659515661.599921,14079
1659515661.638538,14036
1659515661.677155,14000
1659515661.717651,13994
1659515661.758147,13971
1659515661.797447,13936
1659515661.836747,13936
1659515661.876048,13959
1659515661.918082,13999
1659515661.960116,14051
1659515661.999074,14108
1659515662.038033,14180
1659515662.076991,14258
1659515662.118513,14315
1659515662.160034,14374
1659515662.204802,14405
1659515662.24957,14431
1659515662.294338,14436
1659515662.332613,14443
1659515662.370888,14464
1659515662.409163,14496
1659515662.45171,14498
1659515662.494257,14353
1659515662.532874,14142
1659515662.57149,14037
1659515662.610107,13996
1659515662.651116,13978
1659515662.692125,13978
1659515662.730742,13994
1659515662.769358,14003
1659515662.807975,14009
1659515662.847617,14030
1659515662.887259,14059
1659515662.926901,14112
1659515662.96791,14170
1659515663.008919,14237
1659515663.047877,14282
1659515663.086835,14336
1659515663.125794,14389
1659515663.165436,14446
1659515663.205078,14475
1659515663.24472,14513
1659515663.286241,14551
1659515663.327763,14585
1659515663.366379,14642
1659515663.404996,14665
1659515663.443613,14687
1659515663.485647,14602
1659515663.527681,14408
1659515663.565956,14299
1659515663.604231,14274
1659515663.642506,14274
1659515663.684027,14297
1659515663.725549,14327
1659515663.769975,14334
1659515663.814402,14328
1659515663.858828,14344
1659515663.897445,14367
1659515663.936061,14403
1659515663.974678,14460
1659515664.015174,14473
1659515664.055671,14513
1659515664.094971,14547
1659515664.134271,14586
1659515664.173571,14607
1659515664.215605,14635
1659515664.257639,14678
1659515664.295914,14708
1659515664.334189,14756
1659515664.372464,14789
1659515664.411765,14821
1659515664.451065,14841
1659515664.490365,14728
1659515664.531374,14512
1659515664.572383,14377
1659515664.610316,14345
1659515664.648249,14305
1659515664.686182,14302
1659515664.725141,14310
1659515664.764099,14304
1659515664.803058,14303
1659515664.845092,14316
1659515664.887126,14364
1659515664.925401,14417
1659515664.963676,14465
1659515665.001951,14502
1659515665.043473,14552
1659515665.084994,14583
1659515665.123953,14612
1659515665.162911,14646
1659515665.201869,14682
1659515665.243391,14699
1659515665.284912,14736
1659515665.330022,14768
1659515665.375132,14812
1659515665.420242,14842
1659515665.453562,14841
1659515665.486881,14700
1659515665.530966,14513
1659515665.57505,14413
1659515665.619135,14378
1659515665.658093,14364
1659515665.697052,14363
1659515665.73601,14375
1659515665.778557,14355
1659515665.821104,14347
1659515665.859379,14345
1659515665.897654,14383
1659515665.935929,14423
1659515665.97745,14479
1659515666.018972,14500
1659515666.05793,14517
1659515666.096889,14558
1659515666.135847,14612
1659515666.174806,14658
1659515666.213764,14702
1659515666.252723,14747
1659515666.294244,14790
1659515666.335766,14838
1659515666.375066,14868
1659515666.414366,14815
1659515666.453666,14582
1659515666.494675,14334
1659515666.535684,14211
1659515666.574984,14243
1659515666.614284,14290
1659515666.653584,14328
1659515666.695619,14352
1659515666.737653,14323
1659515666.776269,14290
1659515666.814886,14310
1659515666.853503,14355
1659515666.893999,14425
1659515666.934495,14488
1659515666.973796,14532
1659515667.013096,14574
1659515667.052396,14623
1659515667.096481,14665
1659515667.140565,14696
1659515667.18465,14742
1659515667.217457,14767
1659515667.250264,14807
1659515667.294348,14805
1659515667.338433,14675
1659515667.382518,14498
1659515667.41635,14410
1659515667.450182,14394
1659515667.494267,14396
1659515667.538352,14420
1659515667.582436,14437
1659515667.621394,14426
1659515667.660353,14411
1659515667.699311,14421
1659515667.740833,14460
1659515667.782354,14507
1659515667.821313,14546
1659515667.860271,14575
1659515667.89923,14602
1659515667.937846,14639
1659515667.976463,14666
1659515668.01508,14704
1659515668.057627,14751
1659515668.100173,14783
1659515668.138448,14813
1659515668.176723,14816
1659515668.214998,14676
1659515668.256007,14457
1659515668.297016,14319
1659515668.337205,14266
1659515668.377393,14241
1659515668.417582,14237
1659515668.457771,14239
1659515668.49796,14234
1659515668.536577,14219
1659515668.575193,14224
1659515668.61381,14249
1659515668.65892,14287
1659515668.70403,14335
1659515668.749139,14365
1659515668.781946,14400
1659515668.814754,14425
1659515668.85918,14450
1659515668.903606,14477
1659515668.948032,14509
1659515668.987333,14540
1659515669.026633,14579
1659515669.065933,14613
1659515669.107967,14579
1659515669.150001,14381
1659515669.188276,14100
1659515669.226551,13897
1659515669.264826,13791
1659515669.30686,13709
1659515669.348894,13645
1659515669.387511,13598
1659515669.426128,13559
1659515669.464745,13512
1659515669.504045,13498
1659515669.543345,13523
1659515669.582645,13542
1659515669.624679,13564
1659515669.666713,13598
1659515669.70533,13655
1659515669.743947,13702
1659515669.782563,13749
1659515669.823572,13779
1659515669.864581,13786
1659515669.904223,13818
1659515669.943865,13840
1659515669.983507,13871
1659515670.025029,13879
1659515670.06655,13722
1659515670.104825,13456
1659515670.1431,13293
1659515670.181375,13231
1659515670.225801,13179
1659515670.270228,13158
1659515670.314654,13135
1659515670.347461,13118
1659515670.380268,13079
1659515670.424011,13055
1659515670.467754,13079
1659515670.511497,13129
1659515670.550455,13180
1659515670.589414,13236
1659515670.628372,13286
1659515670.669381,13329
1659515670.71039,13372
1659515670.749007,13428
1659515670.787623,13477
1659515670.82624,13544
1659515670.868787,13607
1659515670.911334,13670
1659515670.950292,13731
1659515670.98925,13758
1659515671.028209,13695
1659515671.066826,13464
1659515671.105442,13244
1659515671.144059,13144
1659515671.186093,13112
1659515671.228127,13100
1659515671.266744,13103
1659515671.305361,13122
1659515671.343977,13111
1659515671.386012,13113
1659515671.428046,13148
1659515671.466321,13189
1659515671.504596,13242
1659515671.542871,13290
1659515671.584392,13340
1659515671.625914,13393
1659515671.664872,13456
1659515671.70383,13504
1659515671.742789,13549
1659515671.78431,13618
1659515671.825832,13666
1659515671.865132,13728
1659515671.904432,13778
1659515671.943733,13830
1659515671.988159,13839
1659515672.032585,13706
1659515672.077011,13448
1659515672.118533,13285
1659515672.160054,13228
1659515672.199355,13198
1659515672.238655,13200
1659515672.277955,13198
1659515672.319989,13186
1659515672.362023,13158
1659515672.40064,13168
1659515672.439257,13202
1659515672.477874,13236
1659515672.516832,13299
1659515672.55579,13332
1659515672.594749,13385
1659515672.635758,13421
1659515672.676767,13461
1659515672.715042,13517
1659515672.753317,13565
1659515672.791592,13615
1659515672.831234,13664
1659515672.870875,13732
1659515672.910517,13740
1659515672.952039,13595
1659515672.99356,13345
1659515673.031835,13181
1659515673.07011,13135
1659515673.108385,13104
1659515673.149907,13100
1659515673.191428,13118
1659515673.23107,13108
1659515673.270712,13084
1659515673.310354,13066
1659515673.351363,13091
1659515673.392372,13140
1659515673.430989,13208
1659515673.469605,13266
1659515673.508222,13298
1659515673.549744,13335
1659515673.591265,13351
1659515673.630839,13349
1659515673.670412,13357
1659515673.709986,13380
1659515673.749559,13418
1659515673.789133,13450
1659515673.830655,13480
1659515673.872176,13326
1659515673.910451,13033
1659515673.948726,12785
1659515673.987001,12702
1659515674.028522,12669
1659515674.070044,12655
1659515674.109344,12666
1659515674.148644,12660
1659515674.187945,12637
1659515674.229466,12621
1659515674.270988,12639
1659515674.315072,12672
1659515674.359157,12719
1659515674.403241,12760
1659515674.442542,12783
1659515674.481842,12804
1659515674.521142,12856
1659515674.563176,12892
1659515674.60521,12966
1659515674.643143,13054
1659515674.681077,13135
1659515674.71901,13170
1659515674.761044,13061
1659515674.803078,12734
1659515674.841695,12426
1659515674.880311,12185
1659515674.918928,11943
1659515674.958228,11774
1659515674.997529,11673
1659515675.036829,11575
1659515675.07835,11510
1659515675.119872,11505
1659515675.159172,11544
1659515675.198472,11596
1659515675.237772,11650
1659515675.276389,11691
1659515675.315006,11740
1659515675.353622,11837
1659515675.396169,11949
1659515675.438716,12061
1659515675.477674,12158
1659515675.516633,12257
1659515675.555591,12301
1659515675.597113,12158
1659515675.638634,11789
1659515675.676909,11510
1659515675.715184,11387
1659515675.753459,11322
1659515675.796006,11317
1659515675.838553,11306
1659515675.882296,11266
1659515675.926039,11232
1659515675.969781,11263
1659515676.002588,11373
1659515676.035395,11505
1659515676.079822,11595
1659515676.124248,11620
1659515676.168674,11604
1659515676.206949,11537
1659515676.245224,11522
1659515676.283499,11524
1659515676.325533,11518
1659515676.367568,11511
1659515676.406868,11352
1659515676.446168,11046
1659515676.485468,10773
1659515676.526477,10647
1659515676.567486,10610
1659515676.606444,10694
1659515676.645403,10818
1659515676.684361,10872
1659515676.722636,10893
1659515676.760911,10851
1659515676.799186,10767
1659515676.841733,10684
1659515676.88428,10602
1659515676.922555,10507
1659515676.96083,10302
