LocalTimestamp,PG
1659440546.511739,10515
1659440546.511739,10500
1659440546.511739,9772
1659440546.547627,9756
1659440546.583515,9747
1659440546.619403,9728
1659440546.655291,9740
1659440546.693572,9748
1659440546.731852,9752
1659440546.770133,9671
1659440546.812686,9511
1659440546.855239,9369
1659440546.893862,9288
1659440546.932484,9217
1659440546.971106,9178
1659440547.012121,9204
1659440547.053136,9224
1659440547.092784,9239
1659440547.132432,9248
1659440547.17208,9257
1659440547.213607,9274
1659440547.255135,9307
1659440547.293416,9351
1659440547.331696,9380
1659440547.369977,9427
1659440547.414751,9455
1659440547.459526,9428
1659440547.504301,9286
1659440547.5366,9141
1659440547.568899,9044
1659440547.612648,8989
1659440547.656398,8959
1659440547.700147,8953
1659440547.739111,8990
1659440547.778075,9033
1659440547.81704,9057
1659440547.85908,9069
1659440547.90112,9089
1659440547.939401,9121
1659440547.977682,9143
1659440548.015962,9180
1659440548.058515,9213
1659440548.101068,9259
1659440548.140033,9299
1659440548.178997,9340
1659440548.217961,9379
1659440548.256925,9416
1659440548.295889,9459
1659440548.334853,9498
1659440548.377407,9533
1659440548.41996,9581
1659440548.458582,9617
1659440548.497204,9650
1659440548.535827,9686
1659440548.576329,9670
1659440548.616831,9532
1659440548.655796,9397
1659440548.69476,9309
1659440548.733724,9264
1659440548.776277,9243
1659440548.81883,9243
1659440548.857111,9253
1659440548.895391,9287
1659440548.933672,9287
1659440548.975199,9302
1659440549.016727,9314
1659440549.056033,9344
1659440549.095339,9373
1659440549.134645,9423
1659440549.178394,9451
1659440549.222144,9486
1659440549.265893,9533
1659440549.308446,9575
1659440549.350999,9615
1659440549.389621,9646
1659440549.428244,9682
1659440549.466866,9660
1659440549.507369,9566
1659440549.547871,9487
1659440549.586493,9435
1659440549.625116,9419
1659440549.663738,9402
1659440549.703044,9419
1659440549.74235,9472
1659440549.781656,9494
1659440549.822158,9516
1659440549.862661,9551
1659440549.901283,9572
1659440549.939905,9613
1659440549.978528,9653
1659440550.01715,9704
1659440550.055773,9738
1659440550.094395,9787
1659440550.136435,9827
1659440550.178476,9872
1659440550.217098,9918
1659440550.255721,9965
1659440550.294343,10002
1659440550.335871,10050
1659440550.377398,10088
1659440550.416704,10122
1659440550.45601,10161
1659440550.495316,10109
1659440550.539407,9981
1659440550.583498,9899
1659440550.627589,9832
1659440550.661427,9801
1659440550.695264,9774
1659440550.739697,9768
1659440550.78413,9800
1659440550.828563,9812
1659440550.869065,9819
1659440550.909567,9831
1659440550.948531,9856
1659440550.987496,9885
1659440551.02646,9907
1659440551.065082,9944
1659440551.103705,9977
1659440551.142327,10024
1659440551.183855,10054
1659440551.225382,10092
1659440551.264688,10120
1659440551.303994,10148
1659440551.3433,10179
1659440551.385341,10199
1659440551.427381,10127
1659440551.466003,10003
1659440551.504626,9919
1659440551.543248,9862
1659440551.582554,9843
1659440551.62186,9849
1659440551.661166,9839
1659440551.703719,9855
1659440551.746272,9854
1659440551.784211,9854
1659440551.82215,9856
1659440551.860089,9860
1659440551.902129,9879
1659440551.94417,9893
1659440551.98621,9937
1659440552.02825,9953
1659440552.069009,9986
1659440552.109767,10023
1659440552.150526,10061
1659440552.191285,10036
1659440552.225122,9931
1659440552.258959,9821
1659440552.303734,9744
1659440552.348509,9708
1659440552.393283,9680
1659440552.434298,9674
1659440552.475313,9705
1659440552.513594,9721
1659440552.551874,9732
1659440552.590155,9752
1659440552.629803,9770
1659440552.669451,9794
1659440552.709098,9823
1659440552.750113,9853
1659440552.791128,9894
1659440552.829751,9925
1659440552.868373,9958
1659440552.906996,9993
1659440552.948523,10037
1659440552.990051,10065
1659440553.028673,10069
1659440553.067296,9970
1659440553.105918,9822
1659440553.144199,9719
1659440553.182479,9660
1659440553.22076,9618
1659440553.262288,9598
1659440553.303815,9606
1659440553.342096,9637
1659440553.380377,9646
1659440553.418657,9657
1659440553.460697,9669
1659440553.502738,9705
1659440553.541702,9717
1659440553.580666,9742
1659440553.61963,9772
1659440553.661158,9812
1659440553.702686,9839
1659440553.741308,9877
1659440553.779931,9921
1659440553.818553,9959
1659440553.863669,9959
1659440553.908786,9847
1659440553.953902,9692
1659440553.995943,9617
1659440554.037983,9569
1659440554.076605,9549
1659440554.115228,9561
1659440554.15385,9585
1659440554.195378,9601
1659440554.236905,9608
1659440554.275528,9615
1659440554.31415,9618
1659440554.352773,9643
1659440554.391053,9665
1659440554.429334,9690
1659440554.467615,9730
1659440554.510168,9767
1659440554.552721,9795
1659440554.591685,9813
1659440554.630649,9754
1659440554.669613,9620
1659440554.711141,9510
1659440554.752668,9449
1659440554.791633,9410
1659440554.830597,9405
1659440554.869561,9415
1659440554.908867,9434
1659440554.948173,9466
1659440554.987479,9476
1659440555.029007,9488
1659440555.070534,9508
1659440555.109157,9540
1659440555.147779,9583
1659440555.186402,9626
1659440555.226904,9655
1659440555.267406,9692
1659440555.308934,9733
1659440555.350461,9753
1659440555.391989,9789
1659440555.433517,9785
1659440555.472139,9693
1659440555.510761,9535
1659440555.549384,9451
1659440555.591937,9387
1659440555.63449,9354
1659440555.673112,9345
1659440555.711735,9355
1659440555.750357,9367
1659440555.789321,9387
1659440555.828286,9387
1659440555.86725,9396
1659440555.908777,9415
1659440555.950305,9437
1659440555.988586,9470
1659440556.026866,9502
1659440556.065147,9538
1659440556.106675,9572
1659440556.148202,9619
1659440556.192635,9654
1659440556.237068,9695
1659440556.281501,9712
1659440556.314313,9621
1659440556.347125,9491
1659440556.391216,9400
1659440556.435307,9347
1659440556.479398,9331
1659440556.518362,9342
1659440556.557327,9370
1659440556.596291,9381
1659440556.638331,9402
1659440556.680371,9406
1659440556.718652,9431
1659440556.756932,9450
1659440556.795213,9471
1659440556.837766,9509
1659440556.880319,9559
1659440556.917233,9591
1659440556.954146,9620
1659440556.99106,9664
1659440557.027973,9641
1659440557.070013,9522
1659440557.112054,9424
1659440557.151701,9361
1659440557.191349,9342
1659440557.230997,9342
1659440557.27543,9356
1659440557.319863,9389
1659440557.364296,9414
1659440557.40326,9421
1659440557.442224,9437
1659440557.481188,9468
1659440557.519811,9493
1659440557.558433,9537
1659440557.597055,9566
1659440557.635678,9608
1659440557.6743,9651
1659440557.712923,9672
1659440557.757356,9702
1659440557.801789,9665
1659440557.846221,9543
1659440557.879033,9441
1659440557.911845,9379
1659440557.955936,9352
1659440558.000027,9334
1659440558.044119,9362
1659440558.084108,9384
1659440558.124098,9417
1659440558.164087,9447
1659440558.20437,9458
1659440558.244652,9474
1659440558.284935,9502
1659440558.325217,9525
1659440558.3655,9556
1659440558.405782,9589
1659440558.446065,9628
1659440558.484859,9661
1659440558.523652,9707
1659440558.562445,9745
1659440558.601238,9771
1659440558.640032,9770
1659440558.678825,9672
1659440558.717789,9551
1659440558.756753,9471
1659440558.795717,9434
1659440558.839467,9407
1659440558.883216,9415
1659440558.926965,9436
1659440558.965588,9465
1659440559.00421,9487
1659440559.042833,9497
1659440559.082139,9522
1659440559.121445,9535
1659440559.160751,9564
1659440559.199373,9592
1659440559.237995,9626
1659440559.276618,9673
1659440559.318658,9702
1659440559.360698,9739
1659440559.399321,9751
1659440559.437943,9674
1659440559.476566,9540
1659440559.518606,9438
1659440559.560647,9396
1659440559.600636,9376
1659440559.640626,9374
1659440559.680615,9400
1659440559.720605,9420
1659440559.760594,9441
1659440559.799559,9446
1659440559.838523,9466
1659440559.877487,9484
1659440559.917989,9526
1659440559.958492,9540
1659440560.000019,9576
1659440560.041547,9619
1659440560.081195,9646
1659440560.120842,9675
1659440560.16049,9658
1659440560.204581,9552
1659440560.248672,9409
1659440560.292763,9334
1659440560.326088,9269
1659440560.359413,9238
1659440560.404187,9245
1659440560.448962,9270
1659440560.493737,9298
1659440560.527574,9316
1659440560.561411,9335
1659440560.605844,9354
1659440560.650277,9378
1659440560.69471,9405
1659440560.736238,9436
1659440560.777765,9477
1659440560.815191,9510
1659440560.852618,9542
1659440560.890044,9585
1659440560.92747,9600
1659440560.966434,9577
1659440561.005398,9449
1659440561.044363,9311
1659440561.085377,9232
1659440561.126392,9198
1659440561.164673,9176
1659440561.202954,9173
1659440561.241234,9209
1659440561.283275,9227
1659440561.325315,9243
1659440561.367612,9245
1659440561.409908,9258
1659440561.452205,9272
1659440561.494502,9267
1659440561.532782,9231
1659440561.571063,9195
1659440561.609344,9233
1659440561.651384,9292
1659440561.693424,9353
1659440561.732047,9388
1659440561.770669,9400
1659440561.809291,9415
1659440561.84723,9427
1659440561.885169,9446
1659440561.923108,9479
1659440561.965661,9502
1659440562.008214,9531
1659440562.049229,9557
1659440562.090244,9598
1659440562.131259,9615
1659440562.172274,9640
1659440562.21158,9667
1659440562.250886,9694
1659440562.290192,9739
1659440562.332232,9767
1659440562.374272,9795
1659440562.412895,9817
1659440562.451517,9832
1659440562.490139,9722
1659440562.529104,9522
1659440562.568068,9396
1659440562.607032,9335
1659440562.649585,9312
1659440562.692138,9319
1659440562.730419,9345
1659440562.768699,9370
1659440562.80698,9384
1659440562.84902,9385
1659440562.891061,9407
1659440562.935835,9416
1659440562.98061,9437
1659440563.025385,9461
1659440563.058709,9499
1659440563.092034,9508
1659440563.131819,9443
1659440563.171603,9341
1659440563.211388,9301
1659440563.251172,9314
1659440563.290956,9350
1659440563.330741,9395
1659440563.370526,9423
1659440563.41031,9439
1659440563.450094,9434
1659440563.489879,9473
1659440563.53356,9491
1659440563.577241,9522
1659440563.620922,9550
1659440563.664603,9578
1659440563.708284,9612
1659440563.74571,9638
1659440563.783136,9678
1659440563.820562,9710
1659440563.857988,9742
1659440563.900285,9706
1659440563.942582,9550
1659440563.984878,9421
1659440564.027175,9345
1659440564.067677,9340
1659440564.10818,9345
1659440564.146802,9377
1659440564.185424,9404
1659440564.224047,9421
1659440564.265574,9445
1659440564.307102,9450
1659440564.346066,9482
1659440564.385031,9494
1659440564.423995,9515
1659440564.462617,9516
1659440564.50124,9516
1659440564.539862,9465
1659440564.581902,9303
1659440564.623943,9182
1659440564.662565,9115
1659440564.701187,9093
1659440564.73981,9077
1659440564.778432,9095
1659440564.817055,9117
1659440564.855677,9120
1659440564.897717,9133
1659440564.939758,9138
1659440564.979064,9153
1659440565.01837,9185
1659440565.057676,9224
1659440565.098178,9242
1659440565.13868,9285
1659440565.182771,9231
1659440565.226862,9068
1659440565.270953,8935
1659440565.304791,8856
1659440565.338628,8803
1659440565.382377,8793
1659440565.426127,8802
1659440565.469876,8840
1659440565.50884,8876
1659440565.547804,8895
1659440565.586769,8915
1659440565.628296,8939
1659440565.669824,8960
1659440565.708788,8982
1659440565.747752,9023
1659440565.786716,9051
1659440565.82927,9100
1659440565.871823,9131
1659440565.911129,9164
1659440565.950434,9159
1659440565.989741,9025
1659440566.028363,8878
1659440566.066985,8805
1659440566.105608,8766
1659440566.146623,8752
1659440566.187638,8766
1659440566.226944,8822
1659440566.26625,8847
1659440566.305556,8871
1659440566.347083,8873
1659440566.388611,8902
1659440566.426892,8927
1659440566.465172,8962
1659440566.503453,9005
1659440566.542759,9036
1659440566.582065,9082
1659440566.621371,9107
1659440566.662386,9122
1659440566.703401,9046
1659440566.744928,8900
1659440566.786456,8835
1659440566.825762,8786
1659440566.865068,8763
1659440566.904374,8769
1659440566.948807,8818
1659440566.99324,8850
1659440567.037673,8893
1659440567.070485,8909
1659440567.103297,8921
1659440567.148413,8958
1659440567.193529,8994
1659440567.238646,9047
1659440567.271971,9084
1659440567.305295,9127
1659440567.349045,9157
1659440567.392794,9206
1659440567.436543,9243
1659440567.475507,9281
1659440567.514472,9320
1659440567.553436,9326
1659440567.591374,9249
1659440567.629313,9137
1659440567.667252,9059
1659440567.70878,9017
1659440567.750308,9004
1659440567.789272,9011
1659440567.828236,9043
1659440567.8672,9093
1659440567.908728,9117
1659440567.950255,9146
1659440567.988878,9167
1659440568.0275,9187
1659440568.066123,9228
1659440568.108676,9266
1659440568.151229,9302
1659440568.190193,9333
1659440568.229157,9376
1659440568.268121,9415
1659440568.309136,9457
1659440568.350151,9485
1659440568.389115,9518
1659440568.42808,9521
1659440568.467044,9448
1659440568.511135,9330
1659440568.555226,9277
1659440568.599317,9250
1659440568.632642,9240
1659440568.665966,9262
1659440568.710741,9297
1659440568.755516,9334
1659440568.80029,9348
1659440568.83259,9365
1659440568.864889,9389
1659440568.909322,9415
1659440568.953755,9441
1659440568.998188,9468
1659440569.037493,9502
1659440569.076799,9522
1659440569.116105,9540
1659440569.158659,9564
1659440569.201211,9589
1659440569.239834,9584
1659440569.278456,9517
1659440569.317079,9381
1659440569.358606,9295
1659440569.400134,9264
1659440569.43944,9238
1659440569.478746,9247
1659440569.518052,9261
1659440569.556674,9283
1659440569.595297,9293
1659440569.633919,9298
1659440569.67596,9309
1659440569.718,9327
1659440569.756964,9359
1659440569.795928,9388
1659440569.834893,9423
1659440569.875907,9457
1659440569.916922,9475
1659440569.955545,9506
1659440569.994167,9540
1659440570.03279,9571
1659440570.07483,9591
1659440570.11687,9547
1659440570.156176,9400
1659440570.195482,9273
1659440570.234788,9204
1659440570.275803,9157
1659440570.316818,9143
1659440570.361593,9140
1659440570.406368,9171
1659440570.451142,9192
1659440570.489765,9215
1659440570.528387,9213
1659440570.567009,9232
1659440570.608537,9233
1659440570.650065,9223
1659440570.688687,9197
1659440570.727309,9181
1659440570.765932,9214
1659440570.806947,9281
1659440570.847962,9327
1659440570.886242,9360
1659440570.924523,9361
1659440570.962804,9389
1659440571.001768,9405
1659440571.040732,9429
1659440571.079696,9452
1659440571.121224,9472
1659440571.162752,9498
1659440571.201374,9519
1659440571.239996,9551
1659440571.278619,9583
1659440571.317925,9621
1659440571.357231,9645
1659440571.396537,9679
1659440571.43909,9704
1659440571.481643,9727
1659440571.519923,9761
1659440571.558204,9774
1659440571.596485,9803
1659440571.638012,9820
1659440571.67954,9841
1659440571.718504,9820
1659440571.757468,9691
1659440571.796433,9513
1659440571.840524,9416
1659440571.884615,9387
1659440571.928706,9376
1659440571.970746,9396
1659440572.012787,9426
1659440572.052093,9418
1659440572.091398,9405
1659440572.130705,9394
1659440572.171207,9397
1659440572.211709,9411
1659440572.250331,9423
1659440572.288954,9448
1659440572.327576,9465
1659440572.367224,9424
1659440572.406872,9315
1659440572.44652,9259
1659440572.48856,9240
1659440572.5306,9276
1659440572.569565,9312
1659440572.608529,9357
1659440572.647493,9365
1659440572.689021,9362
1659440572.730548,9376
1659440572.769171,9380
1659440572.807793,9410
1659440572.846416,9422
1659440572.885038,9447
1659440572.92366,9483
1659440572.962283,9511
1659440573.007057,9544
1659440573.051832,9560
1659440573.096607,9594
1659440573.129419,9606
1659440573.162231,9634
1659440573.206664,9652
1659440573.251096,9672
1659440573.295529,9701
1659440573.334152,9684
1659440573.372774,9551
1659440573.411397,9371
1659440573.452411,9269
1659440573.493426,9229
1659440573.532391,9222
1659440573.571355,9236
1659440573.610319,9256
1659440573.652359,9283
1659440573.6944,9272
1659440573.733022,9256
1659440573.771645,9262
1659440573.810267,9259
1659440573.849231,9285
1659440573.888195,9304
1659440573.92716,9323
1659440573.969712,9341
1659440574.012266,9365
1659440574.050888,9305
1659440574.08951,9156
1659440574.128133,9041
1659440574.168122,8983
1659440574.208112,8971
1659440574.246734,8984
1659440574.285357,8999
1659440574.323979,9026
1659440574.365507,9034
1659440574.407034,9027
1659440574.445657,9027
1659440574.484279,9046
1659440574.522902,9070
1659440574.564429,9095
1659440574.605957,9125
1659440574.645263,9131
1659440574.684569,9059
1659440574.723875,8884
1659440574.767966,8778
1659440574.812057,8727
1659440574.856148,8705
1659440574.898701,8704
1659440574.941254,8728
1659440574.980218,8770
1659440575.019183,8795
1659440575.058147,8810
1659440575.096769,8817
1659440575.135392,8833
1659440575.174014,8867
1659440575.215029,8893
1659440575.256044,8934
1659440575.29535,8962
1659440575.334656,9002
1659440575.373962,9032
1659440575.41549,9074
1659440575.457017,9093
1659440575.49564,9047
1659440575.534262,8909
1659440575.572885,8784
1659440575.612532,8723
1659440575.65218,8706
1659440575.691828,8695
1659440575.732843,8721
1659440575.773858,8763
1659440575.81248,8807
1659440575.851103,8826
1659440575.889725,8843
1659440575.932791,8864
1659440575.975857,8901
1659440576.014479,8941
1659440576.053101,8975
1659440576.091724,9015
1659440576.132739,9062
1659440576.173754,9110
1659440576.21306,9146
1659440576.252366,9191
1659440576.291672,9229
1659440576.333199,9200
1659440576.374727,9085
1659440576.418476,9005
1659440576.462225,8973
1659440576.505975,8968
1659440576.544939,8970
1659440576.583903,8997
1659440576.622867,9043
1659440576.661148,9071
1659440576.699429,9091
1659440576.737709,9111
1659440576.778724,9137
1659440576.819739,9167
1659440576.859387,9208
1659440576.899035,9246
1659440576.938683,9287
1659440576.98021,9319
1659440577.021738,9347
1659440577.060019,9383
1659440577.098299,9394
1659440577.13658,9326
1659440577.175886,9222
1659440577.215192,9164
1659440577.254498,9133
1659440577.296538,9137
1659440577.338578,9142
1659440577.376859,9179
1659440577.41514,9217
1659440577.45342,9231
1659440577.494435,9252
1659440577.53545,9269
1659440577.574073,9297
1659440577.612695,9328
1659440577.651317,9384
1659440577.692845,9409
1659440577.734373,9452
1659440577.779147,9503
1659440577.823922,9539
1659440577.868697,9570
1659440577.902021,9585
1659440577.935346,9601
1659440577.979437,9528
1659440578.023528,9398
1659440578.067619,9301
1659440578.106925,9241
1659440578.146231,9209
1659440578.185537,9191
1659440578.22809,9206
1659440578.270643,9236
1659440578.309266,9251
1659440578.347888,9269
1659440578.38651,9288
1659440578.425475,9316
1659440578.464439,9347
1659440578.503403,9390
1659440578.544418,9435
1659440578.585433,9459
1659440578.623713,9496
1659440578.661994,9506
1659440578.700275,9521
1659440578.742315,9543
1659440578.784355,9558
1659440578.82332,9581
1659440578.862284,9599
1659440578.901248,9624
1659440578.939871,9612
1659440578.978493,9507
1659440579.017115,9367
1659440579.058643,9280
1659440579.100171,9236
1659440579.139135,9209
1659440579.178099,9208
1659440579.217063,9225
1659440579.259104,9255
1659440579.301144,9267
1659440579.345235,9266
1659440579.389326,9270
1659440579.433417,9267
1659440579.466229,9302
1659440579.499041,9320
1659440579.543132,9341
1659440579.587223,9362
1659440579.631314,9383
1659440579.665152,9414
1659440579.698989,9433
1659440579.74308,9439
1659440579.787171,9365
1659440579.831262,9219
1659440579.869884,9132
1659440579.908507,9086
1659440579.947129,9076
1659440579.987632,9071
1659440580.028134,9114
1659440580.067098,9143
1659440580.106062,9162
1659440580.145027,9173
1659440580.184333,9173
1659440580.223639,9188
1659440580.262945,9217
1659440580.30396,9246
1659440580.344975,9280
1659440580.383939,9320
1659440580.422903,9356
1659440580.461867,9380
1659440580.503907,9415
1659440580.545948,9438
1659440580.584912,9455
1659440580.623876,9461
1659440580.66284,9348
1659440580.701805,9218
1659440580.740769,9124
1659440580.779733,9092
1659440580.820748,9072
1659440580.861763,9073
1659440580.902265,9098
1659440580.942767,9127
1659440580.981732,9152
1659440581.020696,9161
1659440581.05966,9167
1659440581.104777,9194
1659440581.149893,9202
1659440581.195009,9186
1659440581.227821,9157
1659440581.260633,9167
1659440581.305066,9201
1659440581.349499,9268
1659440581.393932,9319
1659440581.428282,9343
1659440581.462632,9357
1659440581.507065,9367
1659440581.551498,9396
1659440581.595931,9415
1659440581.634553,9447
1659440581.673175,9464
1659440581.711798,9495
1659440581.753838,9518
1659440581.795878,9548
1659440581.834159,9577
1659440581.87244,9611
1659440581.91072,9639
1659440581.952248,9669
1659440581.993776,9692
1659440582.033082,9713
1659440582.072388,9735
1659440582.111694,9749
1659440582.149974,9771
1659440582.188255,9802
1659440582.226536,9818
1659440582.26755,9798
1659440582.308565,9686
1659440582.347872,9521
1659440582.387177,9447
1659440582.426483,9411
1659440582.468524,9411
1659440582.510564,9432
1659440582.549186,9453
1659440582.587809,9461
1659440582.626431,9460
1659440582.667959,9466
1659440582.709486,9475
1659440582.748451,9500
1659440582.787415,9506
1659440582.826379,9540
1659440582.867907,9565
1659440582.909435,9533
1659440582.948057,9438
1659440582.986679,9352
1659440583.025302,9335
1659440583.069735,9346
1659440583.114167,9401
1659440583.1586,9446
1659440583.199103,9463
1659440583.239605,9470
1659440583.278569,9476
1659440583.317533,9493
1659440583.356498,9523
1659440583.395462,9542
1659440583.434426,9578
1659440583.47339,9602
1659440583.514918,9624
1659440583.556445,9652
1659440583.595751,9690
1659440583.635057,9708
1659440583.674363,9733
1659440583.713328,9772
1659440583.752292,9791
1659440583.791256,9823
1659440583.832784,9856
1659440583.874311,9843
1659440583.913617,9721
1659440583.952923,9540
1659440583.992229,9444
1659440584.033757,9397
1659440584.075284,9381
1659440584.113565,9400
1659440584.151846,9409
1659440584.190126,9417
1659440584.231141,9401
1659440584.272156,9396
1659440584.311462,9386
1659440584.350768,9390
1659440584.390074,9400
1659440584.431089,9422
1659440584.472104,9450
1659440584.511069,9461
1659440584.550033,9431
1659440584.588997,9301
1659440584.633771,9151
1659440584.678546,9071
1659440584.723321,9027
1659440584.764848,9023
1659440584.806376,9038
1659440584.845682,9051
1659440584.884988,9062
1659440584.924294,9066
1659440584.966334,9057
1659440585.008375,9077
1659440585.046997,9087
1659440585.08562,9109
1659440585.124242,9132
1659440585.162523,9140
1659440585.200803,9128
1659440585.239084,9083
1659440585.281124,8942
1659440585.323164,8815
1659440585.362129,8772
1659440585.401093,8757
1659440585.440057,8764
1659440585.477996,8787
1659440585.515935,8816
1659440585.553874,8824
1659440585.595401,8811
1659440585.636929,8797
1659440585.676235,8792
1659440585.715541,8813
1659440585.754847,8841
1659440585.796375,8879
1659440585.837902,8926
1659440585.876866,8967
1659440585.915831,9009
1659440585.954795,9054
1659440585.996322,9071
1659440586.03785,9101
1659440586.081599,9128
1659440586.125349,9142
1659440586.169098,9164
1659440586.202423,9182
1659440586.235747,9215
1659440586.280522,9245
1659440586.325297,9274
1659440586.370071,9297
1659440586.408352,9258
1659440586.446633,9117
1659440586.484913,8967
1659440586.525928,8901
1659440586.566943,8865
1659440586.606249,8844
1659440586.645555,8858
1659440586.684861,8891
1659440586.723142,8927
1659440586.761422,8943
1659440586.799703,8963
1659440586.841743,8976
1659440586.883784,9008
1659440586.923431,9044
1659440586.963079,9085
1659440587.002727,9131
1659440587.044255,9166
1659440587.085782,9206
1659440587.124746,9242
1659440587.163711,9274
1659440587.202675,9297
1659440587.245228,9321
1659440587.287781,9353
1659440587.326403,9380
1659440587.365026,9413
1659440587.403648,9442
1659440587.441929,9442
1659440587.480209,9367
1659440587.51849,9239
1659440587.560018,9170
1659440587.601545,9141
1659440587.645636,9135
1659440587.689727,9147
1659440587.733819,9173
1659440587.767143,9199
1659440587.800468,9208
1659440587.845584,9226
1659440587.890701,9237
1659440587.935817,9245
1659440587.968629,9277
1659440588.001441,9301
1659440588.045532,9339
1659440588.089623,9369
1659440588.133714,9391
1659440588.167552,9416
1659440588.201389,9467
1659440588.246164,9472
1659440588.290938,9493
1659440588.335713,9514
1659440588.373994,9481
1659440588.412274,9360
1659440588.450555,9246
1659440588.49157,9176
1659440588.532585,9141
1659440588.571891,9138
1659440588.611197,9145
1659440588.650503,9169
1659440588.688783,9202
1659440588.727064,9213
1659440588.765345,9219
1659440588.803967,9239
1659440588.842589,9259
1659440588.881212,9309
1659440588.92274,9358
1659440588.964267,9404
1659440589.003231,9428
1659440589.042196,9444
1659440589.08116,9452
1659440589.125934,9481
1659440589.170709,9518
1659440589.215484,9551
1659440589.257524,9596
1659440589.299564,9621
1659440589.338187,9635
1659440589.376809,9630
1659440589.415431,9640
1659440589.454396,9630
1659440589.49336,9525
1659440589.532324,9358
1659440589.573339,9230
1659440589.614354,9148
1659440589.652977,9113
1659440589.691599,9079
1659440589.730221,9086
1659440589.769527,9106
1659440589.808833,9121
1659440589.848139,9125
1659440589.89018,9124
1659440589.93222,9135
1659440589.970501,9135
1659440590.008781,9158
1659440590.047062,9171
1659440590.088589,9195
1659440590.130117,9217
1659440590.169765,9228
1659440590.209413,9258
1659440590.249061,9284
1659440590.290588,9306
1659440590.332116,9326
1659440590.370738,9341
1659440590.409361,9343
1659440590.447983,9332
1659440590.490536,9183
1659440590.533089,9047
1659440590.57718,8974
1659440590.621271,8940
1659440590.665362,8934
1659440590.704668,8941
1659440590.743974,8962
1659440590.78328,8982
1659440590.824295,8996
1659440590.86531,9002
1659440590.903933,9004
1659440590.942555,9022
1659440590.981178,9040
1659440591.019116,9063
1659440591.057055,9105
1659440591.094994,9122
1659440591.13806,9146
1659440591.181125,9169
1659440591.219748,9183
1659440591.25837,9188
1659440591.296993,9106
1659440591.338008,8988
1659440591.379023,8908
1659440591.418329,8893
1659440591.457634,8892
1659440591.496941,8913
1659440591.535563,8955
1659440591.574185,8971
1659440591.612808,8985
1659440591.654335,8990
1659440591.695863,9004
1659440591.734827,9029
1659440591.773792,9057
1659440591.812756,9091
1659440591.853258,9117
1659440591.89376,9148
1659440591.932041,9162
1659440591.970321,9190
1659440592.008602,9156
1659440592.051155,9021
1659440592.093708,8925
1659440592.138141,8884
1659440592.182574,8866
1659440592.227007,8867
1659440592.265287,8884
1659440592.303568,8925
1659440592.341849,8958
1659440592.384402,8980
1659440592.426955,8996
1659440592.465919,9022
1659440592.504883,9048
1659440592.543847,9077
1659440592.58247,9119
1659440592.621092,9143
1659440592.659714,9171
1659440592.701755,9201
1659440592.743795,9238
1659440592.783101,9259
1659440592.822407,9293
1659440592.861713,9320
1659440592.902215,9354
1659440592.942718,9384
1659440592.981682,9404
1659440593.020646,9435
1659440593.05961,9472
1659440593.098916,9490
1659440593.138222,9515
1659440593.177528,9532
1659440593.219056,9486
1659440593.260584,9346
1659440593.299206,9236
1659440593.337828,9196
1659440593.376451,9162
1659440593.418491,9160
1659440593.460531,9176
1659440593.499496,9198
1659440593.53846,9234
1659440593.577424,9244
1659440593.618952,9262
1659440593.660479,9288
1659440593.705596,9300
1659440593.750712,9338
1659440593.795829,9359
1659440593.828641,9396
1659440593.861453,9422
1659440593.902724,9464
1659440593.943995,9480
1659440593.985266,9506
1659440594.026538,9540
1659440594.06516,9569
1659440594.103783,9605
1659440594.142405,9634
1659440594.180686,9656
1659440594.218966,9683
1659440594.257247,9704
1659440594.299287,9635
1659440594.341328,9523
1659440594.385419,9436
1659440594.42951,9412
1659440594.473601,9429
1659440594.506926,9444
1659440594.54025,9469
1659440594.584341,9474
1659440594.628432,9470
1659440594.672523,9453
1659440594.706873,9423
1659440594.741223,9424
1659440594.785315,9432
1659440594.829406,9450
1659440594.873497,9487
1659440594.912461,9499
1659440594.951425,9529
1659440594.990389,9538
1659440595.031404,9558
1659440595.072419,9555
1659440595.111383,9472
1659440595.150347,9327
1659440595.189312,9212
1659440595.227934,9166
1659440595.266557,9147
1659440595.305179,9141
1659440595.346707,9169
1659440595.388234,9192
1659440595.426857,9193
1659440595.465479,9198
1659440595.504102,9195
1659440595.545116,9193
1659440595.586132,9217
1659440595.625779,9226
1659440595.665427,9244
1659440595.705075,9288
1659440595.744039,9302
1659440595.783003,9333
1659440595.821967,9322
1659440595.862983,9241
1659440595.903997,9099
1659440595.94655,9007
1659440595.989103,8962
1659440596.028068,8936
1659440596.067032,8953
1659440596.105996,8970
1659440596.147524,9005
1659440596.189051,9031
1659440596.228015,9034
1659440596.26698,9046
1659440596.305944,9054
1659440596.350718,9066
1659440596.395493,9082
1659440596.440268,9103
1659440596.47308,9123
1659440596.505892,9157
1659440596.550325,9186
1659440596.594758,9212
1659440596.63919,9231
1659440596.678155,9200
1659440596.717119,9075
1659440596.756083,8956
1659440596.797098,8884
1659440596.838113,8862
1659440596.877077,8870
1659440596.916041,8892
1659440596.955006,8928
1659440596.997559,8947
1659440597.040112,8966
1659440597.078392,8961
1659440597.116673,8978
1659440597.154953,8992
1659440597.193918,9008
1659440597.232882,9042
1659440597.271846,9059
1659440597.312861,9083
1659440597.353876,9116
1659440597.392157,9133
1659440597.430437,9066
1659440597.468718,8952
1659440597.510246,8863
1659440597.551773,8820
1659440597.590395,8823
1659440597.629018,8833
1659440597.66764,8862
1659440597.708143,8908
1659440597.748645,8933
1659440597.787609,8953
1659440597.826573,8974
1659440597.865538,8998
1659440597.909971,9022
1659440597.954403,9061
1659440597.998836,9085
1659440598.032673,9133
1659440598.066511,9156
1659440598.110602,9177
1659440598.154693,9207
1659440598.198784,9223
1659440598.240824,9250
1659440598.282865,9289
1659440598.321145,9328
1659440598.359426,9372
1659440598.397707,9368
1659440598.435987,9232
1659440598.474268,9116
1659440598.512548,9059
1659440598.555101,9022
1659440598.597655,9019
1659440598.636277,9036
1659440598.674899,9077
1659440598.713522,9131
1659440598.754537,9161
1659440598.795552,9165
1659440598.834858,9167
1659440598.874164,9202
1659440598.91347,9232
1659440598.953117,9277
1659440598.992765,9320
1659440599.032413,9335
1659440599.073941,9346
1659440599.115468,9371
1659440599.154433,9388
1659440599.193397,9407
1659440599.232361,9420
1659440599.276794,9450
1659440599.321227,9479
1659440599.365659,9523
1659440599.404624,9556
1659440599.443588,9579
1659440599.482552,9539
1659440599.525105,9414
1659440599.567658,9297
1659440599.606281,9235
1659440599.644903,9209
1659440599.683525,9192
1659440599.724028,9197
1659440599.76453,9220
1659440599.803152,9228
1659440599.841775,9239
1659440599.880397,9233
1659440599.919361,9250
1659440599.958326,9265
1659440599.99729,9282
1659440600.038817,9304
1659440600.080345,9337
1659440600.118968,9356
1659440600.15759,9371
1659440600.196212,9386
1659440600.238253,9389
1659440600.280293,9406
1659440600.318915,9412
1659440600.357538,9425
1659440600.39616,9431
1659440600.437688,9346
1659440600.479215,9227
1659440600.518863,9163
1659440600.558511,9171
1659440600.598159,9189
1659440600.638661,9224
1659440600.679163,9290
1659440600.717444,9343
1659440600.755725,9383
1659440600.794005,9417
1659440600.838096,9426
1659440600.882187,9451
1659440600.926279,9453
1659440600.959603,9460
1659440600.992928,9467
1659440601.036677,9487
1659440601.080426,9509
1659440601.124176,9522
1659440601.163823,9553
1659440601.203471,9545
1659440601.243119,9471
1659440601.284134,9345
1659440601.325149,9268
1659440601.36343,9253
1659440601.40171,9254
1659440601.439991,9278
1659440601.483057,9295
1659440601.526122,9314
1659440601.565086,9296
1659440601.604051,9292
1659440601.643015,9283
1659440601.681637,9295
1659440601.72026,9320
1659440601.758882,9341
1659440601.799897,9360
1659440601.840912,9382
1659440601.880218,9390
1659440601.919524,9291
1659440601.95883,9163
1659440601.999845,9086
1659440602.04086,9045
1659440602.079824,9045
1659440602.118788,9056
1659440602.157753,9088
1659440602.199793,9119
1659440602.241833,9114
1659440602.280797,9120
1659440602.319762,9133
1659440602.358726,9151
1659440602.400766,9168
1659440602.442806,9193
1659440602.481771,9229
1659440602.520735,9249
1659440602.559699,9234
1659440602.60379,9101
1659440602.647881,8980
1659440602.691972,8923
1659440602.734013,8890
1659440602.776053,8881
1659440602.815359,8896
1659440602.854665,8940
1659440602.893971,8972
1659440602.934473,8998
1659440602.974975,9009
1659440603.013598,9033
1659440603.05222,9067
1659440603.090843,9089
1659440603.129807,9139
1659440603.168771,9165
1659440603.207735,9197
1659440603.249263,9224
1659440603.290791,9244
1659440603.329413,9266
1659440603.368035,9270
1659440603.406658,9191
1659440603.448185,9053
1659440603.489713,8959
1659440603.528336,8917
1659440603.566958,8898
1659440603.60558,8900
1659440603.644545,8916
1659440603.683509,8956
1659440603.722473,8996
1659440603.764001,9008
1659440603.805528,9029
1659440603.844834,9053
1659440603.88414,9092
1659440603.923446,9130
1659440603.963948,9162
1659440604.004451,9196
1659440604.043073,9222
1659440604.081696,9271
1659440604.120318,9291
1659440604.162358,9317
1659440604.204399,9348
1659440604.247806,9355
1659440604.291214,9284
1659440604.334621,9156
1659440604.373585,9092
1659440604.412549,9063
1659440604.451514,9068
1659440604.49082,9077
1659440604.530126,9107
1659440604.569432,9144
1659440604.610447,9151
1659440604.651462,9155
1659440604.690768,9170
1659440604.730074,9194
1659440604.76938,9221
1659440604.811933,9246
1659440604.854486,9280
1659440604.89345,9314
1659440604.932414,9346
1659440604.971378,9371
1659440605.010343,9396
1659440605.049307,9392
1659440605.088271,9289
1659440605.129286,9182
1659440605.170301,9127
1659440605.208923,9092
1659440605.247546,9098
1659440605.286168,9110
1659440605.327696,9148
1659440605.369223,9177
1659440605.408188,9205
1659440605.447152,9220
1659440605.486116,9236
1659440605.527131,9270
1659440605.568146,9294
1659440605.607452,9328
1659440605.646758,9359
1659440605.686064,9391
1659440605.728104,9416
1659440605.770144,9447
1659440605.814577,9473
1659440605.85901,9505
1659440605.903443,9538
1659440605.942066,9550
1659440605.980688,9515
1659440606.01931,9390
1659440606.058958,9286
1659440606.098606,9222
1659440606.138254,9188
1659440606.179781,9180
1659440606.221309,9186
1659440606.259932,9222
1659440606.298554,9256
1659440606.337176,9263
1659440606.378704,9288
1659440606.420232,9290
1659440606.45817,9315
1659440606.496109,9352
1659440606.534048,9373
1659440606.57267,9402
1659440606.611293,9433
1659440606.649915,9467
1659440606.691956,9481
1659440606.733996,9515
1659440606.772619,9529
1659440606.811241,9551
1659440606.849863,9575
1659440606.891391,9583
1659440606.932919,9490
1659440606.972224,9353
1659440607.011531,9266
1659440607.050837,9231
1659440607.092364,9215
1659440607.133892,9220
1659440607.172514,9233
1659440607.211137,9260
1659440607.249759,9261
1659440607.291287,9269
1659440607.332814,9269
1659440607.377247,9279
1659440607.42168,9314
1659440607.466113,9328
1659440607.504735,9348
1659440607.543358,9378
1659440607.58198,9407
1659440607.624021,9428
1659440607.666061,9440
1659440607.704683,9465
1659440607.743306,9436
1659440607.781928,9324
1659440607.820892,9203
1659440607.859857,9127
1659440607.898821,9100
1659440607.940861,9079
1659440607.982901,9085
1659440608.021866,9111
1659440608.06083,9141
1659440608.099794,9155
1659440608.141834,9166
1659440608.183875,9173
1659440608.223181,9197
1659440608.262487,9235
1659440608.301793,9243
1659440608.342808,9274
1659440608.383822,9317
1659440608.422445,9327
1659440608.461067,9357
1659440608.49969,9383
1659440608.538996,9408
1659440608.578302,9422
1659440608.617608,9450
1659440608.659135,9388
1659440608.700663,9251
1659440608.741678,9136
1659440608.782693,9076
1659440608.821657,9049
1659440608.860621,9038
1659440608.899585,9051
1659440608.94436,9083
1659440608.989135,9111
1659440609.03391,9129
1659440609.067747,9143
1659440609.101584,9171
1659440609.145675,9196
1659440609.189766,9234
1659440609.233857,9260
1659440609.27248,9289
1659440609.311102,9322
1659440609.349725,9350
1659440609.391252,9377
1659440609.43278,9401
1659440609.472086,9425
1659440609.511392,9455
1659440609.550698,9460
1659440609.5912,9354
1659440609.631702,9227
1659440609.670667,9165
1659440609.709631,9145
1659440609.748595,9147
1659440609.789866,9157
1659440609.831138,9193
1659440609.872409,9214
1659440609.91368,9218
1659440609.947005,9225
1659440609.98033,9232
1659440610.024421,9253
1659440610.068512,9276
1659440610.112603,9298
1659440610.151225,9337
1659440610.189848,9345
1659440610.22847,9372
1659440610.271536,9396
1659440610.314601,9414
1659440610.353224,9358
1659440610.391846,9235
1659440610.430469,9136
1659440610.469775,9094
1659440610.509081,9097
1659440610.548387,9088
1659440610.589914,9115
1659440610.631442,9161
1659440610.670406,9174
1659440610.70937,9190
1659440610.748335,9201
1659440610.787299,9225
1659440610.826263,9251
1659440610.865227,9277
1659440610.906755,9316
1659440610.948282,9345
1659440610.986221,9380
1659440611.02416,9407
1659440611.062099,9428
1659440611.104652,9462
1659440611.147205,9405
1659440611.192322,9271
1659440611.237438,9162
1659440611.282554,9101
1659440611.315366,9082
1659440611.348178,9083
1659440611.392269,9092
1659440611.436361,9127
1659440611.480452,9173
1659440611.514802,9175
1659440611.549152,9185
1659440611.593926,9201
1659440611.638701,9222
1659440611.683475,9249
1659440611.722098,9270
1659440611.76072,9300
1659440611.799343,9329
1659440611.840358,9355
1659440611.881373,9377
1659440611.919995,9407
1659440611.958618,9423
1659440611.99724,9337
1659440612.035521,9202
1659440612.073801,9122
1659440612.112082,9090
1659440612.154635,9083
1659440612.197188,9104
1659440612.23581,9138
1659440612.274433,9159
1659440612.313055,9174
1659440612.354583,9173
1659440612.396111,9169
1659440612.435075,9196
1659440612.474039,9204
1659440612.513003,9223
1659440612.555043,9250
1659440612.597084,9274
1659440612.635706,9287
1659440612.674329,9302
1659440612.712951,9310
1659440612.754479,9219
1659440612.796006,9078
1659440612.834629,8990
1659440612.873251,8951
1659440612.911874,8954
1659440612.955965,8950
1659440613.000056,8986
1659440613.044147,9003
1659440613.077471,9014
1659440613.110796,9021
1659440613.155571,9033
1659440613.200345,9050
1659440613.24512,9064
1659440613.277932,9097
1659440613.310744,9124
1659440613.354835,9157
1659440613.398926,9178
1659440613.443017,9198
1659440613.48164,9226
1659440613.520262,9213
1659440613.558884,9097
1659440613.601437,8952
1659440613.643991,8862
1659440613.682613,8827
1659440613.721235,8809
1659440613.759858,8813
1659440613.801898,8839
1659440613.843938,8873
1659440613.882903,8898
1659440613.921867,8918
1659440613.960831,8938
1659440613.999795,8959
1659440614.038759,8984
1659440614.077724,9020
1659440614.119251,9052
1659440614.160779,9079
1659440614.199743,9111
1659440614.238707,9140
1659440614.277671,9167
1659440614.318174,9201
1659440614.358676,9212
1659440614.398324,9217
1659440614.437972,9134
1659440614.477619,8984
1659440614.51966,8894
1659440614.5617,8851
1659440614.599981,8854
1659440614.638261,8855
1659440614.676542,8903
1659440614.71807,8931
1659440614.759597,8957
1659440614.804714,8979
1659440614.84983,8989
1659440614.894947,9005
1659440614.933911,9036
1659440614.972875,9069
1659440615.011839,9103
1659440615.052854,9129
1659440615.093869,9162
1659440615.132491,9187
1659440615.171114,9220
1659440615.209736,9243
1659440615.247675,9245
1659440615.285614,9137
1659440615.323553,9017
1659440615.365593,8958
1659440615.407634,8946
1659440615.446598,8957
1659440615.485562,8972
1659440615.524526,9013
1659440615.562807,9034
1659440615.601087,9029
1659440615.639368,9026
1659440615.681408,9046
1659440615.723449,9069
1659440615.762071,9100
1659440615.800694,9135
1659440615.839316,9170
1659440615.880843,9209
1659440615.922371,9247
1659440615.960994,9263
1659440615.999616,9240
1659440616.038238,9098
1659440616.080279,8956
1659440616.122319,8880
1659440616.1606,8823
1659440616.19888,8816
1659440616.237161,8827
1659440616.281594,8861
1659440616.326027,8915
1659440616.37046,8940
1659440616.413013,8972
1659440616.455565,9001
1659440616.493846,9032
1659440616.532127,9060
1659440616.570407,9100
1659440616.61091,9114
1659440616.651412,9135
1659440616.69106,9160
1659440616.730707,9178
1659440616.770355,9161
1659440616.808636,9041
1659440616.846916,8907
1659440616.885197,8826
1659440616.92775,8822
1659440616.970303,8812
1659440617.009609,8860
1659440617.048915,8927
1659440617.088221,8974
1659440617.129749,8976
1659440617.171277,8972
1659440617.209557,9000
1659440617.247838,9013
1659440617.286118,9057
1659440617.325766,9090
1659440617.365414,9093
1659440617.405062,9113
1659440617.446077,9108
1659440617.487092,9105
1659440617.525714,9078
1659440617.564337,8946
1659440617.602959,8794
1659440617.643974,8703
1659440617.684989,8666
1659440617.724637,8662
1659440617.764284,8686
1659440617.803932,8722
1659440617.844947,8760
1659440617.885962,8791
1659440617.930737,8799
1659440617.975511,8809
1659440618.020286,8829
1659440618.053098,8846
1659440618.08591,8882
1659440618.130343,8909
1659440618.174776,8941
1659440618.219208,8975
1659440618.258515,8990
1659440618.297821,8934
1659440618.337126,8813
1659440618.378141,8762
1659440618.419157,8769
1659440618.457437,8783
1659440618.495718,8811
1659440618.533998,8851
1659440618.575013,8881
1659440618.616028,8892
1659440618.655334,8895
1659440618.69464,8905
1659440618.733946,8929
1659440618.772569,8947
1659440618.811191,8981
1659440618.849813,9010
1659440618.890828,9039
1659440618.931843,9073
1659440618.971149,9026
1659440619.010455,8918
1659440619.049761,8860
1659440619.088042,8847
1659440619.126323,8856
1659440619.164603,8877
1659440619.206131,8916
1659440619.247658,8946
1659440619.286964,8957
1659440619.326271,8976
1659440619.365577,8989
1659440619.406591,9031
1659440619.447606,9058
1659440619.491356,9093
1659440619.535105,9134
1659440619.578854,9168
1659440619.613204,9180
1659440619.647554,9104
1659440619.691987,9006
1659440619.73642,8947
1659440619.780853,8937
1659440619.812639,8945
1659440619.844426,8950
1659440619.889201,8981
1659440619.933975,9001
1659440619.97875,9020
1659440620.018056,9026
1659440620.057362,9042
1659440620.096668,9061
1659440620.138196,9096
1659440620.179723,9129
1659440620.219029,9160
1659440620.258335,9204
1659440620.297641,9232
1659440620.339682,9254
1659440620.381722,9260
1659440620.420003,9148
1659440620.458283,9045
1659440620.496564,9005
1659440620.535528,8987
1659440620.574492,8997
1659440620.613456,9001
1659440620.656009,9042
1659440620.698563,9067
1659440620.736501,9096
1659440620.77444,9109
1659440620.812379,9130
1659440620.853907,9149
1659440620.895434,9173
1659440620.933715,9194
1659440620.971996,9216
1659440621.010276,9247
1659440621.051804,9274
1659440621.093332,9306
1659440621.132296,9340
1659440621.17126,9371
1659440621.210224,9387
1659440621.255341,9301
1659440621.300457,9202
1659440621.345573,9103
1659440621.377873,9083
1659440621.410172,9081
1659440621.454947,9092
1659440621.499721,9122
1659440621.544496,9145
1659440621.578333,9151
1659440621.612171,9145
1659440621.65592,9160
1659440621.699669,9160
1659440621.743418,9167
1659440621.781699,9192
1659440621.81998,9223
1659440621.85826,9238
1659440621.899788,9250
1659440621.941316,9270
1659440621.98028,9194
1659440622.019244,9092
1659440622.058208,9017
1659440622.096831,8995
1659440622.135453,9005
1659440622.174076,9016
1659440622.216116,9047
1659440622.258156,9060
1659440622.29712,9078
1659440622.336085,9073
1659440622.375049,9092
1659440622.416064,9115
1659440622.457079,9132
1659440622.496385,9167
1659440622.535691,9193
1659440622.574997,9206
1659440622.616012,9194
1659440622.657027,9070
1659440622.695991,8978
1659440622.734955,8948
1659440622.773919,8936
1659440622.816472,8933
1659440622.859025,8943
1659440622.89799,8979
1659440622.936954,8986
1659440622.975918,9002
1659440623.019667,8997
1659440623.063416,9010
1659440623.107166,9034
1659440623.148693,9055
1659440623.190221,9081
1659440623.228843,9091
1659440623.267466,9043
1659440623.306088,8933
1659440623.345052,8874
1659440623.384017,8850
1659440623.422981,8851
1659440623.465021,8867
1659440623.507061,8892
1659440623.546367,8926
1659440623.585674,8933
1659440623.624979,8936
1659440623.663602,8949
1659440623.702224,8961
1659440623.740847,8980
1659440623.782374,9009
1659440623.823902,9045
1659440623.863208,9087
1659440623.902514,9071
1659440623.94182,8991
1659440623.983348,8917
1659440624.024875,8896
1659440624.063156,8912
1659440624.101437,8935
1659440624.139717,8974
1659440624.181757,9010
1659440624.223798,9029
1659440624.262079,9040
1659440624.300359,9067
1659440624.33864,9088
1659440624.380167,9109
1659440624.421695,9130
1659440624.461343,9147
1659440624.500991,9168
1659440624.540638,9173
1659440624.584729,9123
1659440624.62882,9021
1659440624.672912,8961
1659440624.713927,8952
1659440624.754941,8945
1659440624.794247,8982
1659440624.833554,9004
1659440624.872859,9041
1659440624.9149,9046
1659440624.95694,9058
1659440624.994879,9077
1659440625.032818,9091
1659440625.070757,9117
1659440625.109721,9146
1659440625.148685,9160
1659440625.187649,9194
1659440625.228664,9215
1659440625.269679,9226
1659440625.308302,9164
1659440625.346924,9070
1659440625.385546,9024
1659440625.427587,9005
1659440625.469627,9021
1659440625.508591,9032
1659440625.547555,9055
1659440625.58652,9097
1659440625.625484,9116
1659440625.664448,9137
1659440625.703412,9145
1659440625.745453,9160
1659440625.787493,9176
1659440625.826457,9182
1659440625.865421,9160
1659440625.904386,9168
1659440625.9454,9223
1659440625.986415,9269
1659440626.025722,9305
1659440626.065027,9327
1659440626.104333,9344
1659440626.146887,9348
1659440626.18944,9384
1659440626.233189,9403
1659440626.276938,9421
1659440626.320687,9460
1659440626.353499,9485
1659440626.386311,9509
1659440626.431086,9541
1659440626.475861,9561
1659440626.520635,9591
1659440626.558916,9623
1659440626.597197,9645
1659440626.635477,9652
1659440626.67803,9678
1659440626.720583,9699
1659440626.759547,9711
1659440626.798512,9749
1659440626.837476,9754
1659440626.876098,9730
1659440626.914721,9616
1659440626.953343,9500
1659440626.994871,9443
1659440627.036398,9429
1659440627.075704,9441
1659440627.11501,9458
1659440627.154316,9468
1659440627.195844,9457
1659440627.237372,9446
1659440627.275994,9436
1659440627.314616,9438
1659440627.353239,9451
1659440627.391861,9455
1659440627.430484,9464
1659440627.469106,9454
1659440627.510121,9390
1659440627.551136,9306
1659440627.589417,9265
1659440627.627697,9275
1659440627.665978,9301
1659440627.708018,9335
1659440627.750058,9340
1659440627.794491,9334
1659440627.838924,9345
1659440627.883357,9350
1659440627.916682,9362
1659440627.950006,9368
1659440627.994781,9388
1659440628.039556,9397
1659440628.08433,9422
1659440628.118168,9438
1659440628.152005,9447
1659440628.196096,9470
1659440628.240187,9486
1659440628.284278,9495
1659440628.323242,9466
1659440628.362207,9323
1659440628.401171,9166
1659440628.441673,9094
1659440628.482175,9069
1659440628.520798,9062
1659440628.55942,9080
1659440628.598043,9107
1659440628.640596,9125
1659440628.683149,9134
1659440628.722113,9126
1659440628.761077,9128
1659440628.800041,9141
1659440628.838664,9154
1659440628.877286,9186
1659440628.915909,9200
1659440628.957436,9226
1659440628.998964,9233
1659440629.038612,9165
1659440629.078259,9028
1659440629.117907,8946
1659440629.158922,8944
1659440629.199937,8945
1659440629.238559,8969
1659440629.277182,9008
1659440629.315804,9032
1659440629.358357,9047
1659440629.40091,9045
1659440629.440216,9052
1659440629.479522,9057
1659440629.518828,9085
1659440629.559331,9104
1659440629.599833,9134
1659440629.639139,9149
1659440629.678445,9099
1659440629.717751,8972
1659440629.761842,8878
1659440629.805933,8855
1659440629.850024,8855
1659440629.883349,8873
1659440629.916673,8909
1659440629.961448,8937
1659440630.006223,8962
1659440630.050997,8964
1659440630.087911,8969
1659440630.124824,8993
1659440630.161738,9005
1659440630.198651,9044
1659440630.241204,9064
1659440630.283757,9085
1659440630.322721,9098
1659440630.361686,9026
1659440630.40065,8924
1659440630.441665,8852
1659440630.48268,8839
1659440630.520961,8848
1659440630.559241,8859
1659440630.597522,8895
1659440630.642296,8943
1659440630.687071,8982
1659440630.731846,9005
1659440630.773373,9015
1659440630.814901,9047
1659440630.853523,9085
1659440630.892146,9107
1659440630.930768,9151
1659440630.969049,9185
1659440631.007329,9216
1659440631.04561,9263
1659440631.084233,9290
1659440631.122855,9324
1659440631.161477,9360
1659440631.20403,9367
1659440631.246583,9298
1659440631.285889,9190
1659440631.325195,9145
1659440631.364501,9130
1659440631.405516,9133
1659440631.446531,9163
1659440631.485496,9198
1659440631.52446,9249
1659440631.563424,9271
1659440631.605977,9294
1659440631.64853,9316
1659440631.687152,9346
1659440631.725775,9382
1659440631.764397,9416
1659440631.804899,9452
1659440631.845402,9486
1659440631.884366,9518
1659440631.92333,9554
1659440631.962294,9591
1659440632.006385,9615
1659440632.050477,9637
1659440632.094568,9626
1659440632.128405,9528
1659440632.162242,9456
1659440632.207017,9414
1659440632.251791,9413
1659440632.296566,9417
1659440632.338607,9435
1659440632.380647,9467
1659440632.418927,9483
1659440632.457208,9486
1659440632.495489,9499
1659440632.534453,9502
1659440632.573417,9516
1659440632.612381,9537
1659440632.654422,9567
1659440632.696462,9577
1659440632.735084,9598
1659440632.773707,9616
1659440632.812329,9628
1659440632.853344,9642
1659440632.894359,9569
1659440632.933323,9455
1659440632.972288,9379
1659440633.011252,9344
1659440633.049532,9324
1659440633.087813,9329
1659440633.126094,9359
1659440633.168134,9375
1659440633.210174,9392
1659440633.249139,9395
1659440633.288103,9403
1659440633.327067,9428
1659440633.368082,9436
1659440633.409097,9460
1659440633.447377,9474
1659440633.485658,9493
1659440633.523939,9511
1659440633.567004,9537
1659440633.61007,9557
1659440633.648693,9575
1659440633.687315,9599
1659440633.725937,9580
1659440633.766952,9491
1659440633.807967,9370
1659440633.8524,9286
1659440633.896833,9243
1659440633.941266,9229
1659440633.98023,9224
1659440634.019194,9237
1659440634.058158,9271
1659440634.099686,9277
1659440634.141214,9283
1659440634.180178,9294
1659440634.219142,9308
1659440634.258106,9332
1659440634.296045,9359
1659440634.333984,9381
1659440634.371923,9425
1659440634.410545,9439
1659440634.449168,9465
1659440634.48779,9486
1659440634.530856,9512
1659440634.573921,9494
1659440634.612544,9384
1659440634.651166,9283
1659440634.689789,9236
1659440634.730804,9237
1659440634.771819,9226
1659440634.811466,9246
1659440634.851114,9287
1659440634.890762,9299
1659440634.932802,9306
1659440634.974843,9311
1659440635.013465,9333
1659440635.052088,9345
1659440635.09071,9375
1659440635.131725,9388
1659440635.17274,9401
1659440635.211704,9438
1659440635.250668,9452
1659440635.289633,9470
1659440635.333382,9459
1659440635.377131,9371
1659440635.42088,9264
1659440635.463946,9193
1659440635.507012,9175
1659440635.545976,9169
1659440635.58494,9181
1659440635.623904,9225
1659440635.664919,9252
1659440635.705934,9285
1659440635.744899,9287
1659440635.783863,9302
1659440635.822827,9322
1659440635.861791,9341
1659440635.900755,9369
1659440635.939719,9380
1659440635.981247,9413
1659440636.022775,9433
1659440636.062559,9454
1659440636.102344,9468
1659440636.142128,9493
1659440636.181913,9499
1659440636.221697,9421
1659440636.259978,9308
1659440636.298259,9228
1659440636.336539,9199
1659440636.37482,9194
1659440636.4131,9196
1659440636.451381,9226
1659440636.493934,9256
1659440636.536487,9285
1659440636.574768,9294
1659440636.613048,9310
1659440636.651329,9339
1659440636.692857,9356
1659440636.734384,9387
1659440636.776425,9419
1659440636.818465,9451
1659440636.857429,9477
1659440636.896393,9519
1659440636.935358,9546
1659440636.979449,9570
1659440637.02354,9583
1659440637.067631,9514
1659440637.100955,9423
1659440637.13428,9377
1659440637.178371,9377
1659440637.222462,9381
1659440637.266553,9396
1659440637.305176,9421
1659440637.343798,9452
1659440637.382421,9461
1659440637.424973,9463
1659440637.467526,9471
1659440637.506149,9500
1659440637.544771,9517
1659440637.583394,9542
1659440637.623896,9566
1659440637.664398,9581
1659440637.703704,9611
1659440637.74301,9626
1659440637.782316,9606
1659440637.821964,9500
1659440637.861612,9407
1659440637.90126,9365
1659440637.942275,9356
1659440637.983289,9359
1659440638.022254,9377
1659440638.061218,9410
1659440638.100182,9442
1659440638.142735,9447
1659440638.185288,9462
1659440638.224252,9469
1659440638.263217,9488
1659440638.302181,9518
1659440638.343196,9547
1659440638.384211,9564
1659440638.423175,9591
1659440638.462139,9619
1659440638.501103,9640
1659440638.541606,9643
1659440638.582108,9554
1659440638.621072,9440
1659440638.660036,9385
1659440638.699001,9344
1659440638.743775,9346
1659440638.78855,9342
1659440638.833324,9376
1659440638.866137,9399
1659440638.898948,9443
1659440638.943381,9449
1659440638.987814,9466
1659440639.032247,9494
1659440639.073262,9509
1659440639.114277,9538
1659440639.153583,9564
1659440639.192889,9589
1659440639.232195,9614
1659440639.270476,9643
1659440639.308756,9664
1659440639.347037,9681
1659440639.389077,9639
1659440639.431118,9538
1659440639.469398,9447
1659440639.507679,9423
1659440639.545959,9414
1659440639.584582,9410
1659440639.623204,9436
1659440639.661827,9466
1659440639.703867,9487
1659440639.745907,9493
1659440639.784188,9482
1659440639.822469,9494
1659440639.860749,9511
1659440639.901251,9523
1659440639.941754,9552
1659440639.98106,9583
1659440640.020366,9597
1659440640.059672,9621
1659440640.101199,9632
1659440640.142727,9576
1659440640.181349,9455
1659440640.219972,9369
1659440640.258594,9337
1659440640.300634,9322
1659440640.342675,9344
1659440640.381639,9363
1659440640.420603,9391
1659440640.459568,9402
1659440640.503317,9396
1659440640.547066,9416
1659440640.590815,9419
1659440640.633881,9433
1659440640.676947,9455
1659440640.715569,9493
1659440640.754192,9513
1659440640.792814,9544
1659440640.833316,9563
1659440640.873818,9574
1659440640.912783,9525
1659440640.951747,9405
1659440640.990711,9312
1659440641.030017,9273
1659440641.069323,9251
1659440641.108629,9251
1659440641.150157,9268
1659440641.191684,9308
1659440641.23099,9331
1659440641.270296,9348
1659440641.309602,9373
1659440641.348567,9373
1659440641.387531,9397
1659440641.426495,9376
1659440641.470928,9340
1659440641.515361,9339
1659440641.559793,9377
1659440641.593631,9434
1659440641.627468,9472
1659440641.671901,9508
1659440641.716334,9514
1659440641.760767,9552
1659440641.799047,9555
1659440641.837328,9576
1659440641.875609,9607
1659440641.917136,9635
1659440641.958664,9661
1659440641.997286,9689
1659440642.035909,9728
1659440642.074531,9770
1659440642.113154,9804
1659440642.151776,9838
1659440642.190398,9858
1659440642.232439,9897
1659440642.274479,9925
1659440642.313443,9945
1659440642.352407,9966
1659440642.391372,9989
1659440642.432387,9964
1659440642.473402,9847
1659440642.512366,9709
1659440642.55133,9643
1659440642.590294,9636
1659440642.628917,9649
1659440642.667539,9669
1659440642.706161,9699
1659440642.748202,9686
1659440642.790242,9675
1659440642.830745,9670
1659440642.871247,9659
1659440642.910211,9661
1659440642.949175,9665
1659440642.988139,9678
1659440643.031889,9680
1659440643.075638,9635
1659440643.119387,9523
1659440643.152712,9451
1659440643.186037,9436
1659440643.230469,9452
1659440643.274902,9501
1659440643.319335,9517
1659440643.353173,9527
1659440643.38701,9523
1659440643.431101,9526
1659440643.475192,9544
1659440643.519283,9548
1659440643.558589,9576
1659440643.597895,9601
1659440643.637201,9618
1659440643.679754,9635
1659440643.722307,9654
1659440643.760929,9659
1659440643.799552,9558
1659440643.838174,9395
1659440643.879189,9283
1659440643.920204,9239
1659440643.95951,9228
1659440643.998816,9226
1659440644.038122,9246
1659440644.076745,9262
1659440644.115367,9268
1659440644.15399,9266
1659440644.19603,9266
1659440644.23807,9275
1659440644.276351,9282
1659440644.314631,9281
1659440644.352912,9305
1659440644.39444,9309
1659440644.435967,9217
1659440644.475615,9072
1659440644.515263,8982
1659440644.554911,8943
1659440644.596951,8938
1659440644.638991,8936
1659440644.677614,8958
1659440644.716236,8977
1659440644.754858,8967
1659440644.796899,8957
1659440644.838939,8941
1659440644.878587,8949
1659440644.918235,8947
1659440644.957883,8974
1659440645.001632,8980
1659440645.045381,8976
1659440645.08913,8874
1659440645.129633,8719
1659440645.170135,8637
1659440645.209441,8609
1659440645.248747,8597
1659440645.288053,8608
1659440645.325992,8641
1659440645.363931,8678
1659440645.401869,8681
1659440645.444422,8695
1659440645.486975,8717
1659440645.525598,8737
1659440645.56422,8769
1659440645.602843,8787
1659440645.64437,8810
1659440645.685898,8831
1659440645.724179,8831
1659440645.762459,8737
1659440645.80074,8620
1659440645.839704,8568
1659440645.878668,8548
1659440645.917633,8554
1659440645.95916,8582
1659440646.000688,8621
1659440646.039652,8672
1659440646.078616,8693
1659440646.11758,8713
1659440646.159108,8740
1659440646.200636,8756
1659440646.239258,8793
1659440646.27788,8832
1659440646.316503,8863
1659440646.358031,8892
1659440646.399558,8936
1659440646.438522,8975
1659440646.477487,9015
1659440646.516451,9042
1659440646.560542,9069
1659440646.604633,9103
1659440646.648724,9124
1659440646.690764,9153
1659440646.732805,9096
1659440646.771769,8999
1659440646.810733,8947
1659440646.849697,8936
1659440646.89225,8934
1659440646.934803,8949
1659440646.973426,8984
1659440647.012048,9021
1659440647.050671,9042
1659440647.089977,9058
1659440647.129282,9073
1659440647.168589,9085
1659440647.209604,9102
1659440647.250618,9132
1659440647.289583,9159
1659440647.328547,9170
1659440647.367511,9144
1659440647.409551,9106
1659440647.451592,9120
1659440647.490898,9156
1659440647.530204,9192
1659440647.56951,9227
1659440647.607449,9233
1659440647.645387,9243
1659440647.683326,9255
1659440647.724854,9272
1659440647.766382,9283
1659440647.806371,9310
1659440647.846361,9326
1659440647.88635,9346
1659440647.927365,9371
1659440647.96838,9389
1659440648.006661,9408
1659440648.044941,9430
1659440648.083222,9455
1659440648.125775,9472
1659440648.168328,9491
1659440648.212077,9513
1659440648.255827,9526
1659440648.299576,9557
1659440648.332901,9569
1659440648.366225,9589
1659440648.410316,9597
1659440648.454407,9519
1659440648.498498,9394
1659440648.537463,9314
1659440648.576427,9276
1659440648.615391,9259
1659440648.655893,9247
1659440648.696396,9264
1659440648.736043,9275
1659440648.775691,9294
1659440648.815339,9290
1659440648.853961,9311
1659440648.892584,9330
1659440648.931206,9354
1659440648.972221,9386
1659440649.013236,9411
1659440649.052542,9449
1659440649.091848,9470
1659440649.131154,9493
1659440649.173194,9515
1659440649.215235,9474
1659440649.253515,9373
1659440649.291796,9286
1659440649.330077,9242
1659440649.369383,9216
1659440649.408689,9216
1659440649.447995,9230
1659440649.48901,9253
1659440649.530025,9263
1659440649.568305,9257
1659440649.606586,9269
1659440649.644866,9271
1659440649.686907,9293
1659440649.728947,9298
1659440649.773722,9320
1659440649.818496,9339
1659440649.863271,9358
1659440649.895058,9356
1659440649.926844,9274
1659440649.971961,9156
1659440650.017077,9076
1659440650.062194,9041
1659440650.100816,9048
1659440650.139438,9049
1659440650.178061,9073
1659440650.220101,9105
1659440650.262141,9119
1659440650.301447,9133
1659440650.340754,9135
1659440650.380059,9152
1659440650.4221,9174
1659440650.46414,9197
1659440650.502421,9222
1659440650.540701,9252
1659440650.578982,9269
1659440650.617946,9296
1659440650.65691,9326
1659440650.695875,9321
1659440650.738428,9237
1659440650.780981,9139
1659440650.819261,9075
1659440650.857542,9057
1659440650.895823,9046
1659440650.936325,9064
1659440650.976827,9092
1659440651.016133,9139
1659440651.055439,9166
1659440651.094745,9178
1659440651.136273,9201
1659440651.1778,9222
1659440651.216764,9239
1659440651.255729,9245
1659440651.294693,9270
1659440651.336221,9274
1659440651.377748,9314
1659440651.416713,9336
1659440651.455677,9340
1659440651.494641,9334
1659440651.53839,9230
1659440651.582139,9142
1659440651.625889,9077
1659440651.659726,9055
1659440651.693563,9053
1659440651.737313,9075
1659440651.781062,9104
1659440651.824811,9116
1659440651.863434,9133
1659440651.902056,9141
1659440651.940679,9155
1659440651.981694,9162
1659440652.022708,9178
1659440652.062014,9203
1659440652.101321,9223
1659440652.140626,9230
1659440652.181641,9247
1659440652.222656,9265
1659440652.261621,9269
1659440652.300585,9197
1659440652.339549,9111
1659440652.378513,9083
1659440652.417477,9067
1659440652.456442,9074
1659440652.497969,9093
1659440652.539497,9135
1659440652.578119,9153
1659440652.616742,9178
1659440652.655364,9195
1659440652.697917,9208
1659440652.74047,9242
1659440652.778751,9264
1659440652.817031,9304
1659440652.855312,9335
1659440652.897352,9378
1659440652.939393,9402
1659440652.978699,9428
1659440653.018005,9401
1659440653.057311,9316
1659440653.098325,9297
1659440653.13934,9315
1659440653.177621,9315
1659440653.215902,9322
1659440653.254182,9353
1659440653.299641,9374
1659440653.345099,9390
1659440653.390557,9420
1659440653.423369,9429
1659440653.456181,9449
1659440653.500614,9469
1659440653.545047,9479
1659440653.58948,9512
1659440653.63152,9546
1659440653.67356,9592
1659440653.712524,9602
1659440653.751489,9554
1659440653.790453,9442
1659440653.828392,9352
1659440653.866331,9334
1659440653.904269,9329
1659440653.947335,9331
1659440653.990401,9356
1659440654.028682,9370
1659440654.066962,9383
1659440654.105243,9376
1659440654.143865,9393
1659440654.182487,9405
1659440654.22111,9430
1659440654.262125,9462
1659440654.30314,9481
1659440654.341762,9532
1659440654.380385,9564
1659440654.419007,9585
1659440654.460535,9563
1659440654.502062,9449
1659440654.541368,9337
1659440654.580674,9299
1659440654.61998,9267
1659440654.661508,9260
1659440654.703036,9283
1659440654.741658,9304
1659440654.780281,9319
1659440654.818903,9325
1659440654.860943,9307
1659440654.902984,9310
1659440654.947416,9312
1659440654.991849,9317
1659440655.036282,9325
1659440655.074221,9341
1659440655.11216,9358
1659440655.150099,9368
1659440655.191626,9385
1659440655.233154,9336
1659440655.271776,9221
1659440655.310399,9148
1659440655.349021,9127
1659440655.387985,9150
1659440655.42695,9187
1659440655.465914,9246
1659440655.507442,9297
1659440655.548969,9339
1659440655.588275,9354
1659440655.627581,9359
1659440655.666887,9378
1659440655.707389,9380
1659440655.747892,9401
1659440655.787539,9411
1659440655.827187,9432
1659440655.866835,9462
1659440655.905457,9481
1659440655.94408,9479
1659440655.982702,9401
1659440656.024743,9315
1659440656.066783,9277
1659440656.105405,9287
1659440656.144028,9337
1659440656.18265,9365
1659440656.225203,9385
1659440656.267756,9392
1659440656.306379,9379
1659440656.345001,9374
1659440656.383623,9364
1659440656.424638,9376
1659440656.465653,9405
1659440656.510428,9437
1659440656.555203,9471
1659440656.599977,9488
1659440656.633302,9490
1659440656.666627,9409
1659440656.710718,9293
1659440656.754809,9220
1659440656.7989,9195
1659440656.832224,9207
1659440656.865549,9217
1659440656.910324,9249
1659440656.955098,9283
1659440656.999873,9303
1659440657.038837,9302
1659440657.077801,9323
1659440657.116766,9330
1659440657.154448,9337
1659440657.192131,9360
1659440657.229813,9372
1659440657.267496,9394
1659440657.311245,9403
1659440657.354994,9407
1659440657.398743,9358
1659440657.437366,9274
1659440657.475988,9249
1659440657.514611,9248
1659440657.553233,9223
1659440657.591856,9247
1659440657.630478,9255
1659440657.672006,9268
1659440657.713533,9255
1659440657.752156,9279
1659440657.790778,9314
1659440657.829401,9346
1659440657.868706,9374
1659440657.908013,9409
1659440657.947319,9451
1659440657.988333,9473
1659440658.029348,9506
1659440658.070876,9522
1659440658.112404,9478
1659440658.152051,9395
1659440658.191699,9356
1659440658.231347,9329
1659440658.275096,9336
1659440658.318846,9332
1659440658.362595,9341
1659440658.394382,9351
1659440658.426168,9356
1659440658.471285,9373
1659440658.516401,9392
1659440658.561517,9421
1659440658.594842,9440
1659440658.628167,9447
1659440658.672258,9412
1659440658.716349,9374
1659440658.76044,9387
1659440658.800088,9406
1659440658.839736,9427
1659440658.879383,9436
1659440658.920911,9452
1659440658.962439,9449
1659440659.001061,9466
1659440659.039684,9488
1659440659.078306,9513
1659440659.121372,9595
1659440659.164437,9666
1659440659.20306,9735
1659440659.241682,9769
1659440659.280304,9764
1659440659.318927,9771
1659440659.357549,9791
1659440659.396172,9818
1659440659.437699,9855
1659440659.479227,9897
1659440659.518533,9918
1659440659.557839,9927
1659440659.597145,9911
1659440659.637647,9800
1659440659.67815,9673
1659440659.717114,9602
1659440659.756078,9585
1659440659.795042,9605
1659440659.83657,9616
1659440659.878098,9616
1659440659.917062,9603
1659440659.956026,9579
1659440659.99499,9571
1659440660.039765,9578
1659440660.084539,9615
1659440660.129314,9639
1659440660.162639,9678
1659440660.195963,9680
1659440660.240054,9697
1659440660.284146,9709
1659440660.328237,9639
1659440660.370277,9538
1659440660.412317,9477
1659440660.451623,9471
1659440660.490929,9467
1659440660.530235,9497
1659440660.568516,9510
1659440660.606797,9521
1659440660.645077,9530
1659440660.686092,9535
1659440660.727107,9537
1659440660.765729,9568
1659440660.804352,9600
1659440660.842974,9628
1659440660.881255,9665
1659440660.919536,9690
1659440660.957816,9639
1659440660.999856,9540
1659440661.041897,9442
1659440661.080861,9413
1659440661.119825,9422
1659440661.158789,9427
1659440661.200317,9449
1659440661.241845,9469
1659440661.280467,9458
1659440661.31909,9458
1659440661.357712,9451
1659440661.400265,9462
1659440661.442818,9473
1659440661.482124,9500
1659440661.52143,9509
1659440661.560736,9506
1659440661.601238,9421
1659440661.641741,9302
1659440661.680363,9227
1659440661.718985,9196
1659440661.757608,9198
1659440661.802041,9200
1659440661.846473,9224
1659440661.890906,9239
1659440661.932434,9239
1659440661.973962,9238
1659440662.012926,9249
1659440662.05189,9253
1659440662.090854,9278
1659440662.132382,9294
1659440662.17391,9320
1659440662.212874,9317
1659440662.251838,9224
1659440662.290802,9112
1659440662.330108,9058
1659440662.369414,9038
1659440662.40872,9027
1659440662.450504,9059
1659440662.492288,9068
1659440662.534072,9096
1659440662.575856,9128
1659440662.61482,9145
1659440662.653785,9153
1659440662.692749,9169
1659440662.735302,9200
1659440662.777855,9238
1659440662.816477,9268
1659440662.8551,9305
1659440662.893722,9333
1659440662.932003,9369
1659440662.970283,9393
1659440663.008564,9380
1659440663.050604,9272
1659440663.092644,9167
1659440663.130925,9119
1659440663.169206,9114
1659440663.207486,9119
1659440663.249014,9135
1659440663.290542,9164
1659440663.329848,9187
1659440663.369154,9203
1659440663.40846,9212
1659440663.449475,9233
1659440663.490489,9254
1659440663.529112,9282
1659440663.567734,9310
1659440663.606357,9340
1659440663.64891,9364
1659440663.691463,9393
1659440663.730085,9416
1659440663.768708,9415
1659440663.80733,9327
1659440663.851079,9261
1659440663.894829,9238
1659440663.938578,9236
1659440663.971903,9260
1659440664.005227,9279
1659440664.049318,9305
1659440664.093409,9340
1659440664.137501,9344
1659440664.179028,9365
1659440664.220556,9383
1659440664.25952,9419
1659440664.298484,9446
1659440664.337448,9480
1659440664.376413,9507
1659440664.415377,9537
1659440664.454341,9572
1659440664.495356,9588
1659440664.536371,9575
1659440664.57636,9534
1659440664.61635,9482
1659440664.65634,9470
1659440664.697867,9479
1659440664.739395,9498
1659440664.778017,9514
1659440664.81664,9551
1659440664.855262,9584
1659440664.894226,9592
1659440664.933191,9601
1659440664.972155,9591
1659440665.014195,9601
1659440665.056236,9657
1659440665.094516,9691
1659440665.132797,9714
1659440665.171077,9737
1659440665.212605,9767
1659440665.254133,9787
1659440665.292755,9807
1659440665.331378,9809
1659440665.37,9731
1659440665.412553,9637
1659440665.455106,9582
1659440665.493728,9547
1659440665.532351,9528
1659440665.570973,9534
1659440665.613014,9539
1659440665.655054,9582
1659440665.699487,9604
1659440665.74392,9608
1659440665.788352,9621
1659440665.827317,9628
1659440665.866281,9643
1659440665.905245,9662
1659440665.947798,9674
1659440665.990351,9693
1659440666.028632,9715
1659440666.066912,9734
1659440666.105193,9747
1659440666.146208,9732
1659440666.187223,9657
1659440666.226187,9522
1659440666.265151,9429
1659440666.304116,9341
1659440666.342396,9314
1659440666.380677,9424
1659440666.418957,9832
1659440666.460998,10484
1659440666.503038,10931
1659440666.541319,11192
1659440666.579599,11367
1659440666.61788,11494
1659440666.657186,11619
1659440666.696492,11851
1659440666.735798,12177
1659440666.776813,12387
1659440666.817828,12528
1659440666.856792,12627
1659440666.895756,12619
1659440666.93472,12486
1659440666.977273,12383
1659440667.019826,12190
1659440667.058107,11878
1659440667.096388,11627
1659440667.134668,11498
1659440667.17517,11410
1659440667.215673,11266
1659440667.260106,11122
1659440667.304538,11054
1659440667.348971,11006
1659440667.387252,10957
1659440667.425533,10921
1659440667.463813,10896
1659440667.505341,10865
1659440667.546869,10852
1659440667.585833,10842
1659440667.624797,10829
1659440667.663761,10824
1659440667.703546,10815
1659440667.74333,10781
1659440667.783115,10648
1659440667.822899,10465
1659440667.862684,10323
1659440667.902673,10243
1659440667.942663,10183
1659440667.982652,10145
1659440668.023667,10117
1659440668.064682,10086
1659440668.103647,10063
1659440668.142611,10025
1659440668.181575,9992
1659440668.220539,9986
1659440668.259503,9988
1659440668.298468,9987
1659440668.340508,10001
1659440668.382548,10011
1659440668.421171,10004
1659440668.459793,10010
1659440668.498415,9989
1659440668.539943,9880
1659440668.581471,9714
1659440668.619751,9592
1659440668.658032,9537
1659440668.696313,9498
1659440668.738866,9494
1659440668.781419,9499
1659440668.826193,9515
1659440668.870968,9530
1659440668.915743,9526
1659440668.948555,9530
1659440668.981367,9547
1659440669.025458,9587
1659440669.069549,9609
1659440669.11364,9655
1659440669.152946,9695
1659440669.192252,9729
1659440669.231558,9767
1659440669.273085,9804
1659440669.314613,9829
1659440669.352894,9811
1659440669.391174,9661
1659440669.429455,9534
1659440669.470983,9465
1659440669.51251,9430
1659440669.551133,9413
1659440669.589755,9422
1659440669.628377,9451
1659440669.666658,9477
1659440669.704939,9501
1659440669.743219,9501
1659440669.785772,9516
1659440669.828325,9543
1659440669.866606,9583
1659440669.904887,9611
1659440669.943167,9652
1659440669.98179,9698
1659440670.020412,9739
1659440670.059035,9774
1659440670.100562,9796
1659440670.14209,9755
1659440670.181054,9627
1659440670.220018,9534
1659440670.258982,9502
1659440670.301023,9500
1659440670.343063,9518
1659440670.387838,9553
1659440670.432612,9583
1659440670.477387,9609
1659440670.509686,9623
1659440670.541986,9633
1659440670.586077,9659
1659440670.630168,9685
1659440670.674259,9729
1659440670.712881,9750
1659440670.751504,9790
1659440670.790126,9820
1659440670.832166,9849
1659440670.874207,9857
1659440670.912487,9762
1659440670.950768,9659
1659440670.989048,9595
1659440671.031089,9591
1659440671.073129,9593
1659440671.112093,9619
1659440671.151058,9659
1659440671.190022,9701
1659440671.229328,9725
1659440671.268634,9747
1659440671.30794,9775
1659440671.349468,9790
1659440671.390995,9835
1659440671.430301,9873
1659440671.469607,9908
1659440671.508913,9949
1659440671.549928,9986
1659440671.590943,10022
1659440671.630249,10072
1659440671.669555,10024
1659440671.708861,9910
1659440671.749876,9826
1659440671.790891,9778
1659440671.829855,9775
1659440671.868819,9784
1659440671.907784,9818
1659440671.948286,9854
1659440671.988788,9896
1659440672.028436,9915
1659440672.068084,9929
1659440672.107731,9958
1659440672.152164,9981
1659440672.196597,10022
1659440672.24103,10053
1659440672.273842,10088
1659440672.306654,10124
1659440672.351429,10165
1659440672.396203,10203
1659440672.440978,10227
1659440672.475328,10220
1659440672.509678,10107
1659440672.553769,10000
1659440672.59786,9952
1659440672.641951,9928
1659440672.680574,9932
1659440672.719196,9960
1659440672.757818,9987
1659440672.799346,10000
1659440672.840874,10009
1659440672.878813,10000
1659440672.916751,10018
1659440672.95469,10038
1659440672.996474,10056
1659440673.038258,10083
1659440673.080042,10112
1659440673.121826,10135
1659440673.160107,10161
1659440673.198387,10165
1659440673.236668,10124
1659440673.275632,9993
1659440673.314596,9861
1659440673.353561,9797
1659440673.395601,9775
1659440673.437641,9778
1659440673.476264,9792
1659440673.514886,9831
1659440673.553509,9838
1659440673.594523,9835
1659440673.635539,9843
1659440673.675186,9851
1659440673.714834,9874
1659440673.754482,9901
1659440673.792763,9923
1659440673.831043,9958
1659440673.869324,9981
1659440673.911877,10020
1659440673.95443,10042
1659440673.993052,9962
1659440674.031675,9829
1659440674.070297,9730
1659440674.111312,9695
1659440674.152327,9664
1659440674.196076,9661
1659440674.239825,9701
1659440674.283575,9737
1659440674.317925,9734
1659440674.352275,9712
1659440674.397049,9708
1659440674.441824,9708
1659440674.486599,9724
1659440674.519411,9750
1659440674.552223,9764
1659440674.596997,9783
1659440674.641772,9808
1659440674.686547,9839
1659440674.725853,9846
1659440674.765159,9774
1659440674.804465,9633
1659440674.845992,9533
1659440674.88752,9498
1659440674.926484,9470
1659440674.965448,9477
1659440675.004413,9507
1659440675.042693,9543
1659440675.080974,9572
1659440675.119254,9547
1659440675.160269,9539
1659440675.201284,9540
1659440675.239907,9558
1659440675.278529,9578
1659440675.317152,9609
1659440675.359705,9635
1659440675.402258,9641
1659440675.44088,9664
1659440675.479502,9656
1659440675.518125,9534
1659440675.559653,9365
1659440675.60118,9244
1659440675.640144,9196
1659440675.679109,9175
1659440675.718073,9164
1659440675.760113,9171
1659440675.802153,9226
1659440675.840776,9247
1659440675.879398,9233
1659440675.918021,9243
1659440675.959548,9262
1659440676.001076,9296
1659440676.04004,9307
1659440676.079004,9336
1659440676.117969,9339
1659440676.161718,9346
1659440676.205467,9362
1659440676.249217,9366
1659440676.288522,9288
1659440676.327828,9158
1659440676.367134,9072
1659440676.408662,9041
1659440676.45019,9036
1659440676.48847,9074
1659440676.526751,9104
1659440676.565032,9109
1659440676.607072,9096
1659440676.649112,9084
1659440676.688418,9080
1659440676.727724,9089
1659440676.76703,9098
1659440676.805653,9106
1659440676.844275,9109
1659440676.882897,9121
1659440676.924938,9125
1659440676.966978,9124
1659440677.006284,9057
1659440677.04559,8924
1659440677.084896,8832
1659440677.126424,8793
1659440677.167951,8791
1659440677.206916,8812
1659440677.24588,8861
1659440677.284844,8895
1659440677.325859,8923
1659440677.366874,8940
1659440677.404813,8989
1659440677.442752,9051
1659440677.48069,9096
1659440677.522731,9173
1659440677.564771,9228
1659440677.604077,9296
1659440677.643383,9338
1659440677.682689,9392
1659440677.727122,9385
1659440677.771555,9339
1659440677.815988,9333
1659440677.857515,9344
1659440677.899043,9377
1659440677.938691,9428
1659440677.978338,9465
1659440678.017986,9482
1659440678.059514,9503
1659440678.101042,9517
1659440678.139664,9515
1659440678.178287,9522
1659440678.216909,9526
1659440678.256693,9527
1659440678.296478,9531
1659440678.336262,9527
1659440678.376047,9537
1659440678.415831,9482
1659440678.454454,9394
1659440678.493076,9352
1659440678.531699,9348
1659440678.570321,9358
1659440678.608943,9369
1659440678.647566,9410
1659440678.689094,9428
1659440678.730621,9441
1659440678.769243,9462
1659440678.807866,9470
1659440678.846488,9481
1659440678.888529,9505
1659440678.930569,9523
1659440678.969192,9527
1659440679.007814,9553
1659440679.046436,9541
1659440679.088477,9461
1659440679.130517,9359
1659440679.169481,9293
1659440679.208445,9265
1659440679.24741,9276
1659440679.288937,9284
1659440679.330465,9313
1659440679.374214,9331
1659440679.417964,9338
1659440679.461713,9337
1659440679.500677,9350
1659440679.539641,9362
1659440679.578605,9362
1659440679.620646,9379
1659440679.662686,9389
1659440679.700967,9399
1659440679.739247,9360
1659440679.777528,9285
1659440679.819056,9252
1659440679.860583,9231
1659440679.899547,9223
1659440679.938512,9227
1659440679.977476,9238
1659440680.01644,9237
1659440680.055404,9229
1659440680.094368,9236
1659440680.136409,9249
1659440680.178449,9276
1659440680.217413,9264
1659440680.256377,9273
1659440680.295342,9303
1659440680.336869,9333
1659440680.378397,9292
1659440680.417703,9198
1659440680.457009,9127
1659440680.496315,9070
1659440680.535621,9026
1659440680.574927,9016
1659440680.614233,9021
1659440680.654222,9054
1659440680.694212,9103
1659440680.732835,9136
1659440680.771457,9148
1659440680.810079,9163
1659440680.85212,9191
1659440680.89416,9208
1659440680.938251,9218
1659440680.982342,9224
1659440681.026433,9168
1659440681.059758,9014
1659440681.093082,8904
1659440681.137857,8858
1659440681.182632,8835
1659440681.227407,8840
1659440681.261244,8858
1659440681.295081,8878
1659440681.339172,8895
1659440681.383263,8892
1659440681.427354,8906
1659440681.466319,8911
1659440681.505283,8944
1659440681.544247,8947
1659440681.585262,8970
1659440681.626277,8990
1659440681.664557,9006
1659440681.702838,9029
1659440681.741119,8988
1659440681.780083,8886
1659440681.819047,8811
1659440681.858011,8821
1659440681.900052,8862
1659440681.942092,8879
1659440681.980031,8922
1659440682.01797,8967
1659440682.055909,8993
1659440682.097436,9031
1659440682.138964,9038
1659440682.17827,9056
1659440682.217576,9099
1659440682.256882,9122
1659440682.295162,9152
1659440682.333443,9192
1659440682.371724,9214
1659440682.414277,9234
1659440682.45683,9259
1659440682.498357,9247
1659440682.539885,9154
1659440682.577824,9053
1659440682.615763,9007
1659440682.653702,8990
1659440682.698134,8992
1659440682.742567,9001
1659440682.787,9017
1659440682.820837,9025
1659440682.854675,9020
1659440682.898766,9010
1659440682.942857,9014
1659440682.986948,9019
1659440683.01976,9025
1659440683.052572,9052
1659440683.097347,9065
1659440683.142121,9098
1659440683.186896,9125
1659440683.225177,9135
1659440683.263457,9111
1659440683.301738,9029
1659440683.343778,8988
1659440683.385818,8995
1659440683.425466,9007
1659440683.465114,9034
1659440683.504762,9062
1659440683.546289,9096
1659440683.587817,9114
1659440683.629345,9129
1659440683.670872,9145
1659440683.71052,9158
1659440683.750168,9185
1659440683.789816,9222
1659440683.830831,9242
1659440683.871846,9259
1659440683.910126,9274
1659440683.948407,9259
1659440683.986688,9178
1659440684.02531,9135
1659440684.063932,9126
1659440684.102555,9138
1659440684.144595,9161
1659440684.186635,9189
1659440684.224916,9210
1659440684.263197,9213
1659440684.301477,9213
1659440684.340783,9218
1659440684.380089,9227
1659440684.419395,9247
1659440684.460923,9253
1659440684.502451,9282
1659440684.541415,9301
1659440684.580379,9305
1659440684.619343,9226
1659440684.660871,9143
1659440684.702399,9099
1659440684.744439,9082
1659440684.786479,9080
1659440684.82476,9092
1659440684.86304,9116
1659440684.901321,9126
1659440684.945412,9131
1659440684.989503,9147
1659440685.033594,9159
1659440685.066919,9180
1659440685.100244,9213
1659440685.144335,9229
1659440685.188426,9256
1659440685.232517,9266
1659440685.271139,9259
1659440685.309762,9184
1659440685.348384,9119
1659440685.390424,9075
1659440685.432465,9069
1659440685.471429,9070
1659440685.510393,9075
1659440685.549357,9105
1659440685.590885,9125
1659440685.632413,9126
1659440685.671377,9144
1659440685.710341,9149
1659440685.749305,9168
1659440685.788611,9177
1659440685.827917,9203
1659440685.867223,9219
1659440685.908751,9250
1659440685.950279,9253
1659440685.989584,9193
1659440686.02889,9099
1659440686.068197,9028
1659440686.109724,9005
1659440686.151252,9007
1659440686.189532,9013
1659440686.227813,9027
1659440686.266094,9061
1659440686.308134,9072
1659440686.350174,9074
1659440686.38948,9077
1659440686.428786,9095
1659440686.468092,9105
1659440686.511842,9134
1659440686.555591,9141
1659440686.59934,9159
1659440686.633178,9163
1659440686.667015,9084
1659440686.711106,8994
1659440686.755197,8948
1659440686.799288,8943
1659440686.832613,8946
1659440686.865937,8982
1659440686.910712,9027
1659440686.955487,9058
1659440687.000261,9081
1659440687.039909,9093
1659440687.079557,9108
1659440687.119205,9124
1659440687.159707,9146
1659440687.200209,9173
1659440687.238832,9209
1659440687.277454,9252
1659440687.316077,9275
1659440687.354699,9235
1659440687.393321,9132
1659440687.431944,9063
1659440687.473471,9051
1659440687.514999,9035
1659440687.553621,9037
1659440687.592244,9074
1659440687.630866,9107
1659440687.66983,9140
1659440687.708795,9157
1659440687.747759,9174
1659440687.788774,9197
1659440687.829789,9226
1659440687.872342,9265
1659440687.914895,9321
1659440687.953517,9417
1659440687.99214,9510
1659440688.030762,9590
1659440688.075195,9645
1659440688.119628,9716
1659440688.164061,9736
1659440688.19636,9740
1659440688.228659,9739
1659440688.273092,9776
1659440688.317525,9851
1659440688.361958,9876
1659440688.39477,9905
1659440688.427582,9951
1659440688.471673,9963
1659440688.515764,9989
1659440688.559855,10002
1659440688.598819,10021
1659440688.637783,10037
1659440688.676748,10043
1659440688.718275,10016
1659440688.759803,10009
1659440688.800203,10017
1659440688.840602,10013
1659440688.881002,9991
1659440688.921402,9891
1659440688.961802,9780
1659440689.000424,9760
1659440689.039046,9777
1659440689.077669,9809
1659440689.119709,9828
1659440689.161749,9852
1659440689.201055,9852
1659440689.240361,9845
1659440689.279667,9883
1659440689.31829,9928
1659440689.356912,9995
1659440689.395535,10038
1659440689.43655,10071
1659440689.477565,10100
1659440689.516529,10102
1659440689.555493,10075
1659440689.594457,9974
1659440689.636497,9858
1659440689.678538,9774
1659440689.717502,9712
1659440689.756466,9675
1659440689.79543,9651
1659440689.836445,9663
1659440689.87746,9683
1659440689.917108,9671
1659440689.956756,9662
1659440689.996404,9644
1659440690.037419,9647
1659440690.078434,9658
1659440690.123208,9663
1659440690.167983,9675
1659440690.212758,9677
1659440690.251722,9698
1659440690.290686,9674
1659440690.32965,9576
1659440690.368273,9462
1659440690.406895,9406
1659440690.445518,9408
1659440690.486532,9420
1659440690.527547,9454
1659440690.56617,9495
1659440690.604792,9539
1659440690.643414,9559
1659440690.684942,9591
1659440690.72647,9608
1659440690.765092,9608
1659440690.803715,9633
1659440690.842337,9662
1659440690.88096,9701
1659440690.919582,9741
1659440690.958204,9770
1659440690.999732,9784
1659440691.04126,9759
1659440691.07954,9634
1659440691.117821,9527
1659440691.156101,9487
1659440691.199167,9474
1659440691.242233,9490
1659440691.280855,9518
1659440691.319478,9561
1659440691.3581,9597
1659440691.399115,9608
1659440691.44013,9604
1659440691.479436,9587
1659440691.518742,9595
1659440691.558048,9602
1659440691.600088,9616
1659440691.642129,9657
1659440691.685878,9677
1659440691.729627,9674
1659440691.773377,9572
1659440691.812341,9384
1659440691.851305,9266
1659440691.890269,9222
1659440691.931797,9213
1659440691.973325,9238
1659440692.011605,9271
1659440692.049886,9298
1659440692.088166,9322
1659440692.127814,9358
1659440692.167462,9391
1659440692.20711,9420
1659440692.24915,9442
1659440692.29119,9462
1659440692.329471,9494
1659440692.367752,9507
1659440692.406032,9536
1659440692.448585,9513
1659440692.491138,9426
1659440692.530102,9289
1659440692.569067,9205
1659440692.608031,9184
1659440692.646653,9182
1659440692.685276,9219
1659440692.723898,9268
1659440692.765426,9296
1659440692.806953,9320
1659440692.845918,9322
1659440692.884882,9319
1659440692.923846,9335
1659440692.965374,9367
1659440693.006901,9396
1659440693.045866,9435
1659440693.08483,9486
1659440693.123794,9500
1659440693.165322,9520
1659440693.206849,9450
1659440693.25094,9313
1659440693.295031,9209
1659440693.339123,9166
1659440693.372447,9157
1659440693.405772,9167
1659440693.450888,9188
1659440693.496005,9218
1659440693.541121,9239
1659440693.579402,9247
1659440693.617682,9253
1659440693.655963,9270
1659440693.698003,9276
1659440693.740044,9276
1659440693.778324,9269
1659440693.816605,9232
1659440693.854886,9253
1659440693.896926,9276
1659440693.938966,9267
1659440693.976905,9157
1659440694.014844,9039
1659440694.052783,8997
1659440694.092157,8978
1659440694.131531,9021
1659440694.170906,9062
1659440694.21028,9137
1659440694.249655,9243
1659440694.291695,9289
1659440694.333735,9316
1659440694.372699,9334
1659440694.411664,9394
1659440694.450628,9449
1659440694.492155,9492
1659440694.533683,9501
1659440694.572305,9490
1659440694.610928,9489
1659440694.64955,9382
1659440694.688514,9223
1659440694.727479,9123
1659440694.766443,9087
1659440694.808483,9086
1659440694.850523,9116
1659440694.889146,9158
1659440694.927768,9168
1659440694.966391,9163
1659440695.006893,9166
1659440695.047395,9162
1659440695.086701,9194
1659440695.126007,9191
1659440695.165313,9202
1659440695.207354,9220
1659440695.249394,9225
1659440695.287675,9184
1659440695.325955,9078
1659440695.364236,8993
1659440695.406276,8907
1659440695.448317,8847
1659440695.493091,8801
1659440695.537866,8787
1659440695.58264,8796
1659440695.621605,8820
1659440695.660569,8826
1659440695.699533,8856
1659440695.742086,8869
1659440695.784639,8905
1659440695.823261,8956
1659440695.861884,9000
1659440695.900506,9008
1659440695.942034,8919
1659440695.983562,8796
1659440696.022526,8706
1659440696.06149,8691
1659440696.100454,8678
1659440696.139077,8683
1659440696.177699,8697
1659440696.216321,8696
1659440696.257849,8696
1659440696.299377,8700
1659440696.338341,8711
1659440696.377305,8718
1659440696.416269,8724
1659440696.457284,8738
1659440696.498299,8761
1659440696.53658,8789
1659440696.574861,8760
1659440696.613141,8667
1659440696.652789,8589
1659440696.692437,8569
1659440696.732085,8591
1659440696.774125,8627
1659440696.816165,8665
1659440696.854446,8717
1659440696.892726,8749
1659440696.931007,8766
1659440696.973047,8756
1659440697.015088,8755
1659440697.059521,8765
1659440697.103953,8809
1659440697.148386,8834
1659440697.187009,8856
1659440697.225631,8885
1659440697.264254,8883
1659440697.304756,8809
1659440697.345258,8750
1659440697.384222,8751
1659440697.423187,8794
1659440697.462151,8854
1659440697.50009,8924
1659440697.538028,9026
1659440697.575967,9141
1659440697.61852,9208
1659440697.661073,9264
1659440697.700037,9320
1659440697.739002,9356
1659440697.777966,9395
1659440697.816588,9446
1659440697.855211,9513
1659440697.893833,9575
1659440697.935361,9660
1659440697.976888,9680
1659440698.016194,9643
1659440698.055501,9592
1659440698.094806,9551
1659440698.136334,9551
1659440698.177862,9596
1659440698.216826,9637
1659440698.25579,9717
1659440698.294754,9792
1659440698.335769,9866
1659440698.376784,9949
1659440698.415407,10018
1659440698.454029,10095
1659440698.492651,10193
1659440698.534692,10311
1659440698.576732,10428
1659440698.621507,10558
1659440698.666281,10673
1659440698.711056,10653
1659440698.749679,10509
1659440698.788301,10402
1659440698.826923,10313
1659440698.868964,10232
1659440698.911004,10184
1659440698.95031,10145
1659440698.989616,10115
1659440699.028922,10104
1659440699.07045,10068
1659440699.111977,10047
1659440699.1506,10038
1659440699.189222,10035
1659440699.227844,10025
1659440699.269885,10021
1659440699.311925,10015
1659440699.350548,9982
1659440699.38917,9938
1659440699.427792,9886
1659440699.466415,9862
1659440699.505037,9871
1659440699.54366,9856
1659440699.5857,9863
1659440699.62774,9886
1659440699.666704,9930
1659440699.705669,9964
1659440699.744633,9993
1659440699.785135,10048
1659440699.825638,10071
1659440699.864602,10115
1659440699.903566,10154
1659440699.94253,10217
1659440699.984058,10221
1659440700.025585,10180
1659440700.06455,10166
1659440700.103514,10177
1659440700.142478,10201
1659440700.184006,10216
1659440700.225533,10255
1659440700.264498,10258
1659440700.303462,10249
1659440700.342426,10239
1659440700.386175,10230
1659440700.429924,10234
1659440700.473674,10238
1659440700.506998,10220
1659440700.540323,10206
1659440700.584414,10180
1659440700.628505,10130
1659440700.672596,10079
1659440700.711219,10056
1659440700.749841,10024
1659440700.788464,9987
1659440700.828966,9960
1659440700.869468,9970
1659440700.909458,10012
1659440700.949447,10120
1659440700.989437,10239
1659440701.030964,10350
1659440701.072492,10474
1659440701.111115,10562
1659440701.149737,10617
1659440701.188359,10635
1659440701.228007,10618
1659440701.267655,10582
1659440701.307303,10569
1659440701.349343,10561
1659440701.391383,10574
1659440701.430006,10596
1659440701.468628,10601
1659440701.507251,10610
1659440701.549291,10618
1659440701.591331,10618
1659440701.629612,10616
1659440701.667892,10622
1659440701.706173,10637
1659440701.747701,10626
1659440701.789228,10633
1659440701.828534,10622
1659440701.86784,10594
1659440701.907146,10566
1659440701.948418,10556
1659440701.989689,10581
1659440702.03096,10590
1659440702.072232,10588
1659440702.111538,10600
1659440702.150844,10606
1659440702.19015,10593
1659440702.23219,10590
1659440702.27423,10599
1659440702.312853,10613
1659440702.351475,10680
1659440702.390097,10690
1659440702.432138,10658
1659440702.474178,10610
1659440702.513484,10578
1659440702.55279,10561
1659440702.592096,10532
1659440702.633111,10508
1659440702.674126,10486
1659440702.712407,10482
1659440702.750687,10479
1659440702.788968,10476
1659440702.833743,10464
1659440702.878517,10472
1659440702.923292,10462
1659440702.956104,10479
1659440702.988916,10473
1659440703.033007,10458
1659440703.077098,10419
1659440703.121189,10373
1659440703.162717,10348
1659440703.204244,10329
1659440703.242867,10334
1659440703.281489,10318
1659440703.320112,10312
1659440703.358734,10298
1659440703.397357,10283
1659440703.435979,10281
1659440703.478532,10273
1659440703.521085,10254
1659440703.559707,10255
1659440703.59833,10247
1659440703.636952,10232
1659440703.675575,10189
1659440703.714197,10121
1659440703.752819,10065
1659440703.794347,10038
1659440703.835875,10035
1659440703.874497,10023
1659440703.91312,10014
1659440703.951742,9990
1659440703.993269,9957
1659440704.034797,9946
1659440704.07342,9923
1659440704.112042,9917
1659440704.150664,9915
1659440704.191679,9924
1659440704.232694,9925
1659440704.272,9924
1659440704.311306,9862
1659440704.350612,9796
1659440704.39214,9744
1659440704.433668,9721
1659440704.473315,9704
1659440704.512963,9699
1659440704.552611,9702
1659440704.595882,9692
1659440704.639153,9684
1659440704.682423,9667
1659440704.725694,9658
1659440704.768965,9652
1659440704.807587,9656
1659440704.84621,9653
1659440704.884832,9652
1659440704.923455,9642
1659440704.962077,9630
1659440705.000699,9572
1659440705.04274,9493
1659440705.08478,9459
1659440705.123744,9446
1659440705.162708,9440
1659440705.201673,9434
1659440705.242687,9462
1659440705.283703,9480
1659440705.322667,9473
1659440705.361631,9484
1659440705.400595,9510
1659440705.440243,9524
1659440705.479891,9533
1659440705.519538,9540
1659440705.561066,9550
1659440705.602594,9542
1659440705.640874,9552
1659440705.679155,9541
1659440705.717436,9490
1659440705.759989,9426
1659440705.802542,9412
1659440705.841164,9406
1659440705.879786,9420
1659440705.918409,9439
1659440705.959424,9455
1659440706.000439,9464
1659440706.039403,9448
1659440706.078367,9439
1659440706.117332,9428
1659440706.158346,9429
1659440706.199361,9449
1659440706.243111,9471
1659440706.28686,9498
1659440706.330609,9502
1659440706.369915,9442
1659440706.409221,9378
1659440706.448527,9356
1659440706.490055,9366
1659440706.531583,9374
1659440706.569863,9382
1659440706.608144,9381
1659440706.646424,9371
1659440706.685389,9362
1659440706.724353,9352
1659440706.763317,9360
1659440706.80587,9360
1659440706.848423,9363
1659440706.886704,9364
1659440706.924984,9365
1659440706.963265,9365
1659440707.005305,9326
1659440707.047346,9247
1659440707.085968,9176
1659440707.12459,9164
1659440707.163213,9155
1659440707.201494,9160
1659440707.239774,9185
1659440707.278055,9184
1659440707.320095,9187
1659440707.362135,9196
1659440707.400758,9199
1659440707.43938,9211
1659440707.478003,9219
1659440707.518505,9237
1659440707.559007,9248
1659440707.598313,9245
1659440707.637619,9241
1659440707.676925,9170
1659440707.719478,9130
1659440707.762031,9117
1659440707.806464,9111
1659440707.850897,9122
1659440707.89533,9140
1659440707.934294,9137
1659440707.973258,9145
1659440708.012222,9147
1659440708.054263,9156
1659440708.096303,9197
1659440708.134584,9215
1659440708.172864,9242
1659440708.211145,9263
1659440708.249767,9259
1659440708.28839,9224
1659440708.327012,9137
1659440708.369565,9071
1659440708.412118,9033
1659440708.450399,9023
1659440708.488679,9028
1659440708.52696,9020
1659440708.565583,9040
1659440708.604205,9025
1659440708.642827,9028
1659440708.684868,9029
1659440708.726908,9017
1659440708.765872,9025
1659440708.804836,9049
1659440708.843801,9064
1659440708.885328,9085
1659440708.926856,9075
1659440708.96582,9028
1659440709.004784,8973
1659440709.043748,8965
1659440709.085789,8980
1659440709.127829,9008
1659440709.17192,9047
1659440709.216011,9092
1659440709.260102,9129
1659440709.29394,9147
1659440709.327777,9156
1659440709.371868,9170
1659440709.415959,9208
1659440709.46005,9241
1659440709.498331,9255
1659440709.536612,9269
1659440709.574892,9260
1659440709.615907,9202
1659440709.656922,9113
1659440709.696228,9075
1659440709.735534,9064
1659440709.77484,9056
1659440709.815855,9068
1659440709.85687,9086
1659440709.896654,9085
1659440709.936439,9078
1659440709.976223,9075
1659440710.016008,9069
1659440710.055792,9074
1659440710.098346,9090
1659440710.140898,9093
1659440710.179521,9089
1659440710.218143,9041
1659440710.256766,8963
1659440710.296413,8903
1659440710.336061,8876
1659440710.375709,8873
1659440710.416724,8877
1659440710.457739,8886
1659440710.496703,8895
1659440710.535667,8889
1659440710.574632,8882
1659440710.615647,8869
1659440710.656662,8865
1659440710.695626,8877
1659440710.73459,8876
1659440710.773554,8876
1659440710.811493,8876
1659440710.849432,8828
1659440710.887371,8731
1659440710.930436,8686
1659440710.973502,8664
1659440711.012466,8662
1659440711.05143,8685
1659440711.090395,8706
1659440711.13141,8737
1659440711.172425,8781
1659440711.21173,8824
1659440711.251037,8840
1659440711.290343,8856
1659440711.332896,8852
1659440711.375448,8836
1659440711.41954,8858
1659440711.463631,8872
1659440711.507722,8883
1659440711.540534,8880
1659440711.573346,8809
1659440711.617779,8709
1659440711.662211,8649
1659440711.706644,8635
1659440711.744583,8598
1659440711.782522,8560
1659440711.820461,8532
1659440711.862501,8488
1659440711.904541,8454
1659440711.943847,8427
1659440711.983154,8432
1659440712.02246,8453
1659440712.06074,8515
1659440712.099021,8570
1659440712.137301,8623
1659440712.179342,8679
1659440712.221382,8713
1659440712.260346,8690
1659440712.29931,8629
1659440712.338275,8607
1659440712.379802,8628
1659440712.42133,8652
1659440712.459952,8693
1659440712.498575,8742
1659440712.537197,8771
1659440712.576503,8798
1659440712.615809,8817
1659440712.655115,8813
1659440712.695617,8806
1659440712.73612,8816
1659440712.774742,8815
1659440712.813365,8811
1659440712.851987,8787
1659440712.89454,8717
1659440712.937093,8632
1659440712.981184,8562
1659440713.025275,8537
1659440713.069366,8530
1659440713.101665,8525
1659440713.133965,8532
1659440713.179081,8527
1659440713.224198,8522
1659440713.269314,8507
1659440713.302126,8501
1659440713.334938,8494
1659440713.379713,8494
1659440713.424487,8515
1659440713.469262,8519
1659440713.508568,8524
1659440713.547874,8513
1659440713.58718,8480
1659440713.626144,8455
1659440713.665108,8462
1659440713.704072,8507
1659440713.744575,8542
1659440713.785077,8606
1659440713.824725,8649
1659440713.864373,8678
1659440713.904021,8705
1659440713.945035,8724
1659440713.98605,8750
1659440714.024673,8760
1659440714.063295,8794
1659440714.101918,8833
1659440714.14054,8871
1659440714.179163,8902
1659440714.217785,8886
1659440714.260851,8859
1659440714.303916,8858
1659440714.342539,8874
1659440714.381161,8904
1659440714.419784,8929
1659440714.461311,8958
1659440714.502839,8977
1659440714.544879,8990
1659440714.58692,9001
1659440714.626225,9005
1659440714.665531,9014
1659440714.704838,9021
1659440714.74927,9033
1659440714.793703,9028
1659440714.838136,9031
1659440714.871461,9048
1659440714.904785,9050
1659440714.948535,8987
1659440714.992284,8929
1659440715.036033,8919
1659440715.074656,8921
1659440715.113278,8967
1659440715.151901,8997
1659440715.193428,9043
1659440715.234956,9099
1659440715.276483,9137
1659440715.318011,9166
1659440715.356633,9212
1659440715.395256,9255
1659440715.433878,9293
1659440715.475406,9344
1659440715.516933,9375
1659440715.556581,9389
1659440715.596229,9383
1659440715.635877,9326
1659440715.676892,9275
1659440715.717907,9243
1659440715.756529,9246
1659440715.795152,9279
1659440715.833774,9305
1659440715.87308,9327
1659440715.912386,9330
1659440715.951692,9335
1659440715.99322,9331
1659440716.034747,9314
1659440716.073712,9308
1659440716.112676,9300
1659440716.15164,9305
1659440716.193168,9319
1659440716.234695,9325
1659440716.272634,9316
1659440716.310573,9278
1659440716.348512,9200
1659440716.387818,9145
1659440716.427124,9140
1659440716.46643,9136
1659440716.50847,9147
1659440716.55051,9182
1659440716.589133,9201
1659440716.627755,9237
1659440716.666378,9241
1659440716.708418,9256
1659440716.750458,9266
1659440716.795575,9268
1659440716.840691,9275
1659440716.885808,9279
1659440716.91862,9308
1659440716.951432,9322
1659440716.995864,9277
1659440717.040297,9201
1659440717.08473,9157
1659440717.118055,9148
1659440717.15138,9137
1659440717.195812,9141
1659440717.240245,9157
1659440717.284678,9167
1659440717.323301,9167
1659440717.361923,9170
1659440717.400545,9195
1659440717.442586,9227
1659440717.484626,9285
1659440717.522907,9345
1659440717.561187,9380
1659440717.599468,9395
1659440717.640996,9371
1659440717.682523,9332
1659440717.721829,9295
1659440717.761135,9273
1659440717.800441,9272
1659440717.839064,9274
1659440717.877686,9301
1659440717.916308,9303
1659440717.958349,9373
1659440718.000389,9380
1659440718.039695,9371
1659440718.079001,9345
1659440718.118307,9360
1659440718.156588,9411
1659440718.194868,9527
1659440718.233149,9617
1659440718.273651,9648
1659440718.314153,9621
1659440718.356194,9607
1659440718.398234,9648
1659440718.436857,9707
1659440718.475479,9735
1659440718.514101,9788
1659440718.558192,9850
1659440718.602283,9911
1659440718.646374,9965
1659440718.679699,10029
1659440718.713024,10076
1659440718.757798,10135
1659440718.802573,10202
1659440718.847348,10234
1659440718.881185,10255
1659440718.915023,10293
1659440718.959114,10287
1659440719.003205,10217
1659440719.047296,10111
1659440719.085918,10049
1659440719.124541,10006
1659440719.163163,9992
1659440719.202127,9999
1659440719.241091,10023
1659440719.280056,10040
1659440719.322096,10001
1659440719.364136,9964
1659440719.4031,9955
1659440719.442065,9956
1659440719.481029,9989
1659440719.51931,10022
1659440719.55759,10053
1659440719.595871,10082
1659440719.636886,10101
1659440719.677901,10055
1659440719.717207,9966
1659440719.756513,9922
1659440719.795819,9910
1659440719.837346,9917
1659440719.878874,9932
1659440719.923307,9944
1659440719.96774,9955
1659440720.012172,9925
1659440720.04601,9901
1659440720.079847,9890
1659440720.12428,9893
1659440720.168713,9892
1659440720.213146,9908
1659440720.24647,9900
1659440720.279795,9901
1659440720.324912,9840
1659440720.370028,9754
1659440720.415144,9692
1659440720.452314,9650
1659440720.489484,9640
1659440720.526654,9653
1659440720.563824,9682
1659440720.605351,9712
1659440720.646879,9742
1659440720.688407,9758
1659440720.729934,9766
1659440720.768215,9796
1659440720.806495,9844
1659440720.844776,9862
1659440720.886304,9904
1659440720.927831,9912
1659440720.967479,9825
1659440721.007127,9704
1659440721.046775,9620
1659440721.08779,9589
1659440721.128805,9577
1659440721.167085,9575
1659440721.205366,9579
1659440721.243647,9582
1659440721.2862,9580
1659440721.328753,9569
1659440721.367717,9559
1659440721.406681,9555
1659440721.445645,9555
1659440721.486147,9567
1659440721.52665,9566
1659440721.565272,9462
1659440721.603894,9336
1659440721.642517,9270
1659440721.68695,9204
1659440721.731383,9169
1659440721.775815,9144
1659440721.808628,9139
1659440721.841439,9137
1659440721.885872,9145
1659440721.930305,9134
1659440721.974738,9133
1659440722.008063,9160
1659440722.041387,9166
1659440722.085479,9175
1659440722.12957,9185
1659440722.173661,9164
1659440722.212967,9068
1659440722.252273,9029
1659440722.291579,9049
1659440722.333106,9088
1659440722.374634,9102
1659440722.413256,9114
1659440722.451879,9135
1659440722.490501,9160
1659440722.529465,9174
1659440722.568429,9178
1659440722.607394,9172
1659440722.649947,9175
1659440722.6925,9185
1659440722.73078,9194
1659440722.769061,9203
1659440722.807342,9220
1659440722.848357,9199
1659440722.889372,9102
1659440722.928336,8990
1659440722.9673,8954
1659440723.006264,8945
1659440723.048305,8966
1659440723.090345,8989
1659440723.128967,9013
1659440723.16759,9036
1659440723.206212,9049
1659440723.24774,9064
1659440723.289267,9090
1659440723.328232,9122
1659440723.367196,9146
1659440723.40616,9189
1659440723.450593,9228
1659440723.495026,9263
1659440723.539459,9298
1659440723.582012,9256
1659440723.624565,9156
1659440723.663187,9095
1659440723.701809,9078
1659440723.740432,9089
1659440723.781447,9119
1659440723.822462,9149
1659440723.861426,9179
1659440723.90039,9197
1659440723.939354,9185
1659440723.977977,9171
1659440724.016599,9178
1659440724.055222,9190
1659440724.096749,9219
1659440724.138277,9260
1659440724.176899,9289
1659440724.215522,9305
1659440724.254144,9245
1659440724.295672,9163
1659440724.337199,9109
1659440724.376164,9130
1659440724.415128,9145
1659440724.454092,9176
1659440724.492714,9211
1659440724.531337,9223
1659440724.569959,9204
1659440724.612512,9193
1659440724.655065,9180
1659440724.693688,9168
1659440724.73231,9173
1659440724.770933,9190
1659440724.811435,9220
1659440724.851937,9250
1659440724.890901,9237
1659440724.929866,9156
1659440724.96883,9095
1659440725.010357,9065
1659440725.051885,9074
1659440725.095976,9100
1659440725.140067,9121
1659440725.184158,9150
1659440725.217483,9166
1659440725.250808,9174
1659440725.29524,9181
1659440725.339673,9198
1659440725.384106,9214
1659440725.422729,9233
1659440725.461351,9237
1659440725.499973,9242
1659440725.542526,9240
1659440725.585079,9164
1659440725.623702,9079
1659440725.662324,9048
1659440725.700947,9050
1659440725.740936,9060
1659440725.780926,9098
1659440725.820915,9127
1659440725.860905,9140
1659440725.900895,9162
1659440725.943448,9169
1659440725.986001,9191
1659440726.023939,9224
1659440726.061878,9228
1659440726.099817,9252
1659440726.139123,9257
1659440726.178429,9235
1659440726.217735,9150
1659440726.25875,9064
1659440726.299765,9022
1659440726.339071,9006
1659440726.378377,9010
1659440726.417683,9021
1659440726.459211,9064
1659440726.500738,9080
1659440726.539702,9078
1659440726.578667,9062
1659440726.617631,9121
1659440726.658646,9182
1659440726.699661,9215
1659440726.739309,9275
1659440726.778956,9322
1659440726.818604,9335
1659440726.860645,9284
1659440726.902685,9180
1659440726.941307,9118
1659440726.97993,9098
1659440727.018552,9085
1659440727.062643,9080
1659440727.106734,9087
1659440727.150825,9110
1659440727.184663,9123
1659440727.2185,9163
1659440727.262249,9180
1659440727.305999,9205
1659440727.349748,9238
1659440727.38837,9260
1659440727.426993,9285
1659440727.465615,9308
1659440727.50663,9279
1659440727.547645,9170
1659440727.586267,9104
1659440727.62489,9088
1659440727.663512,9092
1659440727.702477,9112
1659440727.741441,9131
1659440727.780405,9169
1659440727.822958,9163
1659440727.865511,9158
1659440727.904133,9153
1659440727.942756,9164
1659440727.981378,9146
1659440728.020342,9132
1659440728.059307,9141
1659440728.098271,9142
1659440728.139286,9160
1659440728.180301,9136
1659440728.222854,9058
1659440728.265407,8975
1659440728.303687,8941
1659440728.341968,8933
1659440728.380249,8941
1659440728.425023,8953
1659440728.469798,8955
1659440728.514573,8960
1659440728.547385,8972
1659440728.580196,9008
1659440728.623946,9053
1659440728.667695,9088
1659440728.711444,9108
1659440728.745282,9120
1659440728.779119,9115
1659440728.823894,9090
1659440728.868668,9046
1659440728.913443,8934
1659440728.952065,8836
1659440728.990688,8795
1659440729.02931,8790
1659440729.070838,8803
1659440729.112365,8828
1659440729.15133,8841
1659440729.190294,8877
1659440729.229258,8914
1659440729.271298,8936
1659440729.313339,8941
1659440729.351961,8950
1659440729.390584,8965
1659440729.429206,8966
1659440729.468512,8988
1659440729.507818,8969
1659440729.547124,8891
1659440729.587626,8815
1659440729.628129,8777
1659440729.667434,8766
1659440729.706741,8769
1659440729.746047,8785
1659440729.788087,8799
1659440729.830127,8811
1659440729.868408,8813
1659440729.906688,8824
1659440729.944969,8841
1659440729.985984,8843
1659440730.026999,8860
1659440730.066988,8866
1659440730.106978,8853
1659440730.146968,8872
1659440730.187983,8846
1659440730.228998,8776
1659440730.267962,8715
1659440730.306926,8701
1659440730.34589,8704
1659440730.389981,8710
1659440730.434072,8743
1659440730.478163,8761
1659440730.519178,8798
1659440730.560193,8817
1659440730.598816,8826
1659440730.637438,8847
1659440730.676061,8878
1659440730.715025,8902
1659440730.753989,8926
1659440730.792953,8950
1659440730.833456,8971
1659440730.873958,8981
1659440730.91258,8960
1659440730.951203,8889
1659440730.989825,8873
1659440731.030225,8881
1659440731.070625,8905
1659440731.111024,8938
1659440731.151424,8963
1659440731.191824,8986
1659440731.232839,8985
1659440731.273854,9005
1659440731.313159,9007
1659440731.352466,9027
1659440731.391772,9035
1659440731.430052,9047
1659440731.468333,9072
1659440731.506613,9080
1659440731.548654,9098
1659440731.590694,9078
1659440731.629317,9023
1659440731.667939,8997
1659440731.706561,9010
1659440731.748089,9047
1659440731.789617,9090
1659440731.827897,9118
1659440731.866178,9135
1659440731.904459,9136
1659440731.947011,9142
1659440731.989564,9138
1659440732.034339,9151
1659440732.079114,9172
1659440732.123888,9187
1659440732.157213,9194
1659440732.190538,9209
1659440732.234971,9222
1659440732.279403,9232
1659440732.323836,9210
1659440732.362801,9143
1659440732.401765,9119
1659440732.440729,9117
1659440732.482257,9110
1659440732.523784,9118
1659440732.562748,9136
1659440732.601713,9164
1659440732.640677,9194
1659440732.682204,9216
1659440732.723732,9244
1659440732.762013,9253
1659440732.800293,9275
1659440732.838574,9277
1659440732.876855,9289
1659440732.915135,9311
1659440732.953416,9322
1659440732.995969,9321
1659440733.038522,9264
1659440733.076802,9182
1659440733.115083,9130
1659440733.153364,9092
1659440733.192328,9074
1659440733.231292,9074
1659440733.270257,9087
1659440733.311271,9101
1659440733.352286,9124
1659440733.394839,9124
1659440733.437392,9133
1659440733.476015,9147
1659440733.514637,9147
1659440733.55326,9157
1659440733.594787,9176
1659440733.636315,9192
1659440733.675279,9194
1659440733.714243,9210
1659440733.753207,9180
1659440733.796957,9113
1659440733.840706,9057
1659440733.884455,9041
1659440733.91778,9050
1659440733.951105,9066
1659440733.995538,9089
1659440734.03997,9109
1659440734.084403,9112
1659440734.122684,9116
1659440734.160964,9110
1659440734.199245,9132
1659440734.240773,9134
1659440734.2823,9138
1659440734.321948,9158
1659440734.361596,9182
1659440734.401244,9189
1659440734.442259,9182
1659440734.483274,9138
1659440734.521896,9075
1659440734.560519,9066
1659440734.599141,9062
1659440734.638789,9073
1659440734.678437,9097
1659440734.718084,9101
1659440734.759612,9102
1659440734.80114,9099
1659440734.840104,9088
1659440734.879068,9091
1659440734.918032,9107
1659440734.959047,9110
1659440735.000062,9118
1659440735.038343,9133
1659440735.076623,9129
1659440735.114904,9083
1659440735.159337,9016
1659440735.20377,8976
1659440735.248203,8964
1659440735.282553,8965
1659440735.316903,8968
1659440735.361336,9003
1659440735.405768,9077
1659440735.450201,9214
1659440735.489166,9421
1659440735.52813,9611
1659440735.567094,9660
1659440735.609134,9736
1659440735.651175,9808
1659440735.689455,9857
1659440735.727736,9885
1659440735.766016,9850
1659440735.804981,9756
1659440735.843945,9638
1659440735.882909,9569
1659440735.925462,9518
1659440735.968015,9493
1659440736.006296,9485
1659440736.044576,9474
1659440736.082857,9473
1659440736.124385,9460
1659440736.165912,9459
1659440736.204705,9449
1659440736.243499,9474
1659440736.282292,9510
1659440736.321085,9550
1659440736.359879,9594
1659440736.398672,9623
1659440736.439687,9604
1659440736.480702,9515
1659440736.525477,9459
1659440736.570251,9443
1659440736.615026,9443
1659440736.653307,9469
1659440736.691587,9503
1659440736.729868,9524
1659440736.771395,9522
1659440736.812923,9521
1659440736.852229,9502
1659440736.891535,9498
1659440736.930841,9521
1659440736.969464,9526
1659440737.008086,9532
1659440737.046708,9558
1659440737.087723,9554
1659440737.128738,9500
1659440737.167702,9429
1659440737.206667,9399
1659440737.245631,9393
1659440737.287158,9408
1659440737.328686,9437
1659440737.366967,9455
1659440737.405247,9474
1659440737.443528,9484
1659440737.482492,9491
1659440737.521456,9501
1659440737.560421,9517
1659440737.601948,9530
1659440737.643476,9553
1659440737.68244,9557
1659440737.721404,9555
1659440737.760369,9507
1659440737.802922,9394
1659440737.845475,9332
1659440737.890249,9294
1659440737.935024,9280
1659440737.979799,9278
1659440738.013123,9295
1659440738.046448,9297
1659440738.088232,9290
1659440738.130016,9308
1659440738.1718,9322
1659440738.213584,9333
1659440738.251864,9340
1659440738.290145,9351
1659440738.328426,9374
1659440738.367048,9373
1659440738.40567,9374
1659440738.444293,9369
1659440738.486846,9294
1659440738.529399,9191
1659440738.568363,9139
1659440738.607327,9137
1659440738.646291,9135
1659440738.687307,9157
1659440738.728322,9163
1659440738.769849,9173
1659440738.811377,9195
1659440738.851025,9191
1659440738.890672,9192
1659440738.93032,9201
1659440738.974411,9218
1659440739.018502,9249
1659440739.062593,9249
1659440739.095405,9185
1659440739.128217,9142
1659440739.173334,9156
1659440739.21845,9193
1659440739.263567,9240
1659440739.296891,9256
1659440739.330216,9270
1659440739.374307,9253
1659440739.418398,9248
1659440739.462489,9264
1659440739.501453,9284
1659440739.540418,9295
1659440739.579382,9300
1659440739.619884,9307
1659440739.660386,9298
1659440739.698667,9286
1659440739.736948,9285
1659440739.775228,9281
1659440739.814534,9285
1659440739.85384,9292
1659440739.893146,9302
1659440739.934674,9253
1659440739.976202,9118
1659440740.015166,9028
1659440740.05413,8966
1659440740.093094,8965
1659440740.135134,8981
1659440740.177175,9002
1659440740.215455,9018
1659440740.253736,9023
1659440740.292017,9027
1659440740.333544,9034
1659440740.375072,9059
1659440740.414378,9071
1659440740.453684,9098
1659440740.49299,9126
1659440740.534005,9145
1659440740.57502,9179
1659440740.613642,9159
1659440740.652265,9078
1659440740.690887,9010
1659440740.73532,8992
1659440740.779753,9001
1659440740.824186,9017
1659440740.85751,9040
1659440740.890835,9052
1659440740.934926,9064
1659440740.979017,9050
1659440741.023108,9016
1659440741.065661,9040
1659440741.108214,9162
1659440741.147178,9300
1659440741.186143,9409
1659440741.225107,9506
1659440741.264071,9554
1659440741.303035,9459
1659440741.342,9312
1659440741.384552,9212
1659440741.427105,9167
1659440741.46648,9145
1659440741.505854,9126
1659440741.545228,9105
1659440741.584603,9055
1659440741.623977,9020
1659440741.662941,9022
1659440741.701906,9024
1659440741.74087,9046
1659440741.780176,9086
1659440741.819482,9122
1659440741.858788,9162
1659440741.899803,9173
1659440741.940818,9090
1659440741.979782,8979
1659440742.018746,8944
1659440742.05771,8943
1659440742.099751,8969
1659440742.141791,9000
1659440742.180413,9033
1659440742.219036,9037
1659440742.257658,9032
1659440742.299186,9019
1659440742.340714,9023
1659440742.379336,9031
1659440742.417958,9037
1659440742.456581,9049
1659440742.501014,9065
1659440742.545447,9015
1659440742.58988,8901
1659440742.630894,8829
1659440742.671909,8807
1659440742.711215,8807
1659440742.750521,8812
1659440742.789827,8847
1659440742.83033,8864
1659440742.870832,8891
1659440742.909454,8881
1659440742.948077,8877
1659440742.986699,8889
1659440743.025321,8896
1659440743.063944,8918
1659440743.102566,8927
1659440743.144607,8930
1659440743.186647,8866
1659440743.225269,8761
1659440743.263892,8692
1659440743.302514,8638
1659440743.344042,8641
1659440743.38557,8642
1659440743.424875,8667
1659440743.464181,8697
1659440743.503488,8710
1659440743.541768,8711
1659440743.580049,8718
1659440743.61833,8740
1659440743.660882,8752
1659440743.703435,8782
1659440743.7424,8785
1659440743.781364,8809
1659440743.820328,8836
1659440743.86083,8831
1659440743.901333,8850
1659440743.945765,8874
1659440743.990198,8830
1659440744.034631,8725
1659440744.068469,8631
1659440744.102306,8582
1659440744.146055,8567
1659440744.189804,8576
1659440744.233554,8595
1659440744.266878,8628
1659440744.300203,8654
1659440744.34532,8672
1659440744.390436,8694
1659440744.435552,8700
1659440744.474175,8725
1659440744.512797,8752
1659440744.551419,8791
1659440744.59346,8810
1659440744.6355,8839
1659440744.675148,8867
1659440744.714796,8895
1659440744.754444,8921
1659440744.792382,8928
1659440744.830321,8884
1659440744.86826,8806
1659440744.909275,8754
1659440744.95029,8753
1659440744.989596,8764
1659440745.028902,8793
1659440745.068208,8816
1659440745.109736,8867
1659440745.151263,8878
1659440745.189886,8883
1659440745.228508,8907
1659440745.267131,8917
1659440745.306095,8942
1659440745.345059,8959
1659440745.384023,8978
1659440745.425038,9000
1659440745.466053,9021
1659440745.508093,9037
1659440745.550134,9061
1659440745.588756,9055
1659440745.627378,8986
1659440745.666001,8915
1659440745.710434,8907
1659440745.754867,8908
1659440745.799299,8920
1659440745.832112,8942
1659440745.864923,8969
1659440745.909698,8977
1659440745.954473,8990
1659440745.999248,8996
1659440746.03787,8999
1659440746.076492,9025
1659440746.115115,9042
1659440746.155617,9059
1659440746.196119,9078
1659440746.235084,9090
1659440746.274048,9108
1659440746.313012,9124
1659440746.351293,9124
1659440746.389573,9059
1659440746.427854,8980
1659440746.469894,8937
1659440746.511935,8925
1659440746.550899,8930
1659440746.589863,8953
1659440746.628827,8985
1659440746.670355,9015
1659440746.711882,9025
1659440746.752077,9053
1659440746.792272,9068
1659440746.832466,9081
1659440746.872661,9097
1659440746.912856,9132
1659440746.95182,9137
1659440746.990784,9168
1659440747.029748,9181
1659440747.070763,9191
1659440747.111778,9215
1659440747.150742,9201
1659440747.189707,9129
1659440747.228671,9034
1659440747.273104,8982
1659440747.317537,8970
