LocalTimestamp,PG
1659520055.210415,15705
1659520055.243696,15722
1659520055.276978,15644
1659520055.321353,15678
1659520055.365729,15796
1659520055.410105,15828
1659520055.448677,15832
1659520055.48725,15865
1659520055.525822,15899
1659520055.568321,15922
1659520055.610819,15953
1659520055.64905,15967
1659520055.687281,16007
1659520055.725513,16049
1659520055.764085,16038
1659520055.802658,16013
1659520055.84123,16004
1659520055.88168,16041
1659520055.92213,16047
1659520055.961385,16029
1659520056.000641,16009
1659520056.039896,15956
1659520056.08137,15917
1659520056.122844,15886
1659520056.161758,15874
1659520056.200672,15860
1659520056.239586,15854
1659520056.2785,15844
1659520056.317414,15864
1659520056.356328,15862
1659520056.39729,15870
1659520056.438252,15885
1659520056.48075,15884
1659520056.523248,15880
1659520056.562162,15876
1659520056.601076,15894
1659520056.63999,15891
1659520056.683683,15905
1659520056.727376,15906
1659520056.771069,15897
1659520056.80435,15911
1659520056.837632,15914
1659520056.882008,15902
1659520056.926383,15902
1659520056.970759,15908
1659520057.00404,15907
1659520057.037322,15923
1659520057.081356,15919
1659520057.125391,15924
1659520057.169425,15937
1659520057.209021,15944
1659520057.248618,15946
1659520057.288214,15949
1659520057.329177,15957
1659520057.370139,15960
1659520057.409053,15962
1659520057.447967,15962
1659520057.486881,15965
1659520057.529891,15975
1659520057.572901,15977
1659520057.611473,15990
1659520057.650046,15996
1659520057.688619,15999
1659520057.727533,15993
1659520057.766447,16007
1659520057.80536,16008
1659520057.846834,16004
1659520057.888309,16009
1659520057.927222,16007
1659520057.966136,16020
1659520058.00505,16017
1659520058.046525,16023
1659520058.087999,16028
1659520058.126913,16045
1659520058.165827,16042
1659520058.204741,16032
1659520058.245703,16039
1659520058.286664,16040
1659520058.328395,16041
1659520058.370125,16054
1659520058.411855,16055
1659520058.453585,16060
1659520058.492499,16074
1659520058.531413,16078
1659520058.570327,16085
1659520058.611801,16079
1659520058.653275,16074
1659520058.692189,16087
1659520058.731103,16089
1659520058.770017,16085
1659520058.808589,16084
1659520058.847162,16100
1659520058.885735,16087
1659520058.926184,16099
1659520058.966635,16089
1659520059.005207,16095
1659520059.04378,16105
1659520059.082352,16099
1659520059.124851,16102
1659520059.167349,16101
1659520059.20558,16115
1659520059.243811,16124
1659520059.282042,16143
1659520059.323516,16147
1659520059.36499,16141
1659520059.410049,16136
1659520059.455107,16135
1659520059.500165,16137
1659520059.533447,16139
1659520059.566729,16152
1659520059.611445,16147
1659520059.656162,16150
1659520059.700879,16155
1659520059.740134,16156
1659520059.77939,16168
1659520059.818645,16170
1659520059.859095,16176
1659520059.899545,16174
1659520059.937776,16175
1659520059.976008,16177
1659520060.014239,16190
1659520060.056737,16194
1659520060.099235,16186
1659520060.137808,16192
1659520060.17638,16202
1659520060.214953,16209
1659520060.253525,16203
1659520060.292098,16203
1659520060.330671,16208
1659520060.372145,16208
1659520060.413619,16215
1659520060.453216,16210
1659520060.492812,16206
1659520060.532409,16202
1659520060.573883,16221
1659520060.615357,16219
1659520060.654271,16212
1659520060.693185,16223
1659520060.732099,16227
1659520060.771695,16236
1659520060.811292,16233
1659520060.850889,16235
1659520060.892363,16237
1659520060.933837,16243
1659520060.975311,16249
1659520061.016785,16249
1659520061.05604,16256
1659520061.095296,16256
1659520061.134551,16254
1659520061.178244,16262
1659520061.221937,16264
1659520061.26563,16255
1659520061.298911,16270
1659520061.332193,16275
1659520061.376568,16271
1659520061.420944,16282
1659520061.465319,16282
1659520061.498089,16288
1659520061.530859,16283
1659520061.575234,16287
1659520061.61961,16294
1659520061.663985,16298
1659520061.702899,16296
1659520061.741813,16298
1659520061.780727,16314
1659520061.822713,16302
1659520061.8647,16318
1659520061.902931,16314
1659520061.941162,16320
1659520061.979393,16330
1659520062.021379,16329
1659520062.063365,16327
1659520062.101938,16330
1659520062.140511,16340
1659520062.179083,16338
1659520062.217314,16348
1659520062.255546,16347
1659520062.293777,16338
1659520062.336787,16353
1659520062.379797,16337
1659520062.418029,16350
1659520062.45626,16339
1659520062.494491,16348
1659520062.534941,16346
1659520062.575391,16362
1659520062.614988,16354
1659520062.654584,16359
1659520062.694181,16369
1659520062.736167,16373
1659520062.778153,16377
1659520062.816726,16378
1659520062.855298,16387
1659520062.893871,16394
1659520062.935857,16400
1659520062.977843,16405
1659520063.017098,16397
1659520063.056354,16414
1659520063.095609,16416
1659520063.139643,16423
1659520063.183677,16422
1659520063.227712,16418
1659520063.27021,16424
1659520063.312708,16435
1659520063.351622,16435
1659520063.390536,16422
1659520063.42945,16422
1659520063.470412,16421
1659520063.511374,16444
1659520063.550288,16436
1659520063.589202,16439
1659520063.628116,16436
1659520063.665493,16434
1659520063.702871,16439
1659520063.740249,16439
1659520063.777627,16445
1659520063.819613,16442
1659520063.861599,16450
1659520063.906658,16456
1659520063.951716,16448
1659520063.996774,16463
1659520064.029544,16458
1659520064.062313,16461
1659520064.106348,16469
1659520064.150382,16461
1659520064.194416,16442
1659520064.233671,16449
1659520064.272927,16462
1659520064.312182,16461
1659520064.354168,16463
1659520064.396154,16471
1659520064.434385,16474
1659520064.472617,16474
1659520064.510848,16463
1659520064.54942,16477
1659520064.587993,16475
1659520064.626566,16481
1659520064.667528,16473
1659520064.70849,16478
1659520064.746721,16480
1659520064.784952,16485
1659520064.823184,16486
1659520064.86517,16485
1659520064.907156,16486
1659520064.94607,16469
1659520064.984984,16468
1659520065.023897,16479
1659520065.062811,16484
1659520065.101725,16483
1659520065.140639,16493
1659520065.182113,16495
1659520065.223588,16494
1659520065.266086,16498
1659520065.308584,16501
1659520065.347839,16500
1659520065.387094,16508
1659520065.42635,16513
1659520065.4668,16512
1659520065.50725,16509
1659520065.546164,16509
1659520065.585078,16511
1659520065.623991,16521
1659520065.668026,16510
1659520065.71206,16492
1659520065.756094,16493
1659520065.789376,16491
1659520065.822658,16501
1659520065.867033,16510
1659520065.911409,16518
1659520065.955784,16504
1659520065.995039,16495
1659520066.034295,16494
1659520066.07355,16493
1659520066.114512,16502
1659520066.155474,16501
1659520066.194729,16501
1659520066.233985,16510
1659520066.27324,16506
1659520066.315738,16509
1659520066.358236,16519
1659520066.39715,16510
1659520066.436064,16503
1659520066.474978,16472
1659520066.513892,16471
1659520066.552806,16481
1659520066.59172,16485
1659520066.633194,16494
1659520066.674668,16515
1659520066.713241,16502
1659520066.751813,16507
1659520066.790386,16513
1659520066.83186,16517
1659520066.873334,16521
1659520066.912589,16506
1659520066.951845,16527
1659520066.9911,16526
1659520067.03155,16525
1659520067.072,16529
1659520067.111255,16518
1659520067.150511,16532
1659520067.189766,16532
1659520067.231752,16506
1659520067.273738,16483
1659520067.311969,16456
1659520067.350201,16459
1659520067.388432,16470
1659520067.432807,16483
1659520067.477183,16494
1659520067.521559,16495
1659520067.555352,16502
1659520067.589146,16503
1659520067.633521,16511
1659520067.677897,16508
1659520067.722272,16513
1659520067.762722,16514
1659520067.803173,16518
1659520067.842428,16520
1659520067.881683,16516
1659520067.920938,16515
1659520067.958828,16516
1659520067.996718,16530
1659520068.034608,16500
1659520068.076594,16474
1659520068.11858,16479
1659520068.157494,16486
1659520068.196408,16505
1659520068.235322,16503
1659520068.276796,16512
1659520068.31827,16514
1659520068.357184,16515
1659520068.396098,16519
1659520068.435012,16526
1659520068.474267,16538
1659520068.513523,16536
1659520068.552778,16540
1659520068.594764,16544
1659520068.63675,16545
1659520068.675323,16541
1659520068.713895,16557
1659520068.752468,16554
1659520068.793942,16554
1659520068.835416,16548
1659520068.875354,16519
1659520068.915292,16520
1659520068.95523,16531
1659520068.995168,16529
1659520069.035106,16542
1659520069.079823,16542
1659520069.12454,16547
1659520069.169257,16544
1659520069.207829,16552
1659520069.246402,16558
1659520069.284975,16567
1659520069.326449,16571
1659520069.367923,16566
1659520069.407178,16574
1659520069.446433,16580
1659520069.485689,16577
1659520069.528187,16579
1659520069.570685,16584
1659520069.609257,16585
1659520069.64783,16570
1659520069.686403,16551
1659520069.725658,16555
1659520069.764913,16572
1659520069.804169,16577
1659520069.845131,16582
1659520069.886093,16575
1659520069.924324,16576
1659520069.962555,16585
1659520070.000787,16590
1659520070.042773,16595
1659520070.084759,16587
1659520070.123331,16609
1659520070.161904,16602
1659520070.200476,16609
1659520070.239049,16618
1659520070.277622,16608
1659520070.316194,16621
1659520070.357156,16623
1659520070.398118,16616
1659520070.437374,16580
1659520070.476629,16571
1659520070.515884,16578
1659520070.557358,16580
1659520070.598832,16589
1659520070.642867,16604
1659520070.686901,16618
1659520070.730935,16609
1659520070.764217,16617
1659520070.797498,16618
1659520070.841874,16616
1659520070.88625,16625
1659520070.930625,16626
1659520070.96988,16625
1659520071.009135,16628
1659520071.048391,16635
1659520071.089865,16633
1659520071.131339,16640
1659520071.170253,16642
1659520071.209167,16624
1659520071.248081,16596
1659520071.286312,16583
1659520071.324543,16588
1659520071.362775,16601
1659520071.405273,16617
1659520071.447771,16617
1659520071.486343,16626
1659520071.524916,16638
1659520071.563489,16630
1659520071.604451,16639
1659520071.645413,16643
1659520071.684668,16638
1659520071.723923,16653
1659520071.763179,16658
1659520071.802093,16653
1659520071.841007,16657
1659520071.87992,16674
1659520071.921395,16661
1659520071.962869,16671
1659520072.007927,16641
1659520072.052985,16618
1659520072.098043,16618
1659520072.130813,16627
1659520072.163583,16640
1659520072.207958,16637
1659520072.252334,16649
1659520072.296709,16649
1659520072.330503,16648
1659520072.364297,16657
1659520072.409014,16658
1659520072.453731,16671
1659520072.498447,16662
1659520072.536337,16665
1659520072.574227,16669
1659520072.612117,16671
1659520072.654103,16678
1659520072.696089,16685
1659520072.735686,16680
1659520072.775283,16684
1659520072.814879,16671
1659520072.856353,16635
1659520072.897827,16637
1659520072.936741,16636
1659520072.975655,16652
1659520073.014569,16660
1659520073.053483,16669
1659520073.092397,16663
1659520073.131311,16668
1659520073.171761,16676
1659520073.212211,16673
1659520073.250784,16681
1659520073.289356,16688
1659520073.327929,16686
1659520073.367184,16680
1659520073.40644,16701
1659520073.445695,16692
1659520073.486145,16700
1659520073.526595,16699
1659520073.567557,16707
1659520073.608519,16699
1659520073.647433,16672
1659520073.686347,16672
1659520073.725261,16678
1659520073.769295,16690
1659520073.813329,16693
1659520073.857363,16701
1659520073.891157,16706
1659520073.924951,16704
1659520073.969668,16707
1659520074.014385,16710
1659520074.059102,16705
1659520074.096479,16716
1659520074.133857,16718
1659520074.171235,16718
1659520074.208613,16719
1659520074.25333,16729
1659520074.298047,16719
1659520074.342764,16728
1659520074.375021,16724
1659520074.407279,16715
1659520074.451313,16695
1659520074.495347,16696
1659520074.539382,16706
1659520074.578295,16717
1659520074.617209,16730
1659520074.656123,16721
1659520074.698622,16729
1659520074.74112,16730
1659520074.779351,16733
1659520074.817582,16736
1659520074.855813,16735
1659520074.897799,16739
1659520074.939785,16744
1659520074.978699,16748
1659520075.017613,16742
1659520075.056527,16755
1659520075.096124,16753
1659520075.135721,16742
1659520075.175317,16740
1659520075.216791,16718
1659520075.258265,16722
1659520075.297521,16732
1659520075.336776,16738
1659520075.376031,16747
1659520075.415969,16745
1659520075.455907,16745
1659520075.495845,16738
1659520075.535783,16745
1659520075.575721,16746
1659520075.614977,16745
1659520075.654232,16759
1659520075.693487,16762
1659520075.736839,16775
1659520075.78019,16762
1659520075.823542,16765
1659520075.864504,16779
1659520075.905466,16771
1659520075.94438,16759
1659520075.983294,16741
1659520076.022208,16736
1659520076.064194,16742
1659520076.10618,16765
1659520076.145094,16762
1659520076.184008,16760
1659520076.222922,16765
1659520076.261836,16759
1659520076.30075,16766
1659520076.339664,16766
1659520076.381138,16773
1659520076.422612,16773
1659520076.460843,16777
1659520076.499074,16777
1659520076.537305,16781
1659520076.579803,16786
1659520076.622302,16784
1659520076.660874,16775
1659520076.699447,16755
1659520076.738019,16741
1659520076.776251,16746
1659520076.814482,16762
1659520076.852713,16767
1659520076.894699,16773
1659520076.936685,16783
1659520076.975258,16778
1659520077.013831,16790
1659520077.052403,16788
1659520077.093877,16786
1659520077.135351,16798
1659520077.180068,16790
1659520077.224785,16793
1659520077.269502,16793
1659520077.302784,16804
1659520077.336065,16803
1659520077.3801,16813
1659520077.424134,16779
1659520077.468168,16760
1659520077.501962,16768
1659520077.535755,16773
1659520077.580814,16782
1659520077.625872,16786
1659520077.67093,16796
1659520077.70882,16790
1659520077.74671,16802
1659520077.7846,16799
1659520077.823855,16802
1659520077.863111,16812
1659520077.902366,16808
1659520077.940938,16808
1659520077.979511,16813
1659520078.018084,16819
1659520078.062118,16823
1659520078.106152,16817
1659520078.150186,16797
1659520078.184492,16774
1659520078.218797,16782
1659520078.263515,16781
1659520078.308231,16785
1659520078.352948,16802
1659520078.385718,16798
1659520078.418488,16803
1659520078.463546,16810
1659520078.508604,16812
1659520078.553662,16819
1659520078.592576,16819
1659520078.63149,16827
1659520078.670404,16825
1659520078.711878,16822
1659520078.753352,16825
1659520078.792266,16835
1659520078.83118,16820
1659520078.870094,16796
1659520078.908325,16786
1659520078.946557,16793
1659520078.984788,16803
1659520079.02575,16816
1659520079.066712,16823
1659520079.105284,16818
1659520079.143857,16828
1659520079.18243,16830
1659520079.224416,16830
1659520079.266402,16831
1659520079.307876,16830
1659520079.34935,16832
1659520079.390824,16833
1659520079.432298,16838
1659520079.474284,16833
1659520079.51627,16840
1659520079.554843,16816
1659520079.593416,16805
1659520079.631988,16806
1659520079.670902,16809
1659520079.709816,16817
1659520079.74873,16828
1659520079.790716,16828
1659520079.832702,16832
1659520079.871275,16836
1659520079.909847,16840
1659520079.94842,16842
1659520079.989382,16842
1659520080.030344,16846
1659520080.068917,16854
1659520080.107489,16852
1659520080.146062,16856
1659520080.187792,16850
1659520080.229522,16850
1659520080.271252,16820
1659520080.312982,16814
1659520080.353432,16818
1659520080.393882,16831
1659520080.433138,16848
1659520080.472393,16846
1659520080.511648,16846
1659520080.551245,16844
1659520080.590842,16845
1659520080.630438,16846
1659520080.6714,16857
1659520080.712362,16851
1659520080.751618,16846
1659520080.790873,16855
1659520080.830128,16851
1659520080.872114,16851
1659520080.9141,16854
1659520080.953356,16840
1659520080.992611,16831
1659520081.031866,16836
1659520081.07078,16849
1659520081.109694,16850
1659520081.148608,16853
1659520081.190082,16860
1659520081.231556,16857
1659520081.269446,16860
1659520081.307336,16857
1659520081.345226,16853
1659520081.387724,16866
1659520081.430222,16866
1659520081.469136,16864
1659520081.50805,16870
1659520081.546964,16871
1659520081.587926,16877
1659520081.628888,16850
1659520081.673264,16827
1659520081.717639,16833
1659520081.762015,16839
1659520081.79632,16849
1659520081.830626,16851
1659520081.87466,16851
1659520081.918695,16844
1659520081.962729,16864
1659520082.001302,16855
1659520082.039874,16864
1659520082.078447,16863
1659520082.119921,16872
1659520082.161395,16871
1659520082.199626,16866
1659520082.237857,16874
1659520082.276088,16866
1659520082.317563,16865
1659520082.359037,16845
1659520082.398292,16835
1659520082.437547,16858
1659520082.476803,16871
1659520082.514693,16871
1659520082.552582,16878
1659520082.590472,16869
1659520082.629386,16865
1659520082.6683,16871
1659520082.707214,16878
1659520082.752272,16881
1659520082.797331,16885
1659520082.842389,16888
1659520082.874646,16892
1659520082.906904,16893
1659520082.951621,16889
1659520082.996338,16901
1659520083.041055,16883
1659520083.083553,16868
1659520083.126051,16861
1659520083.163941,16883
1659520083.201831,16887
1659520083.239721,16895
1659520083.278293,16890
1659520083.316866,16892
1659520083.355438,16893
1659520083.396913,16892
1659520083.438387,16890
1659520083.477301,16896
1659520083.516215,16904
1659520083.555129,16896
1659520083.596603,16908
1659520083.638077,16905
1659520083.676991,16901
1659520083.715904,16913
1659520083.754818,16898
1659520083.793732,16881
1659520083.832646,16874
1659520083.87156,16888
1659520083.913546,16884
1659520083.955533,16900
1659520083.994788,16902
1659520084.034043,16899
1659520084.073298,16898
1659520084.114773,16901
1659520084.156247,16908
1659520084.195161,16898
1659520084.234074,16903
1659520084.272988,16897
1659520084.315486,16913
1659520084.357985,16911
1659520084.396899,16919
1659520084.435812,16932
1659520084.474726,16914
1659520084.515177,16908
1659520084.555627,16892
1659520084.600002,16903
1659520084.644378,16921
1659520084.688753,16918
1659520084.726985,16911
1659520084.765216,16915
1659520084.803447,16913
1659520084.841081,16911
1659520084.878715,16926
1659520084.916349,16914
1659520084.953982,16915
1659520084.994945,16920
1659520085.035907,16928
1659520085.075503,16924
1659520085.1151,16926
1659520085.154696,16924
1659520085.195658,16916
1659520085.236621,16901
1659520085.281337,16897
1659520085.326054,16908
1659520085.370771,16915
1659520085.403541,16914
1659520085.436311,16923
1659520085.480003,16923
1659520085.523696,16915
1659520085.567389,16925
1659520085.606303,16924
1659520085.645217,16928
1659520085.684131,16929
1659520085.725093,16931
1659520085.766055,16934
1659520085.804628,16936
1659520085.8432,16937
1659520085.881773,16930
1659520085.923247,16933
1659520085.964721,16906
1659520086.004318,16896
1659520086.043914,16913
1659520086.083511,16917
1659520086.122084,16922
1659520086.160656,16920
1659520086.199229,16927
1659520086.240703,16922
1659520086.282177,16937
1659520086.321774,16926
1659520086.36137,16938
1659520086.400967,16940
1659520086.439198,16940
1659520086.477429,16938
1659520086.515661,16938
1659520086.558159,16946
1659520086.600657,16947
1659520086.639571,16941
1659520086.678485,16925
1659520086.717399,16903
1659520086.758361,16921
1659520086.799323,16923
1659520086.843698,16920
1659520086.888074,16942
1659520086.932449,16934
1659520086.966755,16941
1659520087.001061,16943
1659520087.045095,16940
1659520087.089129,16939
1659520087.133163,16955
1659520087.171053,16945
1659520087.208943,16951
1659520087.246833,16951
1659520087.284723,16947
1659520087.323296,16944
1659520087.361868,16957
1659520087.400441,16943
1659520087.441403,16916
1659520087.482365,16915
1659520087.527423,16920
1659520087.572481,16948
1659520087.61754,16937
1659520087.650821,16945
1659520087.684103,16939
1659520087.727796,16947
1659520087.771489,16947
1659520087.815181,16952
1659520087.854095,16957
1659520087.893009,16953
1659520087.931923,16957
1659520087.973397,16960
1659520088.014872,16954
1659520088.052762,16963
1659520088.090651,16954
1659520088.128541,16956
1659520088.171039,16939
1659520088.213537,16922
1659520088.252451,16910
1659520088.291365,16937
1659520088.330279,16932
1659520088.368852,16941
1659520088.407424,16955
1659520088.445997,16945
1659520088.487471,16942
1659520088.528945,16949
1659520088.568201,16951
1659520088.607456,16947
1659520088.646711,16960
1659520088.688185,16953
1659520088.729659,16956
1659520088.768232,16958
1659520088.806804,16945
1659520088.845377,16960
1659520088.889753,16944
1659520088.934128,16930
1659520088.978504,16896
1659520089.010761,16909
1659520089.043019,16916
1659520089.087053,16923
1659520089.131087,16931
1659520089.175122,16936
1659520089.214377,16932
1659520089.253632,16937
1659520089.292887,16930
1659520089.334362,16926
1659520089.375836,16936
1659520089.415091,16930
1659520089.454346,16948
1659520089.493602,16937
1659520089.532516,16944
1659520089.571429,16949
1659520089.610343,16938
1659520089.649599,16940
1659520089.688854,16905
1659520089.728109,16902
1659520089.770095,16895
1659520089.812082,16913
1659520089.853555,16917
1659520089.89503,16931
1659520089.936504,16933
1659520089.977978,16933
1659520090.019964,16948
1659520090.06195,16937
1659520090.100864,16935
1659520090.139778,16941
1659520090.178692,16945
1659520090.220166,16946
1659520090.26164,16947
1659520090.299871,16953
1659520090.338102,16953
1659520090.376334,16962
1659520090.415248,16951
1659520090.454162,16922
1659520090.493076,16911
1659520090.535062,16902
1659520090.577048,16924
1659520090.615962,16932
1659520090.654876,16941
1659520090.693789,16936
1659520090.735264,16950
1659520090.776738,16947
1659520090.815993,16940
1659520090.855248,16954
1659520090.894504,16947
1659520090.933418,16950
1659520090.972332,16955
1659520091.011245,16957
1659520091.051696,16955
1659520091.092145,16954
1659520091.13362,16952
1659520091.175094,16952
1659520091.213666,16921
1659520091.252239,16912
1659520091.290812,16916
1659520091.334846,16927
1659520091.37888,16935
1659520091.422914,16940
1659520091.456708,16946
1659520091.490501,16950
1659520091.534877,16947
1659520091.579252,16960
1659520091.623628,16965
1659520091.661859,16973
1659520091.700091,16972
1659520091.738322,16969
1659520091.780308,16972
1659520091.822294,16976
1659520091.861976,16972
1659520091.901658,16978
1659520091.94134,16973
1659520091.981022,16945
1659520092.020704,16935
1659520092.060386,16928
1659520092.100068,16935
1659520092.13975,16947
1659520092.179981,16952
1659520092.220211,16954
1659520092.260442,16960
1659520092.300672,16961
1659520092.340903,16954
1659520092.381133,16959
1659520092.421364,16951
1659520092.46335,16967
1659520092.505336,16958
1659520092.547322,16972
1659520092.589309,16963
1659520092.626942,16966
1659520092.664576,16962
1659520092.70221,16975
1659520092.739844,16947
1659520092.78183,16917
1659520092.823816,16936
1659520092.862389,16939
1659520092.900961,16954
1659520092.939534,16962
1659520092.98152,16970
1659520093.023506,16957
1659520093.063103,16965
1659520093.1027,16965
1659520093.142296,16974
1659520093.182746,16978
1659520093.223196,16978
1659520093.261427,16982
1659520093.299659,16973
1659520093.33789,16979
1659520093.379364,16978
1659520093.420838,16984
1659520093.460093,16969
1659520093.499349,16947
1659520093.538604,16892
1659520093.582638,16818
1659520093.626672,16807
1659520093.670707,16814
1659520093.70962,16817
1659520093.748534,16829
1659520093.787448,16827
1659520093.826021,16833
1659520093.864594,16822
1659520093.903166,16836
1659520093.94464,16835
1659520093.986114,16846
1659520094.02537,16844
1659520094.064625,16841
1659520094.10388,16853
1659520094.145354,16851
1659520094.186828,16857
1659520094.225742,16856
1659520094.264656,16854
1659520094.30357,16799
1659520094.342143,16732
1659520094.380715,16721
1659520094.419288,16719
1659520094.46025,16733
1659520094.501212,16738
1659520094.539785,16744
1659520094.578357,16737
1659520094.61693,16742
1659520094.658916,16743
1659520094.700902,16757
1659520094.744936,16756
1659520094.78897,16764
1659520094.833005,16762
1659520094.866286,16766
1659520094.899568,16773
1659520094.943944,16780
1659520094.988319,16776
1659520095.032695,16776
1659520095.067,16743
1659520095.101306,16655
1659520095.14534,16619
1659520095.189374,16624
1659520095.233409,16631
1659520095.272664,16651
1659520095.311919,16666
1659520095.351175,16657
1659520095.392137,16653
1659520095.433099,16659
1659520095.472013,16662
1659520095.510926,16670
1659520095.54984,16677
1659520095.589096,16684
1659520095.628351,16687
1659520095.667606,16697
1659520095.70908,16698
1659520095.750555,16705
1659520095.789127,16709
1659520095.8277,16708
1659520095.866272,16656
1659520095.905186,16604
1659520095.9441,16591
1659520095.983014,16602
1659520096.026024,16620
1659520096.069035,16626
1659520096.107948,16638
1659520096.146862,16633
1659520096.185776,16632
1659520096.226738,16649
1659520096.2677,16636
1659520096.310199,16656
1659520096.352697,16651
1659520096.391952,16651
1659520096.431207,16654
1659520096.470463,16671
1659520096.514838,16663
1659520096.559214,16663
1659520096.603589,16676
1659520096.636359,16660
1659520096.669128,16625
1659520096.713504,16612
1659520096.757879,16617
1659520096.802255,16634
1659520096.835025,16646
1659520096.867795,16658
1659520096.91217,16652
1659520096.956546,16661
1659520097.000921,16654
1659520097.039494,16663
1659520097.078066,16670
1659520097.116639,16666
1659520097.157601,16673
1659520097.198563,16667
1659520097.237818,16665
1659520097.277074,16669
1659520097.316329,16678
1659520097.354902,16684
1659520097.393474,16683
1659520097.432047,16676
1659520097.473521,16653
1659520097.514995,16663
1659520097.55425,16667
1659520097.593505,16677
1659520097.632761,16689
1659520097.673723,16687
1659520097.714685,16701
1659520097.752916,16701
1659520097.791147,16710
1659520097.829379,16718
1659520097.871877,16726
1659520097.914375,16724
1659520097.953289,16720
1659520097.992203,16729
1659520098.031117,16732
1659520098.071567,16734
1659520098.112017,16733
1659520098.151272,16738
1659520098.190527,16717
1659520098.229783,16704
1659520098.272281,16695
1659520098.314779,16698
1659520098.359154,16718
1659520098.40353,16727
1659520098.447906,16740
1659520098.487161,16733
1659520098.526416,16746
1659520098.565671,16745
1659520098.607657,16758
1659520098.649644,16760
1659520098.687875,16753
1659520098.726106,16764
1659520098.764337,16768
1659520098.806835,16775
1659520098.849334,16774
1659520098.888247,16772
1659520098.927161,16770
1659520098.966075,16747
1659520099.004307,16682
1659520099.042538,16625
1659520099.080769,16636
1659520099.121731,16630
1659520099.162693,16658
1659520099.201948,16652
1659520099.241204,16656
1659520099.280459,16663
1659520099.322445,16667
1659520099.364431,16680
1659520099.403345,16681
1659520099.442259,16696
1659520099.481173,16687
1659520099.520087,16714
1659520099.559001,16714
1659520099.597915,16706
1659520099.639901,16723
1659520099.681887,16712
1659520099.720801,16671
1659520099.759715,16585
1659520099.798629,16569
1659520099.840103,16557
1659520099.881577,16571
1659520099.925611,16587
1659520099.969646,16593
1659520100.01368,16613
1659520100.046449,16607
1659520100.079219,16616
1659520100.123253,16618
1659520100.167288,16630
1659520100.211322,16641
1659520100.245627,16642
1659520100.279933,16653
1659520100.321151,16650
1659520100.362369,16664
1659520100.403587,16663
1659520100.444805,16666
1659520100.483719,16619
1659520100.522633,16563
1659520100.561547,16553
1659520100.603533,16553
1659520100.645519,16560
1659520100.683751,16567
1659520100.721982,16584
1659520100.760213,16576
1659520100.802199,16583
1659520100.844185,16586
1659520100.883782,16588
1659520100.923379,16602
1659520100.962975,16606
1659520101.006668,16607
1659520101.050361,16613
1659520101.094054,16612
1659520101.126823,16617
1659520101.159593,16624
1659520101.20431,16617
1659520101.249027,16590
1659520101.293744,16534
1659520101.327025,16507
1659520101.360307,16525
1659520101.404341,16540
1659520101.448375,16555
1659520101.49241,16549
1659520101.532007,16558
1659520101.571603,16556
1659520101.6112,16567
1659520101.652162,16574
1659520101.693124,16582
1659520101.732038,16593
1659520101.770952,16603
1659520101.809866,16596
1659520101.852876,16598
1659520101.895886,16615
1659520101.9348,16608
1659520101.973714,16600
1659520102.012628,16549
1659520102.0512,16489
1659520102.089773,16482
1659520102.128345,16494
1659520102.16982,16508
1659520102.211294,16530
1659520102.250208,16536
1659520102.289122,16535
1659520102.328036,16539
1659520102.368998,16552
1659520102.40996,16548
1659520102.448874,16565
1659520102.487787,16569
1659520102.526701,16583
1659520102.568176,16572
1659520102.60965,16595
1659520102.648564,16589
1659520102.687478,16607
1659520102.726392,16560
1659520102.768378,16483
1659520102.810364,16454
1659520102.854739,16439
1659520102.899115,16447
1659520102.94349,16460
1659520102.982063,16494
1659520103.020636,16487
1659520103.059208,16498
1659520103.100682,16493
1659520103.142156,16496
1659520103.18107,16515
1659520103.219984,16518
1659520103.258898,16523
1659520103.299348,16523
1659520103.339798,16540
1659520103.378712,16540
1659520103.417626,16563
1659520103.45654,16540
1659520103.495113,16493
1659520103.533685,16437
1659520103.572258,16421
1659520103.613732,16421
1659520103.655206,16425
1659520103.69412,16453
1659520103.733034,16459
1659520103.771948,16470
1659520103.810862,16467
1659520103.849776,16479
1659520103.88869,16492
1659520103.930164,16500
1659520103.971638,16508
1659520104.010893,16507
1659520104.050148,16512
1659520104.089404,16518
1659520104.13139,16520
1659520104.173376,16529
1659520104.212631,16504
1659520104.251886,16450
1659520104.291142,16393
1659520104.331592,16392
1659520104.372042,16390
1659520104.416759,16404
1659520104.461476,16422
1659520104.506192,16427
1659520104.539986,16420
1659520104.57378,16431
1659520104.617814,16431
1659520104.661848,16448
1659520104.705883,16452
1659520104.738652,16448
1659520104.771422,16462
1659520104.815797,16465
1659520104.860173,16471
1659520104.904548,16469
1659520104.943462,16476
1659520104.982376,16454
1659520105.02129,16402
1659520105.063788,16368
1659520105.106287,16384
1659520105.1452,16393
1659520105.184114,16417
1659520105.223028,16425
1659520105.264503,16426
1659520105.305977,16432
1659520105.344549,16425
1659520105.383122,16433
1659520105.421694,16435
1659520105.460608,16454
1659520105.499522,16456
1659520105.538436,16466
1659520105.57991,16462
1659520105.621384,16477
1659520105.659957,16474
1659520105.698529,16471
1659520105.737102,16426
1659520105.781136,16385
1659520105.825171,16383
1659520105.869205,16388
1659520105.908119,16413
1659520105.947033,16421
1659520105.985946,16433
1659520106.027421,16423
1659520106.068895,16429
1659520106.108491,16438
1659520106.148088,16449
1659520106.187685,16454
1659520106.225916,16458
1659520106.264147,16463
1659520106.302378,16468
1659520106.344364,16476
1659520106.386351,16476
1659520106.425265,16477
1659520106.464179,16461
1659520106.503092,16404
1659520106.540982,16365
1659520106.578872,16378
1659520106.616762,16385
1659520106.659772,16410
1659520106.702782,16412
1659520106.741355,16421
1659520106.779927,16423
1659520106.8185,16428
1659520106.85895,16441
1659520106.8994,16447
1659520106.938314,16457
1659520106.977228,16452
1659520107.016142,16461
1659520107.058128,16459
1659520107.100114,16468
1659520107.138687,16469
1659520107.177259,16473
1659520107.215832,16448
1659520107.257818,16387
1659520107.299804,16368
1659520107.344862,16374
1659520107.389921,16387
1659520107.434979,16408
1659520107.467749,16404
1659520107.500518,16417
1659520107.545235,16407
1659520107.589952,16427
1659520107.634669,16428
1659520107.673924,16433
1659520107.71318,16437
1659520107.752435,16432
1659520107.793397,16435
1659520107.834359,16439
1659520107.872931,16450
1659520107.911504,16433
1659520107.950077,16435
1659520107.992575,16425
1659520108.035073,16392
1659520108.073304,16363
1659520108.111536,16368
1659520108.149767,16376
1659520108.188681,16387
1659520108.227595,16400
1659520108.266509,16389
1659520108.308495,16381
1659520108.350481,16396
1659520108.389053,16394
1659520108.427626,16403
1659520108.466199,16393
1659520108.508185,16408
1659520108.550171,16405
1659520108.589426,16420
1659520108.628681,16417
1659520108.667937,16406
1659520108.708387,16431
1659520108.748837,16412
1659520108.787409,16377
1659520108.825982,16347
1659520108.864555,16350
1659520108.906541,16356
1659520108.948527,16375
1659520108.986758,16386
1659520109.024989,16395
1659520109.063221,16398
1659520109.107255,16394
1659520109.151289,16408
1659520109.195323,16391
1659520109.228605,16383
1659520109.261886,16386
1659520109.306603,16406
1659520109.35132,16411
1659520109.396037,16416
1659520109.434951,16430
1659520109.473865,16440
1659520109.512779,16447
1659520109.554253,16445
1659520109.595727,16450
1659520109.634641,16476
1659520109.673555,16500
1659520109.712469,16518
1659520109.753431,16546
1659520109.794393,16558
1659520109.833648,16571
1659520109.872904,16581
1659520109.912159,16583
1659520109.951073,16568
1659520109.989987,16589
1659520110.028901,16563
1659520110.069863,16562
1659520110.110825,16556
1659520110.149056,16561
1659520110.187287,16564
1659520110.225519,16570
1659520110.268017,16559
1659520110.310515,16529
1659520110.349087,16536
1659520110.38766,16540
1659520110.426233,16554
1659520110.467707,16570
1659520110.509181,16570
1659520110.548777,16583
1659520110.588374,16586
1659520110.627971,16596
1659520110.669957,16596
1659520110.711943,16607
1659520110.750174,16596
1659520110.788405,16605
1659520110.826637,16616
1659520110.871695,16606
1659520110.916753,16617
1659520110.961812,16612
1659520111.002774,16615
1659520111.043736,16592
1659520111.082308,16561
1659520111.120881,16568
1659520111.159453,16568
1659520111.201439,16565
1659520111.243426,16569
1659520111.28234,16561
1659520111.321253,16565
1659520111.360167,16565
1659520111.398057,16571
1659520111.435947,16563
1659520111.473837,16567
1659520111.515823,16569
1659520111.557809,16582
1659520111.596723,16593
1659520111.635637,16604
1659520111.674551,16621
1659520111.713124,16646
1659520111.751696,16677
1659520111.790269,16658
1659520111.832767,16645
1659520111.875265,16675
1659520111.914179,16685
1659520111.953093,16691
1659520111.992007,16659
1659520112.032457,16656
1659520112.072907,16651
1659520112.111821,16658
1659520112.150735,16645
1659520112.189649,16645
1659520112.233683,16662
1659520112.277717,16666
1659520112.321751,16681
1659520112.354521,16703
1659520112.387291,16720
1659520112.431666,16733
1659520112.476042,16754
1659520112.520417,16749
1659520112.559331,16699
1659520112.598245,16646
1659520112.637159,16659
1659520112.677302,16676
1659520112.717445,16669
1659520112.757588,16654
1659520112.79773,16634
1659520112.837873,16622
1659520112.876787,16591
1659520112.915701,16578
1659520112.954615,16587
1659520112.993188,16588
1659520113.03176,16608
1659520113.070333,16611
1659520113.112319,16614
1659520113.154305,16642
1659520113.196803,16651
1659520113.239301,16663
1659520113.277533,16645
1659520113.315764,16646
1659520113.353995,16565
1659520113.395469,16487
1659520113.436943,16481
1659520113.475857,16473
1659520113.514771,16487
1659520113.553685,16494
1659520113.597719,16502
1659520113.641753,16496
1659520113.685788,16489
1659520113.719581,16486
1659520113.753375,16484
1659520113.798433,16491
1659520113.843492,16489
1659520113.88855,16516
1659520113.929512,16511
1659520113.970474,16512
1659520114.009388,16514
1659520114.048302,16528
1659520114.087216,16534
1659520114.126471,16528
1659520114.165726,16443
1659520114.204982,16336
1659520114.246456,16307
1659520114.28793,16306
1659520114.326502,16309
1659520114.365075,16333
1659520114.403648,16330
1659520114.44222,16345
1659520114.480793,16342
1659520114.519365,16346
1659520114.560328,16341
1659520114.60129,16349
1659520114.639862,16347
1659520114.678435,16356
1659520114.717007,16352
1659520114.758481,16355
1659520114.799955,16370
1659520114.839211,16364
1659520114.878466,16372
1659520114.917721,16360
1659520114.958683,16361
1659520114.999645,16283
1659520115.038559,16197
1659520115.077473,16176
1659520115.116387,16161
1659520115.158885,16165
1659520115.201384,16186
1659520115.239956,16219
1659520115.278529,16228
1659520115.317101,16248
1659520115.361135,16258
1659520115.40517,16270
1659520115.449204,16278
1659520115.490166,16274
1659520115.531128,16289
1659520115.569701,16288
1659520115.608273,16289
1659520115.646846,16290
1659520115.688832,16300
1659520115.730818,16304
1659520115.769732,16306
1659520115.808646,16311
1659520115.84756,16233
1659520115.886132,16157
1659520115.924705,16135
1659520115.963278,16141
1659520116.004752,16145
1659520116.046226,16168
1659520116.088468,16198
1659520116.13071,16207
1659520116.172952,16211
1659520116.215194,16218
1659520116.247964,16236
1659520116.280734,16238
1659520116.325792,16254
1659520116.37085,16249
1659520116.415908,16250
1659520116.448678,16261
1659520116.481447,16269
1659520116.525482,16269
1659520116.569516,16269
1659520116.61355,16280
1659520116.652464,16272
1659520116.691378,16261
1659520116.730292,16182
1659520116.77279,16132
1659520116.815288,16143
1659520116.853178,16146
1659520116.891068,16163
1659520116.928958,16175
1659520116.967872,16188
1659520117.006786,16188
1659520117.0457,16186
1659520117.087686,16199
1659520117.129672,16193
1659520117.167903,16203
1659520117.206135,16208
1659520117.244366,16207
1659520117.286864,16213
1659520117.329362,16214
1659520117.368617,16214
1659520117.407872,16223
1659520117.447128,16216
1659520117.4857,16220
1659520117.524273,16225
1659520117.562846,16184
1659520117.603808,16114
1659520117.64477,16093
1659520117.687268,16095
1659520117.729766,16117
1659520117.767997,16129
1659520117.806228,16146
1659520117.84446,16153
1659520117.885422,16160
1659520117.926384,16165
1659520117.965298,16176
1659520118.004212,16178
1659520118.043126,16191
1659520118.08716,16192
1659520118.131194,16200
1659520118.175228,16201
1659520118.20851,16203
1659520118.241791,16214
1659520118.286509,16203
1659520118.331225,16217
1659520118.375942,16214
1659520118.414515,16217
1659520118.453088,16193
1659520118.49166,16117
1659520118.533134,16085
1659520118.574608,16098
1659520118.614205,16110
1659520118.653801,16124
1659520118.693398,16148
1659520118.73436,16149
1659520118.775322,16146
1659520118.813554,16145
1659520118.851785,16160
1659520118.890016,16157
1659520118.92893,16160
1659520118.967844,16157
1659520119.006758,16154
1659520119.048744,16163
1659520119.09073,16157
1659520119.129303,16158
1659520119.167875,16154
1659520119.206448,16157
1659520119.248434,16159
1659520119.29042,16157
1659520119.330017,16156
1659520119.369613,16118
1659520119.40921,16097
1659520119.450684,16092
1659520119.492158,16115
1659520119.531072,16120
1659520119.569986,16133
1659520119.6089,16138
1659520119.650886,16140
1659520119.692872,16145
1659520119.731786,16146
1659520119.7707,16159
1659520119.809614,16159
1659520119.853648,16173
1659520119.897682,16170
1659520119.941717,16170
1659520119.984215,16181
1659520120.026713,16177
1659520120.065285,16177
1659520120.103858,16172
1659520120.142431,16179
1659520120.183393,16175
1659520120.224355,16185
1659520120.263269,16131
1659520120.302183,16099
1659520120.341097,16118
1659520120.380011,16121
1659520120.418925,16139
1659520120.457839,16133
1659520120.499825,16149
1659520120.541811,16133
1659520120.581066,16139
1659520120.620321,16144
1659520120.659577,16149
1659520120.701051,16155
1659520120.742525,16161
1659520120.780756,16155
1659520120.818987,16165
1659520120.857219,16159
1659520120.896474,16166
1659520120.935729,16165
1659520120.974984,16153
1659520121.01697,16146
1659520121.058957,16153
1659520121.096846,16110
1659520121.134736,16077
1659520121.172626,16066
1659520121.2141,16084
1659520121.255574,16107
1659520121.297048,16113
1659520121.338522,16125
1659520121.379997,16122
1659520121.421471,16138
1659520121.460043,16139
1659520121.498616,16146
1659520121.537189,16149
1659520121.580199,16146
1659520121.623209,16164
1659520121.661781,16153
1659520121.700354,16164
1659520121.738927,16164
1659520121.77784,16179
1659520121.816754,16175
1659520121.855668,16193
1659520121.897655,16181
1659520121.939641,16145
1659520121.983675,16096
1659520122.027709,16078
1659520122.071743,16080
1659520122.105537,16084
1659520122.139331,16097
1659520122.184047,16103
1659520122.228764,16105
1659520122.273481,16102
1659520122.311713,16106
1659520122.349944,16118
1659520122.388175,16128
1659520122.428625,16138
1659520122.469075,16139
1659520122.508672,16143
1659520122.548268,16139
1659520122.587865,16154
1659520122.626779,16159
1659520122.665693,16165
1659520122.704607,16171
1659520122.746593,16162
1659520122.788579,16116
1659520122.827834,16050
1659520122.86709,16045
1659520122.906345,16059
1659520122.948331,16077
1659520122.990317,16095
1659520123.028548,16103
1659520123.06678,16112
1659520123.105011,16108
1659520123.147509,16114
1659520123.190007,16108
1659520123.22858,16100
1659520123.267152,16118
1659520123.305725,16124
1659520123.344297,16115
1659520123.38287,16122
1659520123.421443,16128
1659520123.462405,16123
1659520123.503367,16137
1659520123.547742,16129
1659520123.592118,16126
1659520123.636493,16085
1659520123.669775,16055
1659520123.703057,16053
1659520123.747774,16067
1659520123.79249,16074
1659520123.837208,16077
1659520123.869977,16095
1659520123.902747,16102
1659520123.946781,16091
1659520123.990815,16104
1659520124.034849,16108
1659520124.074105,16118
1659520124.11336,16113
1659520124.152615,16116
1659520124.194601,16119
1659520124.236588,16131
1659520124.274819,16129
1659520124.31305,16129
1659520124.351281,16143
1659520124.392243,16137
1659520124.433205,16102
1659520124.472461,16040
1659520124.511716,16024
1659520124.550971,16052
1659520124.589885,16063
1659520124.628799,16074
1659520124.667713,16083
1659520124.708163,16075
1659520124.748613,16077
1659520124.787868,16095
1659520124.827124,16097
1659520124.866379,16099
1659520124.908877,16114
1659520124.951375,16101
1659520124.989948,16102
1659520125.02852,16098
1659520125.067093,16104
1659520125.109079,16085
1659520125.151065,16096
1659520125.190662,16086
1659520125.230258,16074
1659520125.269855,16020
1659520125.311329,15972
1659520125.352803,15990
1659520125.391717,16001
1659520125.430631,16019
1659520125.469545,16028
1659520125.513921,16031
1659520125.558296,16023
1659520125.602672,16029
1659520125.634417,16044
1659520125.666163,16042
1659520125.710539,16063
1659520125.754914,16057
1659520125.79929,16065
1659520125.8423,16062
1659520125.88531,16071
1659520125.923882,16073
1659520125.962455,16084
1659520126.001028,16080
1659520126.039942,16062
1659520126.078856,15989
1659520126.117769,15933
1659520126.160268,15920
1659520126.202766,15937
1659520126.240997,15940
1659520126.279228,15961
1659520126.31746,15958
1659520126.359446,15970
1659520126.401432,15968
1659520126.440687,15983
1659520126.479942,15982
1659520126.519198,15986
1659520126.557088,16008
1659520126.594977,16004
1659520126.632867,16012
1659520126.677243,16014
1659520126.721618,16010
1659520126.765994,16031
1659520126.804908,16029
1659520126.843822,16040
1659520126.882736,15970
1659520126.923186,15916
1659520126.963636,15889
1659520127.002891,15912
1659520127.042146,15920
1659520127.081402,15938
1659520127.123388,15949
1659520127.165374,15959
1659520127.203605,15958
1659520127.241837,15963
1659520127.280068,15971
1659520127.319323,15980
1659520127.358578,15982
1659520127.397834,15989
1659520127.43982,15987
1659520127.481806,16003
1659520127.520378,15997
1659520127.558951,16003
1659520127.597524,16016
1659520127.638998,16007
1659520127.680472,15991
1659520127.719386,15908
1659520127.7583,15865
1659520127.797214,15846
1659520127.835445,15860
1659520127.873676,15894
1659520127.911907,15906
1659520127.954406,15927
1659520127.996904,15912
1659520128.038378,15912
1659520128.079852,15932
1659520128.118424,15938
1659520128.156997,15944
1659520128.19557,15954
1659520128.240286,15958
1659520128.285003,15967
1659520128.32972,15977
1659520128.363514,15976
1659520128.397308,15977
1659520128.442024,15994
1659520128.486741,15990
1659520128.531458,15966
1659520128.56474,15861
1659520128.598022,15808
1659520128.642397,15798
1659520128.686773,15819
1659520128.731148,15845
1659520128.769721,15863
1659520128.808294,15886
1659520128.846866,15874
1659520128.888852,15887
1659520128.930838,15895
1659520128.969752,15903
1659520129.008666,15920
1659520129.04758,15932
1659520129.088542,15937
1659520129.129504,15937
1659520129.168418,15947
1659520129.207332,15951
1659520129.246246,15970
1659520129.28516,15957
1659520129.324074,15969
1659520129.362988,15952
1659520129.404974,15876
1659520129.44696,15809
1659520129.485874,15800
1659520129.524788,15819
1659520129.563702,15848
1659520129.605176,15879
1659520129.64665,15878
1659520129.685905,15879
1659520129.725161,15893
1659520129.764416,15900
1659520129.80589,15910
1659520129.847364,15916
1659520129.885254,15926
1659520129.923144,15926
1659520129.961034,15951
1659520130.00302,15939
1659520130.045006,15952
1659520130.088699,15954
1659520130.132392,15960
1659520130.176085,15952
1659520130.214657,15941
1659520130.25323,15882
1659520130.291802,15828
1659520130.333788,15834
1659520130.375775,15855
1659520130.41503,15874
1659520130.454285,15907
1659520130.493541,15900
1659520130.531772,15905
1659520130.570003,15909
1659520130.608234,15905
1659520130.65022,15917
1659520130.692206,15933
1659520130.731462,15941
1659520130.770717,15943
1659520130.809972,15955
1659520130.850934,15951
1659520130.891896,15954
1659520130.931152,15959
1659520130.970407,15966
1659520131.009662,15966
1659520131.048235,15928
1659520131.086807,15849
1659520131.12538,15809
1659520131.166854,15827
1659520131.208328,15839
1659520131.247584,15860
1659520131.286839,15881
1659520131.326094,15884
1659520131.367056,15880
1659520131.408018,15900
1659520131.446591,15900
1659520131.485163,15922
1659520131.523736,15923
1659520131.566234,15923
1659520131.608732,15927
1659520131.65379,15938
1659520131.698849,15942
1659520131.743907,15943
1659520131.781029,15960
1659520131.818151,15956
1659520131.855273,15964
1659520131.892395,15885
1659520131.931991,15815
1659520131.971588,15814
1659520132.011184,15812
1659520132.051634,15836
1659520132.092084,15848
1659520132.130657,15873
1659520132.16923,15876
1659520132.207802,15890
1659520132.249276,15893
1659520132.29075,15901
1659520132.334785,15921
1659520132.378819,15924
1659520132.422853,15936
1659520132.456135,15931
1659520132.489416,15952
1659520132.534475,15944
1659520132.579533,15960
1659520132.624591,15955
1659520132.663164,15961
1659520132.701736,15936
1659520132.740309,15872
1659520132.781271,15814
1659520132.822233,15817
1659520132.86183,15828
1659520132.901426,15856
1659520132.941023,15875
1659520132.979595,15879
1659520133.018168,15883
1659520133.056741,15892
1659520133.098215,15890
1659520133.139689,15912
1659520133.178262,15915
1659520133.216834,15921
1659520133.255407,15943
1659520133.293979,15936
1659520133.332552,15943
1659520133.371125,15938
1659520133.412598,15950
1659520133.454072,15950
1659520133.492645,15951
1659520133.531218,15939
1659520133.56979,15876
1659520133.610752,15841
1659520133.651714,15857
1659520133.690628,15870
1659520133.729542,15900
1659520133.768456,15908
1659520133.810442,15916
1659520133.852428,15920
1659520133.897145,15920
1659520133.941862,15933
1659520133.986579,15944
1659520134.019861,15942
1659520134.053143,15952
1659520134.097518,15957
1659520134.141894,15962
1659520134.186269,15960
1659520134.224842,15965
1659520134.263414,15972
1659520134.301987,15966
1659520134.344485,15971
1659520134.386983,15916
1659520134.425556,15857
1659520134.464128,15867
1659520134.502701,15884
1659520134.544175,15898
1659520134.585649,15925
1659520134.624222,15917
1659520134.662794,15924
1659520134.701367,15911
1659520134.740281,15921
1659520134.779195,15913
1659520134.818109,15927
1659520134.860607,15937
1659520134.903105,15945
1659520134.942019,15962
1659520134.980933,15961
1659520135.019847,15979
1659520135.061321,15971
1659520135.102795,15974
1659520135.14205,15979
1659520135.181306,15918
1659520135.220561,15848
1659520135.259475,15845
1659520135.298389,15858
1659520135.337303,15876
1659520135.377753,15900
1659520135.418203,15903
1659520135.459677,15902
1659520135.501151,15913
1659520135.539724,15912
1659520135.578296,15923
1659520135.616869,15928
1659520135.660562,15938
1659520135.704254,15938
1659520135.747947,15948
1659520135.781741,15944
1659520135.815535,15948
1659520135.860252,15963
1659520135.904969,15968
1659520135.949685,15964
1659520135.981943,15908
1659520136.014201,15827
1659520136.058576,15793
1659520136.102952,15805
1659520136.147327,15823
1659520136.186924,15841
1659520136.226521,15866
1659520136.266117,15868
1659520136.304348,15873
1659520136.34258,15882
1659520136.380811,15905
1659520136.422797,15900
1659520136.464783,15920
1659520136.503356,15920
1659520136.541928,15938
1659520136.580501,15939
1659520136.618732,15947
1659520136.656963,15960
1659520136.695195,15962
1659520136.737693,15957
1659520136.780191,15946
1659520136.821665,15858
1659520136.863139,15812
1659520136.90137,15802
1659520136.939602,15822
1659520136.977833,15834
1659520137.018385,15862
1659520137.058938,15867
1659520137.09949,15863
1659520137.140043,15880
1659520137.180595,15884
1659520137.224629,15901
1659520137.268663,15912
1659520137.312698,15920
1659520137.351953,15919
1659520137.391208,15929
1659520137.430464,15929
1659520137.47245,15929
1659520137.514436,15937
1659520137.552667,15939
1659520137.590898,15929
1659520137.629129,15902
1659520137.671628,15839
1659520137.714126,15815
1659520137.75304,15822
1659520137.791954,15844
1659520137.830868,15855
1659520137.869099,15873
1659520137.90733,15868
1659520137.945561,15870
1659520137.986523,15872
1659520138.027485,15871
1659520138.066741,15886
1659520138.105996,15888
1659520138.145251,15897
1659520138.186725,15903
1659520138.228199,15911
1659520138.267113,15920
1659520138.306027,15914
1659520138.344941,15922
1659520138.386927,15929
1659520138.428913,15924
1659520138.468169,15861
1659520138.507424,15787
1659520138.546679,15770
1659520138.588153,15789
1659520138.629627,15814
1659520138.6682,15838
1659520138.706773,15850
1659520138.745345,15849
1659520138.789379,15847
1659520138.833414,15864
1659520138.877448,15865
1659520138.910218,15883
1659520138.942987,15887
1659520138.987021,15896
1659520139.031055,15905
1659520139.07509,15912
1659520139.117076,15910
1659520139.159062,15917
1659520139.197634,15923
1659520139.236207,15918
1659520139.27478,15894
1659520139.313694,15808
1659520139.352608,15781
1659520139.391521,15795
1659520139.432996,15786
1659520139.47447,15802
1659520139.513725,15813
1659520139.55298,15820
1659520139.592236,15825
1659520139.63371,15821
1659520139.675184,15827
1659520139.714439,15822
1659520139.753694,15827
1659520139.79295,15816
1659520139.831181,15822
1659520139.869412,15824
1659520139.907643,15830
1659520139.94963,15835
1659520139.991616,15848
1659520140.030871,15854
1659520140.070126,15841
1659520140.109381,15777
1659520140.150343,15696
1659520140.191306,15690
1659520140.229537,15678
1659520140.267768,15690
1659520140.305999,15713
1659520140.34901,15731
1659520140.39202,15732
1659520140.430933,15736
1659520140.469847,15763
1659520140.508761,15779
1659520140.549723,15794
1659520140.590686,15798
1659520140.635744,15815
1659520140.680802,15823
1659520140.72586,15831
1659520140.764774,15838
1659520140.803688,15853
1659520140.842602,15856
1659520140.884588,15865
1659520140.926574,15868
1659520140.965488,15804
1659520141.004402,15723
1659520141.043316,15715
1659520141.08479,15722
1659520141.126264,15748
1659520141.164154,15761
1659520141.202044,15780
1659520141.239934,15777
1659520141.279189,15781
1659520141.318445,15793
1659520141.3577,15795
1659520141.399686,15814
1659520141.441672,15820
1659520141.479903,15817
1659520141.518135,15825
1659520141.556366,15824
1659520141.598352,15827
1659520141.640338,15839
1659520141.679252,15838
1659520141.718166,15846
1659520141.75708,15831
1659520141.795652,15756
1659520141.834225,15716
1659520141.872798,15706
1659520141.914784,15726
1659520141.95677,15755
1659520141.997732,15774
1659520142.038694,15779
1659520142.076925,15785
1659520142.115156,15796
1659520142.153388,15813
1659520142.197763,15819
1659520142.242139,15833
1659520142.286514,15837
1659520142.320308,15852
1659520142.354102,15858
1659520142.397795,15854
1659520142.441488,15878
1659520142.48518,15882
1659520142.524436,15886
1659520142.563691,15885
1659520142.602946,15839
1659520142.644932,15741
1659520142.686918,15700
1659520142.725491,15705
1659520142.764064,15713
1659520142.802636,15727
1659520142.845134,15754
1659520142.887632,15747
1659520142.926888,15760
1659520142.966143,15769
1659520143.005398,15781
1659520143.04363,15785
1659520143.081861,15801
1659520143.120092,15804
1659520143.161054,15818
1659520143.202016,15822
1659520143.241613,15816
1659520143.281209,15836
1659520143.320806,15834
1659520143.361768,15847
1659520143.40273,15842
1659520143.441303,15797
1659520143.479875,15722
1659520143.518448,15694
1659520143.559922,15699
1659520143.601396,15722
1659520143.640993,15745
1659520143.680589,15766
1659520143.720186,15763
1659520143.76166,15776
1659520143.803134,15785
1659520143.842048,15796
1659520143.880962,15816
1659520143.919876,15814
1659520143.961862,15831
1659520144.003848,15828
1659520144.043103,15836
1659520144.082359,15846
1659520144.121614,15859
1659520144.166331,15857
1659520144.211048,15869
1659520144.255765,15829
1659520144.297239,15715
1659520144.338713,15660
1659520144.376944,15638
1659520144.415175,15637
1659520144.453407,15648
1659520144.494369,15670
1659520144.535331,15672
1659520144.574586,15658
1659520144.613842,15672
1659520144.653097,15680
1659520144.691669,15705
1659520144.730242,15721
1659520144.768815,15728
1659520144.810289,15748
1659520144.851763,15740
1659520144.890677,15757
1659520144.929591,15774
1659520144.968504,15779
1659520145.007077,15785
1659520145.04565,15786
1659520145.084222,15722
1659520145.125696,15623
1659520145.167171,15606
1659520145.206767,15596
1659520145.246364,15611
1659520145.28596,15635
1659520145.326411,15674
1659520145.36686,15690
1659520145.405092,15697
1659520145.443323,15703
1659520145.481554,15718
1659520145.524564,15739
1659520145.567575,15749
1659520145.605806,15762
1659520145.644037,15773
1659520145.682268,15785
1659520145.722718,15802
1659520145.763168,15801
1659520145.808227,15805
1659520145.853285,15816
1659520145.898343,15800
1659520145.937598,15719
1659520145.976854,15631
1659520146.016109,15624
1659520146.057583,15626
1659520146.099057,15650
1659520146.138312,15676
1659520146.177568,15687
1659520146.216823,15699
1659520146.258809,15696
1659520146.300795,15714
1659520146.339026,15716
1659520146.377258,15749
1659520146.415489,15747
1659520146.454744,15755
1659520146.493999,15758
1659520146.533255,15771
1659520146.575241,15785
1659520146.617227,15787
1659520146.6558,15800
1659520146.694372,15799
1659520146.732945,15735
1659520146.774419,15645
1659520146.815893,15614
1659520146.854807,15624
1659520146.893721,15634
1659520146.932635,15661
1659520146.971549,15683
1659520147.010463,15701
1659520147.049377,15698
1659520147.091363,15701
1659520147.133349,15728
1659520147.175335,15742
1659520147.217321,15746
1659520147.255552,15754
1659520147.293783,15765
1659520147.332015,15769
1659520147.376732,15781
1659520147.421448,15792
1659520147.466166,15790
1659520147.499959,15804
1659520147.533753,15774
1659520147.577446,15672
1659520147.621139,15595
1659520147.664831,15601
1659520147.697601,15603
1659520147.730371,15632
1659520147.774405,15653
1659520147.818439,15673
1659520147.862473,15679
1659520147.901387,15685
1659520147.940301,15695
1659520147.979215,15712
1659520148.019153,15728
1659520148.059091,15728
1659520148.099029,15744
1659520148.138967,15745
1659520148.178905,15750
1659520148.217478,15767
1659520148.25605,15787
1659520148.294623,15803
1659520148.336609,15792
1659520148.378595,15728
1659520148.41785,15623
1659520148.457106,15596
1659520148.496361,15593
1659520148.537835,15611
1659520148.579309,15639
1659520148.617882,15667
1659520148.656454,15678
1659520148.695027,15679
1659520148.737013,15686
1659520148.778999,15711
1659520148.817913,15720
1659520148.856827,15732
1659520148.895741,15738
1659520148.936191,15754
1659520148.976641,15758
1659520149.014872,15775
1659520149.053103,15776
1659520149.091335,15781
1659520149.136052,15794
1659520149.180768,15785
1659520149.225486,15734
1659520149.259279,15654
1659520149.293073,15651
1659520149.33779,15665
1659520149.382507,15702
1659520149.427224,15726
1659520149.468698,15729
1659520149.510172,15742
1659520149.549427,15741
1659520149.588682,15761
1659520149.627938,15767
1659520149.66651,15776
1659520149.705083,15777
1659520149.743655,15796
1659520149.786154,15802
1659520149.828652,15806
1659520149.867224,15830
1659520149.905797,15837
1659520149.94437,15854
1659520149.985332,15853
1659520150.026294,15810
1659520150.065549,15720
1659520150.104804,15664
1659520150.144059,15681
1659520150.182291,15700
1659520150.220522,15726
1659520150.258753,15743
1659520150.300227,15760
1659520150.341701,15757
1659520150.381298,15753
1659520150.420895,15778
1659520150.460491,15783
1659520150.501453,15783
1659520150.542415,15797
1659520150.580988,15792
1659520150.61956,15807
1659520150.658133,15817
1659520150.700631,15824
1659520150.743129,15824
1659520150.787505,15837
1659520150.831881,15799
1659520150.876256,15699
1659520150.908002,15666
1659520150.939747,15670
1659520150.984123,15683
1659520151.028498,15709
1659520151.072874,15724
1659520151.111446,15742
1659520151.150019,15745
1659520151.188592,15745
1659520151.230066,15770
1659520151.27154,15774
1659520151.310454,15783
1659520151.349368,15788
1659520151.388282,15802
1659520151.429756,15818
1659520151.47123,15827
1659520151.509461,15835
1659520151.547692,15835
1659520151.585923,15854
1659520151.62552,15846
1659520151.665117,15798
1659520151.704714,15709
1659520151.746188,15688
1659520151.787662,15692
1659520151.826234,15716
1659520151.864807,15747
1659520151.903379,15754
1659520151.944854,15778
1659520151.986328,15780
1659520152.025924,15791
1659520152.065521,15809
1659520152.105118,15814
1659520152.143349,15829
1659520152.18158,15841
1659520152.219811,15853
1659520152.261285,15855
1659520152.302759,15869
1659520152.344234,15872
1659520152.385708,15881
1659520152.424963,15880
1659520152.464218,15860
1659520152.503474,15775
1659520152.54819,15711
1659520152.592907,15714
1659520152.637624,15724
1659520152.670906,15750
1659520152.704187,15766
1659520152.745918,15775
1659520152.787648,15781
1659520152.829378,15800
1659520152.871108,15810
1659520152.910363,15820
1659520152.949618,15832
1659520152.988874,15854
1659520153.030348,15857
1659520153.071822,15859
1659520153.110053,15851
1659520153.148284,15863
1659520153.186516,15855
1659520153.228502,15863
1659520153.270488,15849
1659520153.30906,15801
1659520153.347633,15737
1659520153.386206,15712
1659520153.427168,15732
1659520153.46813,15756
1659520153.506702,15780
1659520153.545275,15796
1659520153.583848,15802
1659520153.628223,15808
1659520153.672599,15813
1659520153.716974,15845
1659520153.758448,15844
1659520153.799922,15863
1659520153.838836,15869
1659520153.87775,15876
1659520153.916664,15878
1659520153.95865,15888
1659520154.000636,15898
1659520154.039209,15894
1659520154.077781,15909
1659520154.116354,15891
1659520154.155609,15813
1659520154.194865,15773
1659520154.23412,15773
1659520154.275082,15795
1659520154.316044,15814
1659520154.354958,15822
1659520154.393872,15827
1659520154.432786,15822
1659520154.470676,15832
1659520154.508566,15848
1659520154.546456,15848
1659520154.588954,15864
1659520154.631452,15867
1659520154.670024,15875
1659520154.708597,15889
1659520154.74717,15900
1659520154.788132,15911
1659520154.829094,15916
1659520154.868349,15926
1659520154.907604,15881
1659520154.94686,15792
1659520154.989358,15746
1659520155.031856,15769
1659520155.070087,15786
1659520155.108318,15812
1659520155.14655,15821
1659520155.188536,15815
1659520155.230522,15831
1659520155.275239,15826
1659520155.319956,15830
1659520155.364673,15839
1659520155.397954,15857
1659520155.431236,15860
1659520155.475611,15878
1659520155.519987,15876
1659520155.564363,15880
1659520155.603618,15896
1659520155.642873,15901
1659520155.682128,15904
1659520155.722579,15866
1659520155.763028,15790
1659520155.801942,15741
1659520155.840856,15766
1659520155.87977,15787
1659520155.922781,15792
1659520155.965791,15823
1659520156.004363,15819
1659520156.042936,15825
1659520156.081508,15829
1659520156.120422,15845
1659520156.159336,15855
1659520156.19825,15865
1659520156.240236,15873
1659520156.282223,15878
1659520156.320112,15890
1659520156.358002,15908
1659520156.395892,15918
1659520156.434465,15923
1659520156.473037,15932
1659520156.51161,15878
1659520156.554108,15781
1659520156.596606,15745
1659520156.634837,15748
1659520156.673069,15779
1659520156.7113,15789
1659520156.752262,15816
1659520156.793224,15808
1659520156.837941,15809
1659520156.882658,15824
1659520156.927375,15828
1659520156.960144,15841
1659520156.992914,15847
1659520157.03729,15863
1659520157.081665,15864
1659520157.126041,15888
1659520157.159322,15878
1659520157.192604,15883
1659520157.236979,15897
1659520157.281355,15903
1659520157.325731,15880
1659520157.364303,15820
1659520157.402876,15775
1659520157.441448,15784
1659520157.483947,15804
1659520157.526445,15826
1659520157.565017,15836
1659520157.60359,15841
1659520157.642163,15846
1659520157.682612,15862
1659520157.723063,15873
1659520157.761976,15872
1659520157.80089,15884
1659520157.839804,15887
1659520157.87906,15893
1659520157.918315,15895
1659520157.95757,15905
1659520157.998532,15898
1659520158.039494,15921
1659520158.081737,15919
1659520158.123979,15884
1659520158.166221,15822
1659520158.208463,15777
1659520158.249937,15790
1659520158.291411,15811
1659520158.330325,15836
1659520158.369239,15842
1659520158.408153,15851
1659520158.450651,15850
1659520158.493149,15845
1659520158.532063,15868
1659520158.570977,15881
1659520158.609891,15881
1659520158.648463,15894
1659520158.687036,15903
1659520158.725609,15902
1659520158.767083,15924
1659520158.808557,15924
1659520158.847129,15920
1659520158.885702,15937
1659520158.924275,15879
1659520158.965749,15803
1659520159.007223,15762
1659520159.045795,15778
1659520159.084368,15793
1659520159.122941,15817
1659520159.162537,15825
1659520159.202134,15834
1659520159.24173,15842
1659520159.282693,15851
1659520159.323655,15868
1659520159.362227,15865
1659520159.4008,15873
1659520159.439372,15881
1659520159.482383,15888
1659520159.525393,15897
1659520159.563965,15898
1659520159.602538,15904
1659520159.64111,15910
1659520159.681561,15906
1659520159.722011,15864
1659520159.766386,15782
1659520159.810762,15753
1659520159.855137,15764
1659520159.888931,15778
1659520159.922724,15801
1659520159.966759,15820
1659520160.010793,15825
1659520160.054827,15836
1659520160.093741,15839
1659520160.132655,15859
1659520160.171569,15867
1659520160.212531,15878
1659520160.253493,15883
1659520160.291724,15891
1659520160.329956,15900
1659520160.368187,15903
1659520160.410685,15914
1659520160.453183,15920
1659520160.492097,15920
1659520160.531011,15890
1659520160.569925,15796
1659520160.608156,15751
1659520160.646387,15765
1659520160.684619,15769
1659520160.727117,15796
1659520160.769615,15817
1659520160.80887,15807
1659520160.848125,15815
1659520160.887381,15818
1659520160.927831,15820
1659520160.968281,15841
1659520161.007536,15856
1659520161.046792,15861
1659520161.086047,15867
1659520161.127009,15876
1659520161.167971,15880
1659520161.207226,15889
1659520161.246481,15892
1659520161.285737,15898
1659520161.327211,15873
1659520161.368685,15793
1659520161.40794,15734
1659520161.447196,15730
1659520161.486451,15747
1659520161.530485,15757
1659520161.574519,15778
1659520161.618553,15791
1659520161.652859,15789
1659520161.687165,15797
1659520161.732223,15814
1659520161.777281,15817
1659520161.82234,15830
1659520161.855109,15852
1659520161.887879,15853
1659520161.932254,15862
1659520161.97663,15871
1659520162.021006,15875
1659520162.05992,15895
1659520162.098833,15894
1659520162.137747,15889
1659520162.179221,15825
1659520162.220695,15738
1659520162.259268,15700
1659520162.297841,15719
1659520162.336413,15726
1659520162.377887,15742
1659520162.419361,15772
1659520162.457934,15767
1659520162.496507,15782
1659520162.535079,15786
1659520162.573993,15797
1659520162.612907,15809
1659520162.651821,15820
1659520162.694319,15838
1659520162.736817,15841
1659520162.77539,15846
1659520162.813962,15858
1659520162.852535,15876
1659520162.894009,15880
1659520162.935483,15886
1659520162.973715,15875
1659520163.011946,15814
1659520163.050177,15733
1659520163.092163,15706
1659520163.134149,15738
1659520163.172722,15756
1659520163.211294,15785
1659520163.249867,15789
1659520163.291341,15780
1659520163.332815,15797
1659520163.374289,15794
1659520163.415763,15807
1659520163.454677,15820
1659520163.493591,15826
1659520163.532505,15837
1659520163.572955,15844
1659520163.613405,15834
1659520163.653002,15843
1659520163.692599,15851
1659520163.732195,15853
1659520163.776229,15862
1659520163.820264,15848
1659520163.864298,15779
1659520163.898091,15699
1659520163.931885,15704
1659520163.976602,15725
1659520164.021319,15751
1659520164.066036,15779
1659520164.108022,15789
1659520164.150008,15788
1659520164.188239,15798
1659520164.22647,15807
1659520164.264702,15824
1659520164.303616,15836
1659520164.34253,15845
1659520164.381444,15855
1659520164.423942,15870
1659520164.46644,15889
1659520164.504671,15885
1659520164.542902,15904
1659520164.581134,15904
1659520164.622608,15909
1659520164.664082,15866
1659520164.703337,15782
1659520164.742592,15757
1659520164.781848,15786
1659520164.820079,15791
1659520164.85831,15809
1659520164.896541,15819
1659520164.939552,15821
1659520164.982562,15827
1659520165.021476,15834
1659520165.06039,15851
1659520165.099303,15860
1659520165.140265,15871
1659520165.181228,15875
1659520165.220142,15880
1659520165.259056,15885
1659520165.297969,15894
1659520165.340468,15895
1659520165.382966,15908
1659520165.420856,15909
1659520165.458745,15896
1659520165.496635,15829
1659520165.53811,15780
1659520165.579584,15796
1659520165.623959,15798
1659520165.668335,15815
1659520165.71271,15831
1659520165.750942,15834
1659520165.789173,15836
1659520165.827404,15848
1659520165.86939,15849
1659520165.911376,15870
1659520165.950973,15878
1659520165.990569,15888
1659520166.030166,15893
1659520166.071128,15888
1659520166.11209,15902
1659520166.151004,15905
1659520166.189918,15924
1659520166.228832,15925
1659520166.268087,15857
1659520166.307343,15771
1659520166.346598,15736
1659520166.387048,15737
1659520166.427498,15744
1659520166.466071,15764
1659520166.504643,15785
1659520166.543216,15796
1659520166.58213,15806
1659520166.621044,15810
1659520166.659958,15822
1659520166.701432,15839
1659520166.742906,15853
1659520166.781478,15859
1659520166.820051,15861
1659520166.858624,15864
1659520166.900098,15880
1659520166.941572,15892
1659520166.980486,15889
1659520167.0194,15905
1659520167.058314,15856
1659520167.099787,15775
1659520167.141262,15729
1659520167.18632,15726
1659520167.231378,15751
1659520167.276436,15768
1659520167.309206,15780
1659520167.341976,15796
1659520167.386693,15796
1659520167.43141,15812
1659520167.476126,15831
1659520167.50992,15838
1659520167.543714,15855
1659520167.588431,15870
1659520167.633148,15880
1659520167.677865,15880
1659520167.716096,15891
1659520167.754327,15893
1659520167.792558,15908
1659520167.834032,15909
1659520167.875506,15893
1659520167.914079,15835
1659520167.952652,15772
1659520167.991224,15770
1659520168.030138,15799
1659520168.069052,15827
1659520168.107966,15838
1659520168.149952,15850
1659520168.191938,15845
1659520168.231194,15857
1659520168.270449,15873
1659520168.309704,15883
1659520168.350666,15896
1659520168.391628,15889
1659520168.430542,15896
1659520168.469456,15891
1659520168.50837,15891
1659520168.552404,15915
1659520168.596438,15919
1659520168.640473,15928
1659520168.679045,15917
1659520168.717618,15873
1659520168.756191,15798
1659520168.798177,15805
1659520168.840163,15825
1659520168.878394,15840
1659520168.916625,15875
1659520168.954856,15859
1659520168.993429,15872
1659520169.032001,15879
1659520169.070574,15878
1659520169.112048,15899
1659520169.153522,15908
1659520169.193119,15919
1659520169.232716,15922
1659520169.272312,15928
1659520169.313786,15933
1659520169.35526,15947
1659520169.393492,15943
1659520169.431723,15956
1659520169.469954,15944
1659520169.509551,15894
1659520169.549147,15834
1659520169.588744,15828
1659520169.630218,15850
1659520169.671692,15865
1659520169.710265,15885
1659520169.748837,15882
1659520169.78741,15893
1659520169.829396,15897
1659520169.871382,15915
1659520169.909613,15915
1659520169.947845,15940
1659520169.986076,15934
1659520170.02755,15936
1659520170.069024,15953
1659520170.113741,15953
1659520170.158458,15953
1659520170.203175,15962
1659520170.235945,15972
1659520170.268714,15968
1659520170.31309,15933
1659520170.357465,15886
1659520170.401841,15879
1659520170.441437,15908
1659520170.481034,15912
1659520170.520631,15929
1659520170.562617,15931
1659520170.604603,15943
1659520170.642834,15949
1659520170.681065,15966
1659520170.719297,15970
1659520170.761795,15973
1659520170.804293,15989
1659520170.842865,15994
1659520170.881438,15994
1659520170.920011,16006
1659520170.958242,16003
1659520170.996473,16009
1659520171.034704,16014
1659520171.077203,16011
1659520171.119701,15965
1659520171.158273,15933
1659520171.196846,15946
1659520171.235419,15973
1659520171.275868,15972
1659520171.316319,15991
1659520171.355574,15988
1659520171.394829,15993
1659520171.434084,16004
1659520171.472657,16007
1659520171.51123,16019
1659520171.549802,16022
1659520171.591788,16034
1659520171.633774,16019
1659520171.678491,16023
1659520171.723208,16036
1659520171.767925,16035
1659520171.801207,16039
1659520171.834488,16026
1659520171.878181,15962
1659520171.921874,15884
1659520171.965567,15879
1659520171.999361,15882
1659520172.033154,15903
1659520172.07753,15921
1659520172.121906,15929
1659520172.166281,15935
1659520172.204171,15932
1659520172.242061,15949
1659520172.279951,15965
1659520172.320913,15976
1659520172.361875,15974
1659520172.40113,15976
1659520172.440385,15988
1659520172.479641,15990
1659520172.518555,15990
1659520172.557469,16007
1659520172.596383,15976
1659520172.637857,15891
1659520172.679331,15818
1659520172.718245,15800
1659520172.757159,15802
1659520172.796072,15821
1659520172.838059,15834
1659520172.880045,15855
1659520172.918959,15860
1659520172.957873,15863
1659520172.996787,15872
1659520173.038261,15889
1659520173.079735,15904
1659520173.118649,15907
1659520173.157563,15915
1659520173.196476,15928
1659520173.236927,15924
1659520173.277377,15941
1659520173.316973,15940
1659520173.35657,15919
1659520173.396167,15858
1659520173.438153,15771
1659520173.480139,15777
1659520173.51837,15777
1659520173.556601,15790
1659520173.594832,15808
1659520173.639549,15830
1659520173.684266,15833
1659520173.728983,15842
1659520173.767897,15859
1659520173.806811,15870
1659520173.845725,15889
1659520173.887711,15887
1659520173.929697,15899
1659520173.968611,15901
1659520174.007525,15910
1659520174.046439,15920
1659520174.085694,15922
1659520174.12495,15913
1659520174.164205,15838
1659520174.204655,15771
1659520174.245105,15743
1659520174.283678,15756
1659520174.32225,15790
1659520174.360823,15809
1659520174.399737,15833
1659520174.438651,15838
1659520174.477565,15844
1659520174.519039,15861
1659520174.560513,15867
1659520174.601475,15876
1659520174.642437,15882
1659520174.682034,15885
1659520174.72163,15900
1659520174.761227,15908
1659520174.805261,15915
1659520174.849295,15923
1659520174.893329,15910
1659520174.927123,15893
1659520174.960917,15811
1659520175.005634,15764
1659520175.050351,15767
1659520175.095068,15786
1659520175.127837,15814
1659520175.160607,15836
1659520175.2043,15834
1659520175.247993,15836
1659520175.291685,15852
1659520175.330941,15862
1659520175.370196,15875
1659520175.409451,15876
1659520175.450925,15890
1659520175.492399,15889
1659520175.530631,15901
1659520175.568862,15919
1659520175.607093,15912
1659520175.646007,15920
1659520175.684921,15884
1659520175.723835,15811
1659520175.765309,15773
1659520175.806783,15763
1659520175.846038,15791
1659520175.885294,15825
1659520175.924549,15836
1659520175.966535,15834
1659520176.008521,15837
1659520176.047094,15847
1659520176.085666,15858
1659520176.124239,15871
1659520176.166225,15876
1659520176.208211,15887
1659520176.247808,15899
1659520176.287405,15903
1659520176.327001,15912
1659520176.368475,15915
1659520176.409949,15922
1659520176.44818,15899
1659520176.486412,15814
1659520176.524643,15746
1659520176.566117,15746
1659520176.607591,15752
1659520176.646847,15768
1659520176.686102,15803
1659520176.725357,15803
1659520176.769391,15806
1659520176.813426,15828
1659520176.85746,15832
1659520176.898934,15852
1659520176.940408,15854
1659520176.979663,15872
1659520177.018919,15879
1659520177.058174,15894
1659520177.096746,15890
1659520177.135319,15893
1659520177.173892,15907
1659520177.21639,15876
1659520177.258888,15792
1659520177.297802,15734
1659520177.336716,15729
1659520177.37563,15739
1659520177.417104,15762
1659520177.458578,15778
1659520177.49715,15788
1659520177.535723,15801
1659520177.574296,15806
1659520177.612868,15816
1659520177.651441,15830
1659520177.690013,15835
1659520177.731999,15839
1659520177.773986,15850
1659520177.812558,15853
1659520177.851131,15869
1659520177.889703,15870
1659520177.930665,15872
1659520177.971627,15847
1659520178.010541,15765
1659520178.049455,15736
1659520178.088369,15730
1659520178.129843,15765
1659520178.171317,15783
1659520178.210573,15796
1659520178.249828,15815
1659520178.289083,15814
1659520178.330557,15837
1659520178.372031,15839
1659520178.416066,15842
1659520178.4601,15861
1659520178.504134,15866
1659520178.542707,15874
1659520178.581279,15877
1659520178.619852,15886
1659520178.66235,15895
1659520178.704848,15895
1659520178.743079,15831
1659520178.781311,15745
1659520178.819542,15731
1659520178.861016,15737
1659520178.90249,15756
1659520178.941404,15774
1659520178.980318,15792
1659520179.019232,15792
1659520179.057804,15800
1659520179.096377,15818
1659520179.13495,15827
1659520179.177448,15847
1659520179.219946,15855
1659520179.259542,15871
1659520179.299139,15869
1659520179.338736,15865
1659520179.376967,15882
1659520179.415198,15887
1659520179.453429,15883
1659520179.495928,15845
1659520179.538426,15787
1659520179.577681,15749
1659520179.616936,15754
1659520179.656192,15789
1659520179.696642,15792
1659520179.737092,15806
1659520179.781467,15811
1659520179.825843,15818
1659520179.870219,15827
1659520179.9035,15839
1659520179.936782,15846
1659520179.980816,15850
1659520180.02485,15861
1659520180.068884,15863
1659520180.102678,15874
1659520180.136472,15885
1659520180.181189,15883
1659520180.225905,15895
1659520180.270622,15881
1659520180.308854,15848
1659520180.347085,15808
1659520180.385316,15806
1659520180.42679,15827
1659520180.468264,15839
1659520180.508202,15853
1659520180.54814,15860
1659520180.588078,15866
1659520180.62904,15872
1659520180.670002,15881
1659520180.708916,15894
1659520180.74783,15898
1659520180.786744,15904
1659520180.825317,15911
1659520180.863889,15920
1659520180.902462,15918
1659520180.944448,15939
1659520180.986434,15931
1659520181.024666,15938
1659520181.062897,15942
1659520181.101128,15876
1659520181.142602,15816
1659520181.184076,15821
1659520181.222307,15832
1659520181.260539,15853
1659520181.29877,15867
1659520181.340756,15872
1659520181.382742,15883
1659520181.421997,15882
1659520181.461253,15893
1659520181.500508,15889
1659520181.544883,15901
1659520181.589259,15913
1659520181.633635,15911
1659520181.666404,15924
1659520181.699174,15926
1659520181.744232,15927
1659520181.78929,15946
1659520181.834349,15946
1659520181.87258,15933
1659520181.910811,15888
1659520181.949042,15876
1659520181.99154,15908
1659520182.034039,15914
1659520182.072953,15917
1659520182.111866,15930
1659520182.15078,15940
1659520182.191742,15930
1659520182.232705,15951
1659520182.270936,15939
1659520182.309167,15952
1659520182.347398,15966
1659520182.386654,15962
1659520182.425909,15966
1659520182.465164,15961
1659520182.50715,15971
1659520182.549136,15976
1659520182.588392,15990
1659520182.627647,15984
1659520182.666902,15936
1659520182.708376,15912
1659520182.749851,15910
1659520182.789447,15932
1659520182.829044,15953
1659520182.86864,15963
1659520182.910115,15965
1659520182.951589,15974
1659520182.990503,15977
1659520183.029416,15982
1659520183.06833,15994
1659520183.109804,16003
1659520183.151278,16001
1659520183.189851,16019
1659520183.228424,16007
1659520183.266996,16021
1659520183.311031,16023
1659520183.355065,16028
1659520183.399099,16034
1659520183.433405,16014
1659520183.46771,15954
1659520183.511403,15920
1659520183.555096,15935
1659520183.598789,15954
1659520183.640263,15970
1659520183.681737,15976
1659520183.720651,15977
1659520183.759565,15981
1659520183.798479,15986
1659520183.837734,15998
1659520183.87699,15994
1659520183.916245,16005
1659520183.957207,16004
1659520183.998169,16012
1659520184.037424,16014
1659520184.076679,16018
1659520184.115935,16022
1659520184.156897,16019
1659520184.197859,16015
1659520184.239077,15970
1659520184.280295,15926
1659520184.321513,15924
1659520184.362731,15943
1659520184.397037,15958
1659520184.431343,15964
1659520184.475377,15971
1659520184.519411,15962
1659520184.563445,15974
1659520184.595191,15978
1659520184.626936,15989
1659520184.671653,15991
1659520184.71637,15996
1659520184.761087,16006
1659520184.800001,16003
1659520184.838915,16015
1659520184.877829,16007
1659520184.919303,16017
1659520184.960777,16021
1659520185.000374,15980
1659520185.03997,15884
1659520185.079567,15824
1659520185.121553,15814
1659520185.163539,15823
1659520185.201429,15845
1659520185.239319,15858
1659520185.277209,15862
1659520185.316464,15869
1659520185.35572,15875
1659520185.394975,15886
1659520185.436961,15900
1659520185.478947,15898
1659520185.517178,15902
1659520185.555409,15911
1659520185.593641,15914
1659520185.635115,15925
1659520185.676589,15923
1659520185.715844,15936
1659520185.7551,15943
1659520185.794355,15897
1659520185.835829,15822
1659520185.877303,15786
1659520185.916558,15798
1659520185.955813,15805
1659520185.995069,15824
1659520186.037055,15842
1659520186.079041,15839
1659520186.117614,15859
1659520186.156186,15864
1659520186.194759,15867
1659520186.239476,15872
1659520186.284193,15893
1659520186.328909,15890
1659520186.362703,15897
1659520186.396497,15908
1659520186.44019,15904
1659520186.483883,15910
1659520186.527575,15918
1659520186.56905,15915
1659520186.610523,15878
1659520186.649096,15799
1659520186.687669,15772
1659520186.726241,15774
1659520186.765155,15787
1659520186.804069,15815
1659520186.842983,15824
1659520186.883945,15823
1659520186.924907,15828
1659520186.964163,15831
1659520187.003418,15849
1659520187.042673,15860
1659520187.083635,15860
1659520187.124597,15869
1659520187.163853,15872
1659520187.203108,15886
1659520187.242363,15893
1659520187.280936,15904
1659520187.319508,15912
1659520187.358081,15887
1659520187.400067,15805
1659520187.442053,15739
1659520187.480284,15734
1659520187.518516,15743
1659520187.556747,15756
1659520187.598733,15776
1659520187.640719,15785
1659520187.679633,15784
1659520187.718547,15790
1659520187.757461,15807
1659520187.797911,15805
1659520187.838361,15829
1659520187.882736,15837
1659520187.927112,15830
1659520187.971488,15844
1659520188.01006,15848
1659520188.048633,15859
1659520188.087205,15862
1659520188.129192,15860
1659520188.171178,15799
1659520188.210433,15718
1659520188.249688,15700
1659520188.288944,15699
1659520188.328199,15714
1659520188.367454,15736
1659520188.406709,15750
1659520188.448184,15761
1659520188.489658,15763
1659520188.52823,15773
1659520188.566803,15793
1659520188.605375,15800
1659520188.644631,15811
1659520188.683886,15815
1659520188.723141,15813
1659520188.764615,15819
1659520188.806089,15821
1659520188.844662,15831
1659520188.883235,15829
1659520188.921807,15813
1659520188.963793,15726
1659520189.005779,15639
1659520189.044011,15633
1659520189.082242,15621
1659520189.120473,15641
1659520189.162459,15676
1659520189.204445,15697
1659520189.244042,15697
1659520189.283639,15722
1659520189.323235,15723
1659520189.364197,15737
1659520189.405159,15762
1659520189.449535,15759
1659520189.493911,15776
1659520189.538286,15784
1659520189.577541,15788
1659520189.616796,15794
1659520189.656052,15817
1659520189.697526,15819
1659520189.739,15816
1659520189.77689,15713
1659520189.81478,15618
1659520189.85267,15609
1659520189.891925,15591
1659520189.93118,15607
1659520189.970436,15631
1659520190.010886,15645
1659520190.051336,15651
1659520190.09025,15645
1659520190.129164,15668
1659520190.168077,15669
1659520190.20665,15694
1659520190.245223,15702
1659520190.283795,15705
1659520190.325269,15716
1659520190.366744,15731
1659520190.405316,15729
1659520190.443889,15749
1659520190.482461,15762
1659520190.524959,15735
1659520190.567457,15654
1659520190.60603,15542
1659520190.644603,15489
1659520190.683175,15455
1659520190.724649,15475
1659520190.766124,15522
1659520190.81084,15555
1659520190.855557,15561
1659520190.900274,15563
1659520190.934068,15567
1659520190.967861,15556
1659520191.011554,15562
1659520191.055247,15545
1659520191.09894,15546
1659520191.138195,15545
1659520191.177451,15542
1659520191.216706,15558
1659520191.257668,15563
1659520191.29863,15594
1659520191.337203,15586
1659520191.375775,15485
1659520191.414348,15372
1659520191.456846,15332
1659520191.499344,15325
1659520191.538599,15318
1659520191.577855,15336
1659520191.61711,15348
1659520191.655683,15341
1659520191.694255,15342
1659520191.732828,15349
1659520191.774814,15358
1659520191.8168,15385
1659520191.855373,15415
1659520191.893945,15432
1659520191.932518,15453
1659520191.975016,15447
1659520192.017514,15485
1659520192.056087,15508
1659520192.094659,15545
1659520192.133232,15568
1659520192.172146,15554
1659520192.21106,15419
1659520192.249974,15311
1659520192.290936,15307
1659520192.331898,15296
1659520192.373884,15324
1659520192.41587,15396
1659520192.455125,15442
1659520192.49438,15456
1659520192.533636,15450
1659520192.578012,15453
1659520192.622387,15461
1659520192.666763,15483
1659520192.700044,15483
1659520192.733326,15489
1659520192.778043,15501
1659520192.82276,15506
1659520192.867476,15520
1659520192.90127,15516
1659520192.935064,15527
1659520192.978757,15536
1659520193.02245,15485
1659520193.066143,15347
1659520193.104374,15250
1659520193.142605,15241
1659520193.180836,15242
1659520193.22231,15264
1659520193.263784,15315
1659520193.302016,15316
1659520193.340247,15329
1659520193.378478,15341
1659520193.417733,15362
1659520193.456989,15387
1659520193.496244,15431
1659520193.537718,15447
1659520193.579192,15470
1659520193.617423,15478
1659520193.655655,15466
1659520193.693886,15469
1659520193.735872,15475
1659520193.777858,15481
1659520193.817455,15477
1659520193.857051,15360
1659520193.896648,15217
1659520193.93761,15193
1659520193.978572,15211
1659520194.017828,15224
1659520194.057083,15270
1659520194.096338,15302
1659520194.137812,15329
1659520194.179286,15349
1659520194.2182,15377
1659520194.257114,15415
1659520194.296028,15438
1659520194.33699,15457
1659520194.377952,15454
1659520194.42301,15466
1659520194.468069,15460
1659520194.513127,15450
1659520194.551358,15446
1659520194.589589,15457
1659520194.62782,15461
1659520194.669295,15382
1659520194.710769,15239
1659520194.750707,15171
1659520194.790645,15176
1659520194.830583,15178
1659520194.869155,15202
1659520194.907728,15236
1659520194.946301,15255
1659520194.985556,15252
1659520195.024811,15270
1659520195.064066,15286
1659520195.103322,15301
1659520195.142577,15316
1659520195.181832,15332
1659520195.222282,15355
1659520195.262732,15366
1659520195.30523,15382
1659520195.347729,15405
1659520195.386642,15428
1659520195.425556,15440
1659520195.46447,15449
1659520195.508163,15429
1659520195.551856,15276
1659520195.595549,15178
1659520195.627807,15192
1659520195.660064,15197
1659520195.705122,15221
1659520195.750181,15279
1659520195.795239,15331
1659520195.828009,15364
1659520195.860778,15382
1659520195.905154,15391
1659520195.949529,15416
1659520195.993905,15436
1659520196.032819,15438
1659520196.071733,15454
1659520196.110647,15462
1659520196.152121,15461
1659520196.193595,15471
1659520196.232167,15468
1659520196.27074,15475
1659520196.309313,15486
1659520196.351811,15472
1659520196.394309,15415
1659520196.43254,15274
1659520196.470772,15233
1659520196.509003,15258
1659520196.547575,15295
1659520196.586148,15328
1659520196.624721,15354
1659520196.666195,15355
1659520196.707669,15366
1659520196.746924,15380
1659520196.786179,15400
1659520196.825434,15414
1659520196.866397,15429
1659520196.907359,15435
1659520196.946614,15448
1659520196.985869,15455
1659520197.025125,15455
1659520197.066599,15459
1659520197.108073,15467
1659520197.147328,15468
1659520197.186583,15471
1659520197.225839,15429
1659520197.266801,15314
1659520197.307763,15301
1659520197.352821,15320
1659520197.397879,15355
1659520197.442937,15380
1659520197.481169,15399
1659520197.5194,15408
1659520197.557631,15410
1659520197.599105,15425
1659520197.640579,15437
1659520197.679835,15450
1659520197.71909,15471
1659520197.758345,15465
1659520197.799819,15489
1659520197.841293,15484
1659520197.879866,15482
1659520197.918438,15489
1659520197.957011,15509
1659520197.996266,15512
1659520198.035522,15515
1659520198.074777,15476
1659520198.116763,15355
1659520198.158749,15313
1659520198.197663,15323
1659520198.236577,15338
1659520198.275491,15372
1659520198.317477,15401
1659520198.359463,15411
1659520198.398719,15416
1659520198.437974,15427
1659520198.477229,15430
1659520198.515119,15458
1659520198.553009,15460
1659520198.590899,15465
1659520198.633909,15481
1659520198.676919,15488
1659520198.71515,15482
1659520198.753382,15481
1659520198.791613,15492
1659520198.832063,15501
1659520198.872513,15506
1659520198.916547,15483
1659520198.960581,15383
1659520199.004616,15326
1659520199.038921,15343
1659520199.073227,15368
1659520199.117261,15400
1659520199.161295,15423
1659520199.20533,15444
1659520199.238611,15446
1659520199.271893,15456
1659520199.31661,15463
1659520199.361327,15473
1659520199.406044,15491
1659520199.444275,15505
1659520199.482506,15500
1659520199.520737,15509
1659520199.562723,15511
1659520199.60471,15522
1659520199.643965,15523
1659520199.68322,15531
1659520199.722476,15542
1659520199.760365,15504
1659520199.798255,15420
1659520199.836145,15380
1659520199.877619,15410
1659520199.919093,15442
1659520199.957666,15477
1659520199.996238,15496
1659520200.034811,15492
1659520200.073725,15510
1659520200.112639,15508
1659520200.151553,15532
1659520200.19627,15534
1659520200.240987,15543
1659520200.285704,15553
1659520200.32769,15560
1659520200.369676,15564
1659520200.407907,15563
1659520200.446138,15577
1659520200.48437,15580
1659520200.526356,15586
1659520200.568342,15581
1659520200.607939,15525
1659520200.647535,15399
1659520200.687132,15349
1659520200.726046,15368
1659520200.76496,15377
1659520200.803874,15403
1659520200.845348,15438
1659520200.886822,15448
1659520200.925736,15449
1659520200.96465,15466
1659520201.003564,15475
1659520201.041795,15487
1659520201.080026,15510
1659520201.118257,15503
1659520201.160755,15510
1659520201.203254,15525
1659520201.241826,15522
1659520201.280399,15534
1659520201.318971,15540
1659520201.359933,15536
1659520201.400895,15535
1659520201.439809,15472
1659520201.478723,15355
1659520201.517637,15336
1659520201.560135,15346
1659520201.602633,15368
1659520201.641206,15407
1659520201.679779,15426
1659520201.718351,15446
1659520201.759825,15438
1659520201.801299,15462
1659520201.845334,15479
1659520201.889368,15486
1659520201.933402,15505
1659520201.971633,15518
1659520202.009865,15522
1659520202.048096,15526
1659520202.090082,15535
1659520202.132068,15542
1659520202.170982,15546
1659520202.209896,15558
1659520202.24881,15547
1659520202.28926,15521
1659520202.32971,15415
1659520202.368624,15381
1659520202.407538,15402
1659520202.446452,15445
1659520202.485366,15472
1659520202.52428,15492
1659520202.563194,15502
1659520202.60518,15502
1659520202.647166,15518
1659520202.68608,15523
1659520202.724994,15538
1659520202.763908,15546
1659520202.805382,15543
1659520202.846856,15561
1659520202.886111,15553
1659520202.925366,15562
1659520202.964622,15567
1659520203.003194,15565
1659520203.041767,15568
1659520203.080339,15570
1659520203.121301,15499
1659520203.162264,15365
1659520203.20425,15315
1659520203.246236,15317
1659520203.284467,15325
1659520203.322698,15359
1659520203.360929,15386
1659520203.405305,15378
1659520203.449681,15386
1659520203.494056,15406
1659520203.528362,15421
1659520203.562668,15436
1659520203.607043,15449
1659520203.651419,15464
1659520203.695794,15467
1659520203.728564,15470
1659520203.761333,15492
1659520203.806392,15493
1659520203.85145,15497
1659520203.896508,15518
1659520203.935764,15507
1659520203.975019,15459
1659520204.014274,15289
1659520204.055748,15234
1659520204.097222,15250
1659520204.136477,15262
1659520204.175733,15286
1659520204.214988,15328
1659520204.25595,15366
1659520204.296912,15357
1659520204.335485,15369
1659520204.374058,15377
1659520204.41263,15396
1659520204.451885,15406
1659520204.491141,15436
1659520204.530396,15454
1659520204.571358,15459
1659520204.61232,15474
1659520204.650893,15469
1659520204.689465,15486
1659520204.728038,15496
1659520204.770536,15499
1659520204.813034,15515
1659520204.851948,15446
1659520204.890862,15262
1659520204.929776,15201
1659520204.970738,15215
1659520205.0117,15235
1659520205.050955,15275
1659520205.090211,15304
1659520205.129466,15311
1659520205.171452,15306
1659520205.213438,15310
1659520205.252762,15329
1659520205.292085,15359
1659520205.331409,15380
1659520205.370732,15395
1659520205.410056,15412
1659520205.451018,15422
1659520205.49198,15436
1659520205.530894,15459
1659520205.569808,15469
1659520205.608722,15490
1659520205.649684,15505
1659520205.690646,15506
1659520205.729901,15482
1659520205.769157,15392
1659520205.808412,15317
1659520205.849886,15328
1659520205.89136,15345
1659520205.930274,15376
1659520205.969188,15419
1659520206.008102,15424
1659520206.050088,15429
1659520206.092074,15441
1659520206.136791,15460
1659520206.181508,15474
1659520206.226225,15485
1659520206.264797,15495
1659520206.30337,15503
1659520206.341943,15503
1659520206.383417,15511
1659520206.424891,15516
1659520206.464146,15518
1659520206.503401,15521
1659520206.542657,15514
1659520206.581229,15514
1659520206.619802,15477
1659520206.658374,15373
1659520206.699848,15315
1659520206.741323,15324
1659520206.779895,15387
1659520206.818468,15422
1659520206.85704,15439
1659520206.899026,15452
1659520206.941013,15463
1659520206.980268,15473
1659520207.019523,15502
1659520207.058779,15502
1659520207.100252,15515
1659520207.141726,15536
1659520207.18064,15546
1659520207.219554,15562
1659520207.258468,15552
1659520207.297382,15560
1659520207.336296,15560
1659520207.37521,15562
1659520207.417708,15565
1659520207.460207,15567
1659520207.501168,15535
1659520207.542131,15422
1659520207.580703,15344
1659520207.619276,15342
1659520207.657848,15386
1659520207.702224,15405
1659520207.746599,15426
1659520207.790975,15428
1659520207.824769,15430
1659520207.858562,15439
1659520207.902255,15455
1659520207.945948,15474
1659520207.989641,15475
1659520208.028555,15485
1659520208.067469,15482
1659520208.106383,15491
1659520208.147857,15485
1659520208.189331,15490
1659520208.228245,15508
1659520208.267159,15502
1659520208.306073,15516
1659520208.348059,15484
1659520208.390045,15380
1659520208.4293,15307
1659520208.468556,15316
1659520208.507811,15346
1659520208.545701,15383
1659520208.583591,15400
1659520208.621481,15405
1659520208.662955,15422
1659520208.704429,15424
1659520208.743001,15439
1659520208.781574,15454
1659520208.820147,15462
1659520208.861621,15479
1659520208.903095,15478
1659520208.942009,15499
1659520208.980923,15498
1659520209.019836,15510
1659520209.061823,15526
1659520209.103809,15526
1659520209.14204,15538
1659520209.180271,15523
1659520209.218503,15412
1659520209.261001,15302
1659520209.303499,15278
1659520209.342754,15292
1659520209.382009,15315
1659520209.421265,15342
1659520209.46564,15357
1659520209.510016,15373
1659520209.554391,15374
1659520209.587673,15395
1659520209.620955,15402
1659520209.665672,15408
1659520209.710388,15428
1659520209.755105,15442
1659520209.796579,15446
1659520209.838053,15449
1659520209.876626,15467
1659520209.915199,15470
1659520209.953771,15491
1659520209.993026,15502
1659520210.032282,15498
1659520210.071537,15462
1659520210.112499,15307
1659520210.153461,15245
1659520210.192717,15245
1659520210.231972,15286
1659520210.271227,15324
1659520210.313213,15374
1659520210.355199,15391
1659520210.393772,15395
1659520210.432344,15422
1659520210.470917,15421
1659520210.509831,15444
1659520210.548745,15452
1659520210.587659,15461
1659520210.632717,15463
1659520210.677775,15473
1659520210.722834,15483
1659520210.760724,15490
1659520210.798614,15491
1659520210.836504,15497
1659520210.875417,15508
1659520210.914331,15468
1659520210.953245,15295
1659520210.995231,15193
1659520211.037217,15205
1659520211.075449,15238
1659520211.11368,15284
1659520211.151911,15324
1659520211.190484,15342
1659520211.229056,15337
1659520211.267629,15333
1659520211.309103,15351
1659520211.350577,15387
1659520211.389491,15405
1659520211.428405,15419
1659520211.467319,15424
1659520211.508793,15442
1659520211.550267,15444
1659520211.589181,15455
1659520211.628095,15465
1659520211.667009,15464
1659520211.708995,15494
1659520211.750981,15477
1659520211.789895,15345
1659520211.828809,15183
1659520211.867723,15171
1659520211.909197,15183
1659520211.950671,15210
1659520211.994705,15254
1659520212.038739,15284
1659520212.082774,15293
1659520212.121346,15302
1659520212.159919,15314
1659520212.198492,15339
1659520212.239966,15364
1659520212.28144,15381
1659520212.320695,15397
1659520212.35995,15404
1659520212.399206,15410
1659520212.440168,15413
1659520212.48113,15425
1659520212.520385,15446
1659520212.55964,15444
1659520212.598896,15440
1659520212.638151,15406
1659520212.677406,15203
1659520212.716661,15121
1659520212.758136,15115
1659520212.79961,15132
1659520212.838865,15141
1659520212.87812,15181
1659520212.917376,15181
1659520212.95885,15171
1659520213.000324,15186
1659520213.038555,15198
1659520213.076786,15212
1659520213.115017,15243
1659520213.153931,15249
1659520213.192845,15263
1659520213.231759,15289
1659520213.274257,15293
1659520213.316756,15302
1659520213.357205,15322
1659520213.397655,15330
1659520213.435887,15350
1659520213.474118,15360
1659520213.512349,15360
1659520213.557408,15209
1659520213.602466,15086
1659520213.647524,15078
1659520213.680806,15070
1659520213.714087,15074
1659520213.758463,15086
1659520213.802839,15109
1659520213.847214,15089
1659520213.881008,15073
1659520213.914801,15088
1659520213.958836,15100
1659520214.00287,15129
1659520214.046904,15146
1659520214.085135,15162
1659520214.123367,15171
1659520214.161598,15187
1659520214.204608,15189
1659520214.247618,15201
1659520214.285849,15225
1659520214.32408,15235
1659520214.362312,15253
1659520214.400884,15252
1659520214.439457,15181
1659520214.478029,15025
1659520214.519504,14965
1659520214.560978,14976
1659520214.599209,14981
1659520214.63744,15012
1659520214.675671,15056
1659520214.717145,15068
1659520214.75862,15080
1659520214.797875,15101
1659520214.83713,15130
1659520214.876385,15169
1659520214.91786,15200
1659520214.959334,15226
1659520214.997906,15240
1659520215.036479,15262
1659520215.075051,15280
1659520215.11755,15287
1659520215.160048,15294
1659520215.19862,15305
1659520215.237193,15301
1659520215.275765,15307
1659520215.319458,15301
1659520215.363151,15209
1659520215.406844,15063
1659520215.440126,15031
1659520215.473407,15057
1659520215.517783,15086
1659520215.562158,15128
1659520215.606534,15148
1659520215.648008,15129
1659520215.689482,15121
1659520215.729079,15144
1659520215.768676,15175
1659520215.808272,15202
1659520215.847528,15226
1659520215.886783,15239
1659520215.926038,15263
1659520215.967,15272
1659520216.007962,15282
1659520216.047559,15289
1659520216.087155,15317
1659520216.126752,15326
1659520216.168738,15344
1659520216.210724,15347
1659520216.248955,15331
1659520216.287187,15233
1659520216.325418,15168
1659520216.363991,15181
1659520216.402563,15217
1659520216.441136,15268
1659520216.483634,15277
1659520216.526132,15297
1659520216.564363,15310
1659520216.602595,15316
1659520216.640826,15349
1659520216.685201,15347
1659520216.729577,15365
1659520216.773952,15383
1659520216.812184,15377
1659520216.850415,15386
1659520216.888646,15401
1659520216.93012,15389
1659520216.971594,15387
1659520217.010508,15406
1659520217.049422,15414
1659520217.088336,15421
1659520217.130834,15385
1659520217.173332,15311
1659520217.211905,15333
1659520217.250478,15394
1659520217.28905,15489
1659520217.327964,15531
1659520217.366878,15554
1659520217.405792,15549
1659520217.446754,15553
1659520217.487716,15562
1659520217.52663,15547
1659520217.565544,15566
1659520217.604458,15570
1659520217.643031,15575
1659520217.681603,15589
1659520217.720176,15592
1659520217.762162,15602
1659520217.804148,15602
1659520217.84511,15596
1659520217.886072,15597
1659520217.924303,15582
1659520217.962534,15532
1659520218.000766,15375
1659520218.043264,15046
1659520218.085762,14869
1659520218.125017,14729
1659520218.164273,14470
1659520218.203528,13962
