LocalTimestamp,PG
1659515140.021738,8431
1659515140.060013,8381
1659515140.098288,8273
1659515140.136905,8179
1659515140.175521,8104
1659515140.214138,8043
1659515140.255147,7991
1659515140.296156,7961
1659515140.339899,7940
1659515140.383641,7929
1659515140.427384,7916
1659515140.461217,7912
1659515140.495049,7910
1659515140.539817,7913
1659515140.584585,7910
1659515140.629353,7929
1659515140.66216,7944
1659515140.694968,7967
1659515140.739394,7981
1659515140.78382,8011
1659515140.828246,8022
1659515140.862079,8030
1659515140.895911,8036
1659515140.940337,8025
1659515140.984764,8032
1659515141.02919,8009
1659515141.067807,7958
1659515141.106423,7875
1659515141.14504,7820
1659515141.186562,7794
1659515141.228083,7768
1659515141.266358,7758
1659515141.304633,7754
1659515141.342908,7749
1659515141.381183,7746
1659515141.419458,7737
1659515141.457733,7738
1659515141.50028,7739
1659515141.542826,7744
1659515141.581785,7751
1659515141.620743,7769
1659515141.659702,7774
1659515141.700711,7785
1659515141.741719,7799
1659515141.78102,7803
1659515141.82032,7827
1659515141.85962,7836
1659515141.902167,7858
1659515141.944714,7871
1659515141.98333,7831
1659515142.021947,7755
1659515142.060564,7692
1659515142.102085,7654
1659515142.143607,7618
1659515142.182907,7611
1659515142.222207,7597
1659515142.261507,7584
1659515142.30525,7586
1659515142.348993,7567
1659515142.392736,7564
1659515142.430413,7565
1659515142.46809,7571
1659515142.505767,7582
1659515142.543444,7599
1659515142.587186,7619
1659515142.630929,7623
1659515142.674672,7643
1659515142.707992,7654
1659515142.741312,7667
1659515142.78608,7696
1659515142.830848,7706
1659515142.875616,7731
1659515142.908935,7754
1659515142.942255,7756
1659515142.986681,7713
1659515143.031108,7639
1659515143.075534,7577
1659515143.114834,7526
1659515143.154135,7514
1659515143.193435,7486
1659515143.235469,7480
1659515143.277503,7487
1659515143.315436,7472
1659515143.353369,7467
1659515143.391303,7463
1659515143.432824,7478
1659515143.474346,7481
1659515143.512962,7505
1659515143.551579,7521
1659515143.590196,7547
1659515143.628813,7558
1659515143.667429,7579
1659515143.706046,7605
1659515143.747567,7614
1659515143.789089,7641
1659515143.827706,7657
1659515143.866322,7691
1659515143.904939,7714
1659515143.943556,7732
1659515143.982172,7736
1659515144.020789,7667
1659515144.063336,7619
1659515144.105883,7576
1659515144.147404,7546
1659515144.188926,7547
1659515144.227542,7547
1659515144.266159,7548
1659515144.304776,7544
1659515144.349544,7543
1659515144.394312,7538
1659515144.43908,7551
1659515144.472912,7561
1659515144.506745,7570
1659515144.550488,7598
1659515144.59423,7610
1659515144.637973,7617
1659515144.671293,7635
1659515144.704612,7646
1659515144.749039,7673
1659515144.793465,7686
1659515144.837892,7710
1659515144.876167,7726
1659515144.914441,7753
1659515144.952716,7751
1659515144.995263,7689
1659515145.03781,7620
1659515145.07711,7553
1659515145.11641,7528
1659515145.15571,7514
1659515145.196719,7507
1659515145.237728,7507
1659515145.276687,7504
1659515145.315645,7501
1659515145.354604,7489
1659515145.393562,7509
1659515145.432521,7519
1659515145.471479,7529
1659515145.513513,7557
1659515145.555547,7571
1659515145.594164,7593
1659515145.632781,7613
1659515145.671397,7629
1659515145.712919,7650
1659515145.75444,7670
1659515145.793057,7690
1659515145.831674,7708
1659515145.870291,7742
1659515145.912325,7743
1659515145.954359,7700
1659515145.992975,7613
1659515146.031592,7550
1659515146.070209,7520
1659515146.112243,7497
1659515146.154277,7491
1659515146.192894,7486
1659515146.231511,7492
1659515146.270127,7484
1659515146.314895,7474
1659515146.359663,7483
1659515146.404432,7492
1659515146.445953,7521
1659515146.487474,7529
1659515146.526091,7550
1659515146.564708,7575
1659515146.603325,7586
1659515146.644334,7601
1659515146.685343,7623
1659515146.723959,7642
1659515146.762576,7668
1659515146.801193,7693
1659515146.839809,7716
1659515146.878426,7692
1659515146.917043,7639
1659515146.959077,7565
1659515147.001111,7520
1659515147.040069,7505
1659515147.079028,7495
1659515147.117986,7495
1659515147.156261,7498
1659515147.194536,7500
1659515147.232811,7496
1659515147.274333,7491
1659515147.315854,7495
1659515147.355838,7504
1659515147.395822,7549
1659515147.435805,7567
1659515147.476814,7596
1659515147.517823,7613
1659515147.556782,7638
1659515147.59574,7642
1659515147.634698,7655
1659515147.676733,7648
1659515147.718767,7650
1659515147.760801,7674
1659515147.802835,7671
1659515147.840768,7620
1659515147.878701,7530
1659515147.916635,7471
1659515147.961403,7443
1659515148.006171,7413
1659515148.050939,7405
1659515148.089556,7393
1659515148.128172,7402
1659515148.166789,7392
1659515148.207798,7383
1659515148.248807,7382
1659515148.288449,7390
1659515148.328091,7404
1659515148.367733,7418
1659515148.406691,7443
1659515148.445649,7456
1659515148.484608,7473
1659515148.523566,7491
1659515148.562525,7512
1659515148.601483,7533
1659515148.643517,7553
1659515148.685551,7574
1659515148.724168,7566
1659515148.762785,7481
1659515148.801402,7403
1659515148.843436,7354
1659515148.88547,7330
1659515148.924428,7301
1659515148.963387,7295
1659515149.002345,7297
1659515149.043354,7292
1659515149.084363,7295
1659515149.122638,7289
1659515149.160913,7298
1659515149.199188,7304
1659515149.241735,7333
1659515149.284281,7369
1659515149.328366,7396
1659515149.372451,7419
1659515149.416535,7439
1659515149.45481,7470
1659515149.493085,7480
1659515149.53136,7499
1659515149.573394,7511
1659515149.615428,7522
1659515149.654045,7558
1659515149.692662,7558
1659515149.731278,7514
1659515149.769895,7425
1659515149.808512,7364
1659515149.847129,7321
1659515149.889675,7295
1659515149.932222,7278
1659515149.970839,7287
1659515150.009455,7299
1659515150.048072,7306
1659515150.088568,7314
1659515150.129065,7333
1659515150.167681,7339
1659515150.206298,7362
1659515150.244915,7373
1659515150.284215,7388
1659515150.323515,7402
1659515150.362816,7419
1659515150.403824,7448
1659515150.444833,7465
1659515150.483792,7498
1659515150.52275,7501
1659515150.561709,7525
1659515150.60323,7555
1659515150.644752,7588
1659515150.684394,7620
1659515150.724036,7611
1659515150.763678,7529
1659515150.804686,7423
1659515150.845695,7376
1659515150.890805,7355
1659515150.935915,7331
1659515150.981025,7333
1659515151.013832,7326
1659515151.046639,7333
1659515151.090382,7343
1659515151.134125,7357
1659515151.177867,7383
1659515151.217168,7414
1659515151.256468,7433
1659515151.295768,7454
1659515151.336777,7471
1659515151.377786,7485
1659515151.416403,7498
1659515151.455019,7499
1659515151.493636,7514
1659515151.535157,7544
1659515151.576679,7557
1659515151.615979,7578
1659515151.655279,7599
1659515151.69458,7637
1659515151.733538,7629
1659515151.772496,7578
1659515151.811455,7481
1659515151.852976,7431
1659515151.894498,7430
1659515151.933798,7425
1659515151.973098,7439
1659515152.012398,7447
1659515152.05392,7454
1659515152.095442,7458
1659515152.1344,7474
1659515152.173358,7484
1659515152.212317,7505
1659515152.253838,7539
1659515152.29536,7567
1659515152.333293,7591
1659515152.371226,7622
1659515152.40916,7651
1659515152.450681,7681
1659515152.492203,7718
1659515152.531503,7747
1659515152.570803,7777
1659515152.610103,7803
1659515152.653846,7828
1659515152.697589,7825
1659515152.741332,7771
1659515152.774652,7668
1659515152.807971,7617
1659515152.849322,7612
1659515152.890672,7609
1659515152.932023,7615
1659515152.973374,7611
1659515153.014724,7611
1659515153.056075,7593
1659515153.095033,7599
1659515153.133992,7609
1659515153.17295,7630
1659515153.21225,7647
1659515153.251551,7668
1659515153.290851,7689
1659515153.334594,7713
1659515153.378337,7728
1659515153.422079,7759
1659515153.455399,7782
1659515153.488719,7798
1659515153.533145,7809
1659515153.577571,7823
1659515153.621998,7746
1659515153.654805,7636
1659515153.687612,7532
1659515153.73238,7462
1659515153.777148,7417
1659515153.821916,7372
1659515153.860875,7349
1659515153.899833,7327
1659515153.938792,7315
1659515153.9798,7312
1659515154.020809,7327
1659515154.06011,7346
1659515154.09941,7366
1659515154.13871,7389
1659515154.181257,7409
1659515154.223804,7426
1659515154.26242,7442
1659515154.301037,7459
1659515154.339653,7483
1659515154.378612,7501
1659515154.41757,7528
1659515154.456529,7524
1659515154.49805,7460
1659515154.539572,7353
1659515154.577847,7277
1659515154.616122,7250
1659515154.654397,7230
1659515154.696431,7216
1659515154.738465,7222
1659515154.777424,7226
1659515154.816382,7217
1659515154.85534,7213
1659515154.896349,7222
1659515154.937358,7233
1659515154.976317,7266
1659515155.015275,7283
1659515155.054234,7304
1659515155.099344,7321
1659515155.144453,7341
1659515155.189563,7358
1659515155.222883,7376
1659515155.256202,7402
1659515155.300287,7421
1659515155.344372,7444
1659515155.388456,7415
1659515155.43049,7326
1659515155.472524,7250
1659515155.510799,7222
1659515155.549074,7212
1659515155.587349,7211
1659515155.625966,7198
1659515155.664583,7199
1659515155.703199,7187
1659515155.745234,7180
1659515155.787268,7188
1659515155.825884,7206
1659515155.864501,7227
1659515155.903118,7268
1659515155.941393,7283
1659515155.979668,7307
1659515156.017943,7334
1659515156.059464,7350
1659515156.100986,7366
1659515156.140628,7378
1659515156.18027,7407
1659515156.219912,7432
1659515156.260921,7433
1659515156.301929,7362
1659515156.340888,7267
1659515156.379846,7220
1659515156.418805,7201
1659515156.460839,7197
1659515156.502873,7212
1659515156.541831,7207
1659515156.58079,7205
1659515156.619748,7208
1659515156.660757,7223
1659515156.701766,7239
1659515156.741066,7258
1659515156.780367,7282
1659515156.819667,7294
1659515156.86341,7329
1659515156.907152,7358
1659515156.950895,7374
1659515156.991904,7401
1659515157.032913,7426
1659515157.072555,7449
1659515157.112197,7473
1659515157.151839,7496
1659515157.19336,7474
1659515157.234882,7409
1659515157.273499,7310
1659515157.312115,7270
1659515157.350732,7261
1659515157.392766,7265
1659515157.4348,7275
1659515157.474442,7275
1659515157.514084,7277
1659515157.553726,7269
1659515157.592343,7286
1659515157.63096,7309
1659515157.669576,7328
1659515157.712123,7354
1659515157.75467,7378
1659515157.793286,7402
1659515157.831903,7426
1659515157.87052,7450
1659515157.909137,7472
1659515157.947753,7502
1659515157.98637,7528
1659515158.028917,7541
1659515158.071463,7523
1659515158.110627,7429
1659515158.149791,7354
1659515158.188954,7307
1659515158.228117,7296
1659515158.267281,7315
1659515158.309571,7317
1659515158.351862,7315
1659515158.394152,7297
1659515158.436443,7302
1659515158.477452,7300
1659515158.518461,7316
1659515158.557419,7333
1659515158.596377,7350
1659515158.635336,7376
1659515158.67737,7393
1659515158.719404,7414
1659515158.757679,7439
1659515158.795954,7453
1659515158.834229,7476
1659515158.872504,7497
1659515158.910779,7470
1659515158.949054,7375
1659515158.990575,7279
1659515159.032097,7227
1659515159.071055,7199
1659515159.110014,7192
1659515159.148972,7184
1659515159.189981,7186
1659515159.23099,7186
1659515159.269948,7174
1659515159.308907,7180
1659515159.347865,7186
1659515159.389387,7209
1659515159.430908,7228
1659515159.469867,7255
1659515159.508825,7270
1659515159.547784,7292
1659515159.589305,7316
1659515159.630827,7325
1659515159.669785,7349
1659515159.708744,7371
1659515159.747702,7397
1659515159.792129,7367
1659515159.836555,7272
1659515159.880981,7183
1659515159.92199,7137
1659515159.962999,7122
1659515160.002641,7105
1659515160.042283,7116
1659515160.081925,7129
1659515160.1202,7123
1659515160.158475,7124
1659515160.19675,7130
1659515160.238271,7153
1659515160.279793,7170
1659515160.318409,7203
1659515160.357026,7223
1659515160.395643,7245
1659515160.437677,7278
1659515160.479711,7292
1659515160.51867,7313
1659515160.557628,7341
1659515160.596586,7369
1659515160.636228,7397
1659515160.67587,7408
1659515160.715512,7345
1659515160.756521,7245
1659515160.79753,7192
1659515160.836488,7162
1659515160.875447,7151
1659515160.914405,7151
1659515160.956952,7161
1659515160.999499,7162
1659515161.038116,7155
1659515161.076732,7155
1659515161.115349,7164
1659515161.155845,7191
1659515161.196342,7202
1659515161.2353,7217
1659515161.274258,7251
1659515161.313217,7275
1659515161.355251,7299
1659515161.397285,7322
1659515161.441028,7339
1659515161.484771,7378
1659515161.528514,7399
1659515161.566789,7422
1659515161.605064,7397
1659515161.643339,7313
1659515161.685373,7228
1659515161.727407,7185
1659515161.766024,7160
1659515161.80464,7134
1659515161.843257,7146
1659515161.885291,7155
1659515161.927325,7161
1659515161.966625,7171
1659515162.005926,7183
1659515162.045226,7198
1659515162.083501,7230
1659515162.121776,7255
1659515162.160051,7283
1659515162.20106,7315
1659515162.242069,7346
1659515162.281027,7378
1659515162.319985,7403
1659515162.358944,7418
1659515162.397561,7448
1659515162.436177,7477
1659515162.474794,7506
1659515162.516315,7532
1659515162.557837,7487
1659515162.596454,7406
1659515162.635071,7324
1659515162.673687,7308
1659515162.714696,7274
1659515162.755705,7256
1659515162.800131,7275
1659515162.844558,7274
1659515162.888984,7278
1659515162.922816,7270
1659515162.956649,7278
1659515163.001075,7292
1659515163.045501,7312
1659515163.089927,7334
1659515163.123247,7349
1659515163.156567,7382
1659515163.201335,7391
1659515163.246103,7407
1659515163.290871,7441
1659515163.32983,7456
1659515163.368788,7483
1659515163.407747,7510
1659515163.444911,7529
1659515163.482075,7500
1659515163.519239,7419
1659515163.556404,7342
1659515163.60083,7305
1659515163.645256,7289
1659515163.689683,7279
1659515163.731204,7282
1659515163.772726,7298
1659515163.812368,7299
1659515163.85201,7300
1659515163.891651,7300
1659515163.933173,7315
1659515163.974694,7340
1659515164.012969,7370
1659515164.051244,7395
1659515164.08952,7414
1659515164.129161,7441
1659515164.168803,7460
1659515164.208445,7495
1659515164.250479,7512
1659515164.292514,7532
1659515164.330788,7567
1659515164.369063,7592
1659515164.407338,7617
1659515164.448347,7591
1659515164.489356,7513
1659515164.528656,7433
1659515164.567957,7392
1659515164.607257,7363
1659515164.645532,7346
1659515164.683807,7360
1659515164.722082,7364
1659515164.763091,7367
1659515164.8041,7368
1659515164.842716,7373
1659515164.881333,7385
1659515164.91995,7412
1659515164.961984,7437
1659515165.004018,7443
1659515165.048444,7474
1659515165.09287,7497
1659515165.137297,7523
1659515165.170104,7544
1659515165.202911,7572
1659515165.247337,7603
1659515165.291764,7638
1659515165.33619,7659
1659515165.375149,7663
1659515165.414107,7628
1659515165.453065,7540
1659515165.495612,7481
1659515165.538159,7461
1659515165.576434,7437
1659515165.614709,7433
1659515165.652984,7445
1659515165.69348,7447
1659515165.733976,7441
1659515165.772935,7449
1659515165.811893,7471
1659515165.850852,7490
1659515165.88981,7517
1659515165.928769,7539
1659515165.967727,7569
1659515166.009248,7597
1659515166.05077,7620
1659515166.09007,7645
1659515166.12937,7671
1659515166.168671,7688
1659515166.210705,7721
1659515166.252739,7739
1659515166.291014,7688
1659515166.329289,7600
1659515166.367564,7535
1659515166.406864,7491
1659515166.446164,7482
1659515166.485464,7449
1659515166.528011,7449
1659515166.570558,7455
1659515166.611054,7449
1659515166.651551,7450
1659515166.690167,7446
1659515166.728784,7474
1659515166.767401,7495
1659515166.812169,7525
1659515166.856937,7540
1659515166.901705,7558
1659515166.935024,7599
1659515166.968344,7612
1659515167.012429,7632
1659515167.056513,7655
1659515167.100598,7690
1659515167.13443,7706
1659515167.168262,7687
1659515167.212689,7599
1659515167.257115,7509
1659515167.301542,7474
1659515167.340158,7445
1659515167.378775,7419
1659515167.417392,7430
1659515167.460451,7430
1659515167.50351,7432
1659515167.542127,7434
1659515167.580744,7437
1659515167.61936,7449
1659515167.659857,7468
1659515167.700353,7493
1659515167.739653,7514
1659515167.778954,7546
1659515167.818254,7562
1659515167.85687,7584
1659515167.895487,7618
1659515167.934104,7632
1659515167.975113,7667
1659515168.016122,7686
1659515168.054738,7694
1659515168.093355,7634
1659515168.131972,7551
1659515168.172981,7488
1659515168.213989,7469
1659515168.252948,7456
1659515168.291906,7459
1659515168.330865,7466
1659515168.375975,7471
1659515168.421084,7458
1659515168.466194,7459
1659515168.498489,7475
1659515168.530783,7502
1659515168.574868,7525
1659515168.618953,7554
1659515168.663037,7574
1659515168.700714,7603
1659515168.738391,7631
1659515168.776068,7652
1659515168.813745,7688
1659515168.857487,7709
1659515168.90123,7738
1659515168.944973,7765
1659515168.97778,7741
1659515169.010587,7651
1659515169.055014,7577
1659515169.09944,7543
1659515169.143866,7523
1659515169.182825,7514
1659515169.221783,7509
1659515169.260742,7524
1659515169.302263,7522
1659515169.343785,7518
1659515169.383085,7526
1659515169.422385,7539
1659515169.461685,7562
1659515169.500302,7588
1659515169.538919,7611
1659515169.577535,7639
1659515169.620082,7660
1659515169.662629,7698
1659515169.701587,7710
1659515169.740546,7734
1659515169.779504,7771
1659515169.821538,7794
1659515169.863573,7819
1659515169.901848,7794
1659515169.940122,7711
1659515169.978397,7626
1659515170.017356,7600
1659515170.056314,7565
1659515170.095273,7551
1659515170.137307,7567
1659515170.179341,7565
1659515170.217958,7562
1659515170.256574,7559
1659515170.295191,7561
1659515170.3362,7568
1659515170.377209,7595
1659515170.421293,7614
1659515170.465378,7640
1659515170.509463,7673
1659515170.543295,7688
1659515170.577127,7713
1659515170.621895,7739
1659515170.666663,7760
1659515170.711432,7780
1659515170.750048,7815
1659515170.788665,7781
1659515170.827282,7695
1659515170.868803,7627
1659515170.910325,7591
1659515170.948941,7581
1659515170.987558,7572
1659515171.026175,7568
1659515171.068722,7580
1659515171.111268,7575
1659515171.149543,7578
1659515171.187818,7585
1659515171.226093,7614
1659515171.26471,7623
1659515171.303327,7656
1659515171.341943,7663
1659515171.38056,7684
1659515171.419177,7724
1659515171.457793,7746
1659515171.49829,7766
1659515171.538786,7788
1659515171.578086,7815
1659515171.617386,7833
1659515171.656687,7829
1659515171.698721,7754
1659515171.740755,7657
1659515171.784839,7607
1659515171.828924,7571
1659515171.873008,7549
1659515171.906328,7547
1659515171.939648,7551
1659515171.984416,7549
1659515172.029184,7540
1659515172.073952,7558
1659515172.112569,7567
1659515172.151186,7602
1659515172.189802,7631
1659515172.230811,7647
1659515172.27182,7659
1659515172.31112,7656
1659515172.35042,7680
1659515172.389721,7699
1659515172.430217,7732
1659515172.470713,7755
1659515172.510014,7765
1659515172.549314,7708
1659515172.588614,7614
1659515172.627572,7543
1659515172.666531,7505
1659515172.705489,7487
1659515172.747011,7475
1659515172.788532,7459
1659515172.827491,7446
1659515172.866449,7443
1659515172.905408,7434
1659515172.947954,7445
1659515172.990501,7466
1659515173.029118,7499
1659515173.067734,7526
1659515173.106351,7564
1659515173.14531,7582
1659515173.184268,7620
1659515173.223227,7642
1659515173.264748,7670
1659515173.30627,7697
1659515173.348816,7718
1659515173.391363,7694
1659515173.429638,7605
1659515173.467913,7512
1659515173.506188,7458
1659515173.547709,7424
1659515173.589231,7385
1659515173.627848,7373
1659515173.666465,7391
1659515173.705081,7375
1659515173.749507,7369
1659515173.793934,7363
1659515173.83836,7388
1659515173.872192,7402
1659515173.906025,7429
1659515173.949289,7433
1659515173.992553,7447
1659515174.035818,7480
1659515174.079082,7488
1659515174.122347,7514
1659515174.161647,7535
1659515174.200947,7560
1659515174.240247,7592
1659515174.278522,7637
1659515174.316797,7650
1659515174.355072,7583
1659515174.393347,7515
1659515174.431622,7473
1659515174.469897,7456
1659515174.511931,7455
1659515174.553965,7458
1659515174.59224,7469
1659515174.630515,7467
1659515174.66879,7458
1659515174.707407,7464
1659515174.746024,7482
1659515174.784641,7496
1659515174.825649,7518
1659515174.866658,7542
1659515174.908692,7562
1659515174.950727,7592
1659515174.990027,7613
1659515175.029327,7645
1659515175.068627,7665
1659515175.109636,7690
1659515175.150645,7714
1659515175.190287,7753
1659515175.229929,7780
1659515175.269571,7756
1659515175.313655,7669
1659515175.35774,7596
1659515175.401824,7546
1659515175.435657,7534
1659515175.469489,7522
1659515175.513915,7528
1659515175.558342,7535
1659515175.602768,7533
1659515175.641726,7525
1659515175.680685,7538
1659515175.719643,7553
1659515175.757918,7569
1659515175.796193,7589
1659515175.834468,7594
1659515175.877015,7607
1659515175.919562,7630
1659515175.958179,7633
1659515175.996795,7648
1659515176.035412,7658
1659515176.076933,7686
1659515176.118455,7708
1659515176.157755,7746
1659515176.197055,7726
1659515176.236356,7657
1659515176.27839,7588
1659515176.320424,7539
1659515176.358699,7526
1659515176.396974,7520
1659515176.435249,7536
1659515176.477795,7532
1659515176.520342,7529
1659515176.558959,7525
1659515176.597576,7531
1659515176.636192,7549
1659515176.677714,7564
1659515176.719235,7593
1659515176.758194,7605
1659515176.797152,7628
1659515176.836111,7649
1659515176.880537,7668
1659515176.924963,7694
1659515176.96939,7711
1659515177.001172,7743
1659515177.032954,7772
1659515177.077721,7789
1659515177.122489,7788
1659515177.167258,7703
1659515177.206216,7617
1659515177.245174,7568
1659515177.284133,7538
1659515177.325655,7521
1659515177.367176,7520
1659515177.406134,7514
1659515177.445093,7501
1659515177.484051,7486
1659515177.526085,7474
1659515177.56812,7464
1659515177.606053,7483
1659515177.643986,7497
1659515177.681919,7525
1659515177.720878,7528
1659515177.759836,7548
1659515177.798795,7577
1659515177.840829,7601
1659515177.882863,7618
1659515177.920796,7640
1659515177.958729,7654
1659515177.996663,7676
1659515178.037671,7712
1659515178.07868,7657
1659515178.117639,7549
1659515178.156597,7475
1659515178.195556,7437
1659515178.237077,7426
1659515178.278599,7415
1659515178.317557,7424
1659515178.356516,7425
1659515178.395474,7426
1659515178.437508,7412
1659515178.479542,7417
1659515178.523969,7432
1659515178.568395,7440
1659515178.612821,7456
1659515178.65178,7469
1659515178.690738,7486
1659515178.729697,7497
1659515178.772243,7521
1659515178.81479,7540
1659515178.853065,7558
1659515178.89134,7590
1659515178.929615,7615
1659515178.971137,7601
1659515179.012658,7503
1659515179.051275,7395
1659515179.089891,7357
1659515179.128508,7329
1659515179.167808,7322
1659515179.207108,7327
1659515179.246409,7339
1659515179.28793,7329
1659515179.329452,7323
1659515179.370973,7334
1659515179.412495,7350
1659515179.451453,7372
1659515179.490412,7394
1659515179.52937,7424
1659515179.56867,7443
1659515179.60797,7466
1659515179.647271,7487
1659515179.688792,7523
1659515179.730314,7565
1659515179.769614,7600
1659515179.808914,7636
1659515179.848214,7680
1659515179.886489,7658
1659515179.924764,7571
1659515179.963039,7462
1659515180.005073,7399
1659515180.047107,7375
1659515180.088116,7348
1659515180.129125,7354
1659515180.167742,7356
1659515180.206359,7352
1659515180.244976,7356
1659515180.288718,7370
1659515180.332461,7386
1659515180.376204,7403
1659515180.410036,7439
1659515180.443869,7459
1659515180.487953,7477
1659515180.532038,7495
1659515180.576122,7525
1659515180.615081,7547
1659515180.654039,7581
1659515180.692998,7601
1659515180.734007,7613
1659515180.775016,7616
1659515180.814316,7539
1659515180.853616,7446
1659515180.892916,7394
1659515180.934438,7362
1659515180.975959,7349
1659515181.014918,7356
1659515181.053876,7366
1659515181.092834,7354
1659515181.131109,7362
1659515181.169384,7368
1659515181.207659,7388
1659515181.248156,7417
1659515181.288652,7443
1659515181.327952,7461
1659515181.367252,7488
1659515181.406553,7511
1659515181.444828,7530
1659515181.483103,7550
1659515181.521378,7570
1659515181.562899,7592
1659515181.60442,7616
1659515181.646967,7582
1659515181.689514,7503
1659515181.728472,7421
1659515181.767431,7382
1659515181.806389,7345
1659515181.847911,7333
1659515181.889432,7343
1659515181.928733,7346
1659515181.968033,7353
1659515182.007333,7367
1659515182.052101,7376
1659515182.096869,7396
1659515182.141637,7426
1659515182.173419,7465
1659515182.205201,7485
1659515182.249969,7512
1659515182.294737,7559
1659515182.339505,7588
1659515182.382052,7603
1659515182.424598,7622
1659515182.462532,7653
1659515182.500465,7687
1659515182.538398,7682
1659515182.577357,7582
1659515182.616315,7485
1659515182.655273,7447
1659515182.697308,7420
1659515182.739342,7412
1659515182.777958,7413
1659515182.816575,7423
1659515182.855192,7416
1659515182.897739,7421
1659515182.940285,7424
1659515182.979586,7428
1659515183.018886,7451
1659515183.058186,7474
1659515183.096803,7486
1659515183.135419,7507
1659515183.174036,7529
1659515183.214532,7556
1659515183.255029,7590
1659515183.294671,7627
1659515183.334313,7665
1659515183.373955,7704
1659515183.414451,7719
1659515183.454947,7661
1659515183.493564,7554
1659515183.532181,7482
1659515183.570797,7445
1659515183.611806,7419
1659515183.652815,7398
1659515183.691773,7395
1659515183.730732,7387
1659515183.76969,7386
1659515183.813775,7369
1659515183.85786,7383
1659515183.901944,7383
1659515183.943978,7410
1659515183.986012,7429
1659515184.024629,7448
1659515184.063246,7466
1659515184.101862,7484
1659515184.143384,7500
1659515184.184906,7520
1659515184.224547,7546
1659515184.264189,7572
1659515184.303831,7610
1659515184.342448,7632
1659515184.381065,7588
1659515184.419682,7496
1659515184.460178,7415
1659515184.500674,7378
1659515184.540863,7374
1659515184.581051,7373
1659515184.62124,7381
1659515184.661429,7380
1659515184.701618,7388
1659515184.740234,7390
1659515184.778851,7401
1659515184.817468,7415
1659515184.858477,7437
1659515184.899486,7482
1659515184.939127,7500
1659515184.97877,7521
1659515185.018411,7547
1659515185.060446,7580
1659515185.10248,7600
1659515185.141096,7640
1659515185.179713,7674
1659515185.21833,7708
1659515185.260364,7725
1659515185.302398,7670
1659515185.341357,7581
1659515185.380315,7534
1659515185.419273,7526
1659515185.461308,7515
1659515185.503342,7528
1659515185.5423,7541
1659515185.581259,7542
1659515185.620217,7549
1659515185.664302,7545
1659515185.708386,7556
1659515185.752471,7590
1659515185.791087,7606
1659515185.829704,7629
1659515185.868321,7661
1659515185.909842,7684
1659515185.951364,7711
1659515185.990322,7732
1659515186.029281,7763
1659515186.068239,7793
1659515186.106514,7826
1659515186.144789,7859
1659515186.183064,7845
1659515186.226124,7777
1659515186.269183,7703
1659515186.3078,7667
1659515186.346416,7657
1659515186.385033,7648
1659515186.426042,7650
1659515186.467051,7663
1659515186.506009,7657
1659515186.544968,7650
1659515186.583926,7667
1659515186.622885,7677
1659515186.661843,7704
1659515186.700801,7724
1659515186.741298,7745
1659515186.781794,7779
1659515186.823316,7801
1659515186.864837,7834
1659515186.903454,7853
1659515186.94207,7881
1659515186.980687,7911
1659515187.024772,7954
1659515187.068856,7957
1659515187.112941,7923
1659515187.147286,7833
1659515187.181631,7751
1659515187.226399,7703
1659515187.271167,7683
1659515187.315935,7673
1659515187.348229,7681
1659515187.380524,7704
1659515187.425292,7689
1659515187.47006,7677
1659515187.514828,7676
1659515187.554128,7681
1659515187.593429,7691
1659515187.632729,7706
1659515187.673225,7730
1659515187.713721,7750
1659515187.752338,7771
1659515187.790955,7802
1659515187.829571,7820
1659515187.868188,7848
1659515187.906805,7877
1659515187.945422,7906
1659515187.986943,7926
1659515188.028465,7875
1659515188.067423,7797
1659515188.106381,7729
1659515188.14534,7697
1659515188.183957,7680
1659515188.222573,7691
1659515188.26119,7683
1659515188.303224,7689
1659515188.345258,7686
1659515188.387292,7689
1659515188.429327,7704
1659515188.468627,7721
1659515188.507927,7747
1659515188.547227,7769
1659515188.591654,7794
1659515188.63608,7826
1659515188.680506,7843
1659515188.713826,7867
1659515188.747146,7891
1659515188.791914,7908
1659515188.836682,7947
1659515188.88145,7965
1659515188.914769,7966
1659515188.948089,7891
1659515188.991832,7807
1659515189.035575,7767
1659515189.079318,7753
1659515189.118276,7746
1659515189.157235,7761
1659515189.196193,7762
1659515189.236689,7754
1659515189.277186,7757
1659515189.316144,7753
1659515189.355103,7756
1659515189.394061,7792
1659515189.436095,7812
1659515189.478129,7832
1659515189.516746,7852
1659515189.555363,7884
1659515189.593979,7899
1659515189.632596,7926
1659515189.671213,7940
1659515189.70983,7951
1659515189.749813,7979
1659515189.789797,7974
1659515189.829781,7902
1659515189.869764,7813
1659515189.909748,7745
1659515189.951013,7718
1659515189.992278,7697
1659515190.033544,7695
1659515190.074809,7692
1659515190.113425,7693
1659515190.152042,7687
1659515190.190659,7676
1659515190.232693,7690
1659515190.274727,7698
1659515190.31266,7714
1659515190.350594,7751
1659515190.388527,7762
1659515190.430561,7786
1659515190.472595,7811
1659515190.511554,7835
1659515190.550512,7852
1659515190.58947,7883
1659515190.630992,7914
1659515190.672513,7932
1659515190.711814,7905
1659515190.751114,7821
1659515190.790414,7759
1659515190.832448,7737
1659515190.874482,7733
1659515190.912757,7724
1659515190.951032,7739
1659515190.989307,7732
1659515191.034075,7720
1659515191.078843,7723
1659515191.123611,7723
1659515191.157444,7740
1659515191.191276,7741
1659515191.235361,7752
1659515191.279445,7781
1659515191.32353,7798
1659515191.364539,7819
1659515191.405547,7828
1659515191.444848,7855
1659515191.484148,7884
1659515191.523448,7904
1659515191.561723,7858
1659515191.599998,7773
1659515191.638273,7713
1659515191.68082,7674
1659515191.723366,7657
1659515191.762667,7652
1659515191.801967,7651
1659515191.841267,7644
1659515191.882276,7641
1659515191.923285,7641
1659515191.962243,7645
1659515192.001202,7660
1659515192.04016,7684
1659515192.079802,7705
1659515192.119444,7733
1659515192.159086,7749
1659515192.199582,7762
1659515192.240079,7788
1659515192.278695,7815
1659515192.317312,7840
1659515192.355929,7869
1659515192.39745,7893
1659515192.438972,7872
1659515192.47793,7809
1659515192.516889,7713
1659515192.555847,7659
1659515192.596856,7628
1659515192.637865,7608
1659515192.677165,7598
1659515192.716465,7594
1659515192.755765,7597
1659515192.796774,7574
1659515192.837783,7579
1659515192.88221,7589
1659515192.926636,7609
1659515192.971062,7630
1659515193.010362,7645
1659515193.049663,7667
1659515193.088963,7689
1659515193.130484,7711
1659515193.172006,7735
1659515193.210281,7756
1659515193.248556,7780
1659515193.286831,7804
1659515193.328352,7834
1659515193.369874,7855
1659515193.408832,7821
1659515193.447791,7741
1659515193.486749,7660
1659515193.525024,7624
1659515193.563299,7607
1659515193.601574,7593
1659515193.643095,7593
1659515193.684617,7599
1659515193.723234,7595
1659515193.761851,7593
1659515193.800467,7598
1659515193.839426,7615
1659515193.878384,7631
1659515193.917343,7661
1659515193.959889,7685
1659515194.002436,7713
1659515194.041736,7729
1659515194.081037,7750
1659515194.120337,7782
1659515194.161858,7799
1659515194.20338,7821
1659515194.241996,7848
1659515194.280613,7885
1659515194.31923,7910
1659515194.362289,7889
1659515194.405349,7802
1659515194.449091,7735
1659515194.492834,7706
1659515194.536577,7685
1659515194.569384,7671
1659515194.602191,7662
1659515194.646617,7658
1659515194.691044,7646
1659515194.73547,7666
1659515194.774087,7655
1659515194.812704,7668
1659515194.85132,7703
1659515194.893354,7712
1659515194.935389,7732
1659515194.974518,7750
1659515195.013647,7779
1659515195.052777,7798
1659515195.091906,7826
1659515195.131035,7847
1659515195.170165,7857
1659515195.208781,7898
1659515195.247398,7928
1659515195.286015,7959
1659515195.328561,7991
1659515195.371108,7932
1659515195.409725,7855
1659515195.448342,7812
1659515195.486958,7782
1659515195.527455,7764
1659515195.567951,7758
1659515195.607251,7756
1659515195.646551,7739
1659515195.685851,7728
1659515195.726348,7724
1659515195.766844,7742
1659515195.810929,7752
1659515195.855013,7777
1659515195.899098,7795
1659515195.938398,7822
1659515195.977698,7834
1659515196.016998,7846
1659515196.05852,7871
1659515196.100041,7888
1659515196.138316,7913
1659515196.176591,7937
1659515196.214866,7957
1659515196.2569,7972
1659515196.298934,7929
1659515196.338235,7844
1659515196.377535,7768
1659515196.416835,7739
1659515196.45511,7717
1659515196.493385,7711
1659515196.53166,7715
1659515196.573694,7715
1659515196.615728,7711
1659515196.654345,7703
1659515196.692962,7706
1659515196.731578,7729
1659515196.769853,7762
1659515196.808128,7783
1659515196.846403,7805
1659515196.88895,7830
1659515196.931497,7855
1659515196.969772,7892
1659515197.008047,7913
1659515197.046322,7942
1659515197.087331,7982
1659515197.12834,8003
1659515197.16764,8033
1659515197.20694,8023
1659515197.24624,7943
1659515197.288787,7844
1659515197.331333,7801
1659515197.375418,7769
1659515197.419503,7734
1659515197.463587,7728
1659515197.49742,7717
1659515197.531252,7700
1659515197.575678,7692
1659515197.620105,7705
1659515197.664531,7718
1659515197.702806,7750
1659515197.741081,7780
1659515197.779356,7805
1659515197.821903,7836
1659515197.864449,7844
1659515197.903408,7875
1659515197.942366,7889
1659515197.981324,7904
1659515198.021821,7934
1659515198.062317,7935
1659515198.100934,7871
1659515198.13955,7761
1659515198.178167,7691
1659515198.217468,7645
1659515198.256768,7624
1659515198.296068,7611
1659515198.337589,7608
1659515198.379111,7607
1659515198.418069,7593
1659515198.457028,7583
1659515198.495986,7585
1659515198.53802,7601
1659515198.580055,7625
1659515198.618671,7630
1659515198.657288,7651
1659515198.695905,7662
1659515198.735205,7667
1659515198.774505,7687
1659515198.813805,7696
1659515198.854301,7724
1659515198.894798,7678
1659515198.936319,7586
1659515198.977841,7516
1659515199.016116,7473
1659515199.054391,7450
1659515199.092666,7443
1659515199.137092,7447
1659515199.181518,7446
1659515199.225945,7463
1659515199.259777,7451
1659515199.293609,7466
1659515199.337352,7493
1659515199.381095,7516
1659515199.424838,7546
1659515199.463454,7566
1659515199.502071,7598
1659515199.540688,7612
1659515199.58221,7651
1659515199.623731,7680
1659515199.663031,7696
1659515199.702331,7680
1659515199.741632,7605
1659515199.783153,7529
1659515199.824675,7504
1659515199.863633,7493
1659515199.902591,7498
1659515199.94155,7520
1659515199.979825,7530
1659515200.0181,7534
1659515200.056375,7546
1659515200.098409,7559
1659515200.140443,7589
1659515200.179743,7617
1659515200.219043,7652
1659515200.258344,7680
1659515200.29884,7701
1659515200.339336,7733
1659515200.378295,7749
1659515200.417253,7788
1659515200.456212,7816
1659515200.499271,7841
1659515200.54233,7859
1659515200.580947,7814
1659515200.619564,7742
1659515200.65818,7680
1659515200.699189,7672
1659515200.740198,7679
1659515200.77984,7691
1659515200.819482,7692
1659515200.859124,7693
1659515200.901158,7695
1659515200.943192,7700
1659515200.981809,7723
1659515201.020426,7758
1659515201.059042,7790
1659515201.103469,7822
1659515201.147895,7838
1659515201.192321,7850
1659515201.232818,7857
1659515201.273314,7866
1659515201.311247,7869
1659515201.34918,7885
1659515201.387114,7910
1659515201.426414,7918
1659515201.465714,7882
1659515201.505014,7770
1659515201.547048,7703
1659515201.589082,7681
1659515201.627699,7665
1659515201.666316,7669
1659515201.704933,7669
1659515201.746967,7682
1659515201.789001,7680
1659515201.827959,7693
1659515201.866918,7709
1659515201.905876,7724
1659515201.944493,7746
1659515201.98311,7758
1659515202.021726,7767
1659515202.064273,7778
1659515202.10682,7797
1659515202.145095,7813
1659515202.18337,7840
1659515202.221645,7873
1659515202.262654,7900
1659515202.303663,7948
1659515202.341938,7950
1659515202.380213,7886
1659515202.418488,7793
1659515202.461034,7731
1659515202.503581,7708
1659515202.547324,7673
1659515202.591067,7655
1659515202.634809,7658
1659515202.668129,7653
1659515202.701449,7651
1659515202.743227,7652
1659515202.785005,7655
1659515202.826782,7668
1659515202.86856,7688
1659515202.909569,7700
1659515202.950578,7717
1659515202.99022,7739
1659515203.029862,7755
1659515203.069504,7771
1659515203.111538,7808
1659515203.153572,7850
1659515203.191847,7889
1659515203.230122,7922
1659515203.268397,7960
1659515203.307355,7936
1659515203.346314,7852
1659515203.385272,7755
1659515203.427306,7715
1659515203.469341,7700
1659515203.507957,7693
1659515203.546574,7701
1659515203.585191,7701
1659515203.626199,7702
1659515203.667208,7702
1659515203.706509,7723
1659515203.745809,7732
1659515203.785109,7756
1659515203.827656,7781
1659515203.870203,7800
1659515203.908819,7825
1659515203.947436,7848
1659515203.986053,7870
1659515204.030821,7886
1659515204.075589,7927
1659515204.120357,7950
1659515204.161878,7974
1659515204.2034,8013
1659515204.242017,8039
1659515204.280633,8053
1659515204.31925,7994
1659515204.361797,7901
1659515204.404343,7844
1659515204.44296,7836
1659515204.481577,7834
1659515204.520194,7837
1659515204.55881,7859
1659515204.597427,7848
1659515204.636044,7857
1659515204.677053,7856
1659515204.718061,7862
1659515204.75702,7890
1659515204.795979,7902
1659515204.834937,7929
1659515204.876458,7952
1659515204.91798,7982
1659515204.956938,8006
1659515204.995897,8038
1659515205.034855,8056
1659515205.073814,8077
1659515205.112772,8107
1659515205.151731,8136
1659515205.192739,8168
1659515205.233748,8171
1659515205.272707,8118
1659515205.311665,8028
1659515205.350624,7969
1659515205.392658,7947
1659515205.434692,7942
1659515205.472625,7958
1659515205.510559,7952
1659515205.548492,7938
1659515205.592918,7932
1659515205.637344,7933
1659515205.681771,7938
1659515205.723292,7955
1659515205.764814,7973
1659515205.803089,7987
1659515205.841364,8006
1659515205.879639,8033
1659515205.919281,8045
1659515205.958922,8080
1659515205.998564,8095
1659515206.040599,8113
1659515206.082633,8147
1659515206.120908,8167
1659515206.159183,8174
1659515206.197458,8118
1659515206.238979,8024
1659515206.280501,7964
1659515206.320143,7947
1659515206.359785,7937
1659515206.399426,7932
1659515206.438043,7937
1659515206.47666,7944
1659515206.515277,7934
1659515206.556798,7941
1659515206.59832,7938
1659515206.637278,7956
1659515206.676236,7989
1659515206.715195,8007
1659515206.756716,8022
1659515206.798238,8044
1659515206.836855,8068
1659515206.875471,8096
1659515206.914088,8112
1659515206.95561,8135
1659515206.997131,8169
1659515207.037115,8191
1659515207.077098,8214
1659515207.117082,8202
1659515207.157066,8130
1659515207.19705,8047
1659515207.242159,8016
1659515207.287269,8010
1659515207.332379,8007
1659515207.365186,8013
1659515207.397993,8024
1659515207.44242,8009
1659515207.486846,8007
1659515207.531272,8014
1659515207.57023,8026
1659515207.609189,8044
1659515207.648147,8061
1659515207.690181,8085
1659515207.732216,8101
1659515207.770491,8126
1659515207.808766,8142
1659515207.847041,8169
1659515207.888562,8192
1659515207.930084,8213
1659515207.968359,8243
1659515208.006634,8264
1659515208.044909,8229
1659515208.083184,8138
1659515208.121459,8079
1659515208.159734,8038
1659515208.201767,8040
1659515208.243802,8029
1659515208.28276,8017
1659515208.321719,8010
1659515208.360677,7979
1659515208.399636,7963
1659515208.438594,7968
1659515208.477552,7979
1659515208.519074,7993
1659515208.560596,8011
1659515208.602117,8023
1659515208.643638,8035
1659515208.682597,8055
1659515208.721555,8060
1659515208.760514,8074
1659515208.804257,8083
1659515208.848,8107
1659515208.891742,8133
1659515208.925062,8155
1659515208.958382,8126
1659515209.002125,8017
1659515209.045867,7921
1659515209.08961,7866
1659515209.12293,7828
1659515209.15625,7801
1659515209.200676,7778
1659515209.245102,7760
1659515209.289529,7755
1659515209.328829,7729
1659515209.368129,7723
1659515209.407429,7734
1659515209.448438,7750
1659515209.489447,7762
1659515209.528747,7799
1659515209.568047,7821
1659515209.607347,7845
1659515209.646648,7867
1659515209.685948,7886
1659515209.725248,7923
1659515209.76677,7933
1659515209.808291,7958
1659515209.84725,7971
1659515209.886208,7997
1659515209.925167,7973
1659515209.963783,7900
1659515210.0024,7836
1659515210.041017,7797
1659515210.082538,7790
1659515210.12406,7765
1659515210.166094,7756
1659515210.208128,7765
1659515210.246745,7743
1659515210.285361,7743
1659515210.323978,7754
1659515210.368404,7773
1659515210.412831,7794
1659515210.457257,7825
1659515210.491089,7858
1659515210.524922,7878
1659515210.56969,7903
1659515210.614458,7930
1659515210.659226,7949
1659515210.69152,7983
1659515210.723815,7992
1659515210.768583,8017
1659515210.813351,8054
1659515210.858119,8078
1659515210.897419,8108
1659515210.936719,8108
1659515210.97602,8047
1659515211.017541,7955
1659515211.059063,7915
1659515211.097679,7880
1659515211.136296,7866
1659515211.174913,7878
1659515211.21353,7873
1659515211.252146,7854
1659515211.290763,7836
1659515211.331259,7837
1659515211.371756,7852
1659515211.410372,7869
1659515211.448989,7875
1659515211.487606,7887
1659515211.52964,7914
1659515211.571674,7922
1659515211.610291,7934
1659515211.648907,7955
1659515211.687524,7969
1659515211.729046,7989
1659515211.770567,8014
1659515211.809867,8042
1659515211.849167,8058
1659515211.888468,8057
1659515211.929989,7986
1659515211.971511,7876
1659515212.010469,7827
1659515212.049428,7781
1659515212.088386,7769
1659515212.132812,7769
1659515212.177239,7769
1659515212.221665,7757
1659515212.254472,7741
1659515212.287279,7744
1659515212.331364,7745
1659515212.375448,7775
1659515212.419533,7788
1659515212.46208,7806
1659515212.504626,7834
1659515212.542901,7853
1659515212.581176,7872
1659515212.619451,7902
1659515212.65841,7911
1659515212.697368,7947
1659515212.736327,7969
1659515212.778361,7994
1659515212.820395,8023
1659515212.859012,8060
1659515212.897628,8063
1659515212.936245,8011
1659515212.978279,7932
1659515213.020313,7876
1659515213.059613,7871
1659515213.098914,7852
1659515213.138214,7861
1659515213.177172,7866
1659515213.216131,7881
1659515213.255089,7860
1659515213.296098,7839
1659515213.337107,7841
1659515213.376407,7840
1659515213.415707,7852
1659515213.455008,7873
1659515213.497042,7887
1659515213.539076,7909
1659515213.577351,7918
1659515213.615626,7936
1659515213.653901,7955
1659515213.695422,7989
1659515213.736944,8019
1659515213.776927,8044
1659515213.816911,8051
1659515213.856895,7973
1659515213.900638,7867
1659515213.944381,7791
1659515213.988123,7756
1659515214.029645,7738
1659515214.071166,7733
1659515214.110125,7724
1659515214.149083,7708
1659515214.188042,7709
1659515214.229051,7700
1659515214.27006,7727
1659515214.30936,7723
1659515214.34866,7740
1659515214.38796,7765
1659515214.426577,7767
1659515214.465194,7781
1659515214.50381,7793
1659515214.544307,7811
1659515214.584803,7834
1659515214.622736,7850
1659515214.660669,7870
1659515214.698602,7896
1659515214.737903,7921
1659515214.777203,7871
1659515214.816503,7757
1659515214.858025,7681
1659515214.899546,7643
1659515214.938163,7613
1659515214.976779,7608
1659515215.015396,7603
1659515215.057943,7608
1659515215.10049,7600
1659515215.139107,7600
1659515215.177723,7594
1659515215.21634,7629
1659515215.257861,7638
1659515215.299383,7658
1659515215.344151,7674
1659515215.388919,7696
1659515215.433687,7720
1659515215.466494,7735
1659515215.499301,7759
1659515215.543044,7778
1659515215.586787,7809
1659515215.63053,7834
1659515215.669488,7858
1659515215.708447,7892
1659515215.747405,7870
1659515215.789952,7780
1659515215.832499,7659
1659515215.870432,7601
1659515215.908365,7577
1659515215.946298,7572
1659515215.988845,7564
1659515216.031392,7560
1659515216.07035,7557
1659515216.109309,7552
1659515216.148267,7555
1659515216.186884,7570
1659515216.225501,7589
1659515216.264117,7621
1659515216.306664,7637
1659515216.349211,7660
1659515216.388511,7674
1659515216.427811,7707
1659515216.467111,7726
1659515216.507607,7748
1659515216.548104,7778
1659515216.587062,7798
1659515216.626021,7829
1659515216.664979,7868
1659515216.704279,7875
1659515216.74358,7820
1659515216.78288,7711
1659515216.823889,7631
1659515216.864897,7613
1659515216.908982,7608
1659515216.953067,7611
1659515216.997151,7615
1659515217.030471,7614
1659515217.063791,7604
1659515217.107875,7614
1659515217.15196,7609
1659515217.196044,7623
1659515217.235345,7652
1659515217.274645,7671
1659515217.313945,7696
1659515217.355467,7700
1659515217.396988,7734
1659515217.435605,7754
1659515217.474221,7787
1659515217.512838,7809
1659515217.551455,7828
1659515217.590072,7863
1659515217.628688,7890
1659515217.671235,7904
1659515217.713782,7845
1659515217.752057,7733
1659515217.790332,7666
1659515217.828607,7655
1659515217.867224,7640
1659515217.90584,7638
1659515217.944457,7645
1659515217.984953,7643
1659515218.02545,7626
1659515218.064408,7641
1659515218.103366,7643
1659515218.142325,7660
1659515218.183846,7694
1659515218.225368,7707
1659515218.264326,7728
1659515218.303285,7751
1659515218.342243,7765
1659515218.384277,7787
1659515218.426311,7815
1659515218.470054,7832
1659515218.513797,7859
1659515218.55754,7888
1659515218.591372,7921
1659515218.625205,7938
1659515218.669631,7899
1659515218.714057,7789
1659515218.758484,7698
1659515218.7971,7672
1659515218.835717,7661
1659515218.874334,7643
1659515218.915855,7650
1659515218.957377,7651
1659515218.996335,7652
1659515219.035294,7639
1659515219.074252,7641
1659515219.116286,7659
1659515219.15832,7680
1659515219.196937,7694
1659515219.235554,7710
1659515219.27417,7741
1659515219.313812,7761
1659515219.353454,7784
1659515219.393096,7802
1659515219.434105,7826
1659515219.475114,7859
1659515219.514072,7882
1659515219.553031,7912
1659515219.59199,7918
1659515219.635049,7843
1659515219.678108,7744
1659515219.716383,7675
1659515219.754658,7661
1659515219.792933,7645
1659515219.83155,7661
1659515219.870167,7666
1659515219.908783,7663
1659515219.950305,7657
1659515219.991826,7656
1659515220.033348,7672
1659515220.074869,7684
1659515220.113486,7702
1659515220.152103,7726
1659515220.190719,7747
1659515220.235146,7768
1659515220.279572,7788
1659515220.323998,7820
1659515220.356293,7831
1659515220.388587,7849
1659515220.432672,7874
1659515220.476756,7901
1659515220.520841,7921
1659515220.555186,7880
1659515220.589531,7776
1659515220.633957,7680
1659515220.678384,7648
1659515220.72281,7629
1659515220.761426,7617
1659515220.800043,7618
1659515220.83866,7615
1659515220.880182,7616
1659515220.921703,7610
1659515220.960661,7605
1659515220.99962,7627
1659515221.038578,7656
1659515221.076853,7678
1659515221.115128,7700
1659515221.153403,7731
1659515221.194925,7750
1659515221.236446,7781
1659515221.277712,7791
1659515221.318977,7814
1659515221.360242,7849
1659515221.401507,7879
1659515221.442003,7905
1659515221.4825,7866
1659515221.522142,7778
1659515221.561784,7690
1659515221.601425,7648
1659515221.640042,7623
1659515221.678659,7621
1659515221.717276,7632
1659515221.759822,7628
1659515221.802369,7624
1659515221.841669,7621
1659515221.88097,7625
1659515221.92027,7636
1659515221.961279,7660
1659515222.002288,7680
1659515222.040904,7695
1659515222.079521,7716
1659515222.118138,7738
1659515222.160684,7746
1659515222.203231,7774
1659515222.241848,7796
1659515222.280465,7824
1659515222.319081,7851
1659515222.357698,7869
1659515222.396315,7829
1659515222.434932,7727
1659515222.476453,7635
1659515222.517974,7594
1659515222.557616,7581
1659515222.597258,7562
1659515222.6369,7558
1659515222.677909,7567
1659515222.718918,7554
1659515222.757876,7548
1659515222.796835,7553
1659515222.835793,7577
1659515222.877827,7594
1659515222.919862,7618
1659515222.964288,7635
1659515223.008714,7658
1659515223.053141,7689
1659515223.086973,7704
1659515223.120805,7729
1659515223.165231,7748
1659515223.209658,7767
1659515223.254084,7789
1659515223.292359,7826
1659515223.330634,7861
1659515223.368909,7872
1659515223.409918,7847
1659515223.450927,7733
1659515223.490227,7653
1659515223.529527,7598
1659515223.568827,7565
1659515223.607444,7564
1659515223.646061,7567
1659515223.684678,7573
1659515223.726199,7562
1659515223.767721,7568
1659515223.806679,7570
1659515223.845638,7584
1659515223.884596,7605
1659515223.92663,7621
1659515223.968664,7652
1659515224.006939,7676
1659515224.045214,7708
1659515224.083489,7737
1659515224.123131,7747
1659515224.162773,7773
1659515224.202415,7789
1659515224.242911,7814
1659515224.283407,7836
1659515224.321341,7865
1659515224.359274,7904
1659515224.397207,7924
1659515224.440267,7935
1659515224.483326,7856
1659515224.527411,7721
1659515224.571495,7637
1659515224.61558,7592
1659515224.647362,7567
1659515224.679143,7550
1659515224.72357,7543
1659515224.767996,7542
1659515224.812422,7545
1659515224.846255,7537
1659515224.880087,7544
1659515224.924513,7574
1659515224.96894,7595
1659515225.013366,7618
1659515225.052666,7635
1659515225.091966,7662
1659515225.131267,7673
1659515225.173301,7704
1659515225.215335,7741
1659515225.25361,7772
1659515225.291885,7818
1659515225.33016,7838
1659515225.372706,7873
1659515225.415253,7906
1659515225.454212,7923
1659515225.49317,7952
1659515225.532129,7896
1659515225.570404,7786
1659515225.608679,7698
1659515225.646954,7654
1659515225.688475,7642
1659515225.729996,7639
1659515225.768955,7662
1659515225.807913,7655
1659515225.846872,7662
1659515225.888393,7669
1659515225.929915,7679
1659515225.968873,7699
1659515226.007832,7716
1659515226.04679,7744
1659515226.088824,7762
1659515226.130858,7786
1659515226.169133,7803
1659515226.207408,7836
1659515226.245683,7871
1659515226.287718,7893
1659515226.329752,7945
1659515226.369052,7973
1659515226.408352,8006
1659515226.447652,8037
1659515226.491395,8004
1659515226.535138,7902
1659515226.578881,7808
1659515226.611688,7774
1659515226.644495,7752
1659515226.68858,7736
1659515226.732664,7741
1659515226.776749,7744
1659515226.815707,7755
1659515226.854666,7760
1659515226.893624,7771
1659515226.934633,7787
1659515226.975642,7809
1659515227.014942,7836
1659515227.054242,7863
1659515227.093542,7893
1659515227.132159,7915
1659515227.170776,7944
1659515227.209393,7978
1659515227.250914,8004
1659515227.292436,8042
1659515227.331394,8073
1659515227.370353,8106
1659515227.409311,8146
1659515227.450832,8157
1659515227.492354,8106
1659515227.530971,7997
1659515227.569587,7942
1659515227.608204,7907
1659515227.650238,7920
1659515227.692272,7916
1659515227.731231,7915
1659515227.770189,7906
1659515227.809148,7899
1659515227.852549,7887
1659515227.89595,7894
1659515227.939351,7914
1659515227.972158,7931
1659515228.004965,7964
1659515228.049392,7972
1659515228.093818,7987
1659515228.138244,8020
1659515228.180278,8043
1659515228.222312,8066
1659515228.261613,8085
1659515228.300913,8103
1659515228.340213,8124
1659515228.379513,8136
1659515228.418813,8095
1659515228.458113,7963
1659515228.499122,7855
1659515228.540131,7800
1659515228.57909,7767
1659515228.618048,7756
1659515228.657007,7735
1659515228.699553,7732
1659515228.7421,7716
1659515228.780717,7701
1659515228.819334,7695
1659515228.85795,7681
1659515228.896225,7683
1659515228.9345,7696
1659515228.972775,7726
1659515229.014809,7760
1659515229.056844,7793
1659515229.095119,7839
1659515229.133394,7865
1659515229.171668,7885
1659515229.21319,7905
1659515229.254711,7922
1659515229.294353,7933
1659515229.333995,7927
1659515229.373637,7840
1659515229.415159,7721
1659515229.45668,7677
1659515229.495297,7659
1659515229.533914,7669
1659515229.57253,7665
1659515229.615077,7654
1659515229.657624,7658
1659515229.702392,7645
1659515229.74716,7639
1659515229.791928,7646
1659515229.829861,7678
1659515229.867795,7703
1659515229.905728,7751
1659515229.947249,7777
1659515229.988771,7815
1659515230.027387,7853
1659515230.066004,7878
1659515230.104621,7903
1659515230.143238,7935
1659515230.181854,7969
1659515230.220471,8003
1659515230.261992,8050
1659515230.303514,8036
1659515230.342131,7958
1659515230.380748,7909
1659515230.419364,7884
1659515230.457981,7882
1659515230.496598,7894
1659515230.535214,7911
1659515230.577761,7917
1659515230.620308,7915
1659515230.659266,7918
1659515230.698225,7924
1659515230.737183,7947
1659515230.778192,7962
1659515230.819201,7986
1659515230.858501,8032
1659515230.897801,8054
1659515230.937102,8083
1659515230.979648,8124
1659515231.022195,8140
1659515231.06047,8155
1659515231.098745,8165
1659515231.13702,8193
1659515231.178541,8197
1659515231.220063,8146
1659515231.264489,8033
1659515231.308916,7955
1659515231.353342,7924
1659515231.391617,7906
1659515231.429892,7908
1659515231.468167,7918
1659515231.510714,7925
1659515231.55326,7937
1659515231.592561,7948
1659515231.631861,7949
1659515231.671161,7952
1659515231.709778,7954
1659515231.748394,7969
1659515231.787011,7991
1659515231.829045,8008
1659515231.871079,8030
1659515231.913113,8069
1659515231.955148,8088
1659515231.993764,8114
1659515232.032381,8138
1659515232.070997,8170
1659515232.112006,8143
1659515232.153015,8056
1659515232.191974,7951
1659515232.230932,7910
1659515232.269891,7903
1659515232.311925,7897
1659515232.353959,7888
1659515232.392576,7886
1659515232.431192,7876
1659515232.469809,7868
1659515232.508426,7868
1659515232.547043,7879
1659515232.585659,7889
1659515232.627693,7900
1659515232.669728,7899
1659515232.708344,7911
1659515232.746961,7935
1659515232.785578,7947
1659515232.827612,7948
1659515232.869646,7973
1659515232.908946,8004
1659515232.948246,8030
1659515232.987546,8017
1659515233.028555,7924
1659515233.069564,7822
1659515233.107497,7764
1659515233.145431,7733
1659515233.183364,7711
1659515233.226423,7721
1659515233.269483,7729
1659515233.307758,7729
1659515233.346033,7735
1659515233.384308,7734
1659515233.428392,7735
1659515233.472477,7766
1659515233.516561,7772
1659515233.55757,7792
1659515233.598579,7836
1659515233.637537,7879
1659515233.676496,7917
1659515233.715455,7946
1659515233.754071,7985
1659515233.792688,8015
1659515233.831305,8058
1659515233.874364,8066
1659515233.917423,7982
1659515233.95604,7895
1659515233.994657,7827
1659515234.033273,7803
1659515234.074282,7786
1659515234.115291,7774
1659515234.154591,7776
1659515234.193892,7755
1659515234.233192,7735
1659515234.27215,7726
1659515234.311109,7739
1659515234.350067,7758
1659515234.390563,7792
1659515234.43106,7821
1659515234.47036,7849
1659515234.50966,7883
1659515234.54896,7902
1659515234.589969,7929
1659515234.630978,7955
1659515234.670278,7985
1659515234.709579,7962
1659515234.748879,7855
1659515234.789888,7754
1659515234.830897,7692
1659515234.870197,7669
1659515234.909497,7660
1659515234.948797,7662
1659515234.989806,7664
1659515235.030815,7665
1659515235.075925,7661
1659515235.121035,7674
1659515235.166144,7686
1659515235.199977,7716
1659515235.233809,7739
1659515235.277894,7780
1659515235.321978,7800
1659515235.366063,7850
1659515235.405021,7871
1659515235.44398,7907
1659515235.482938,7944
1659515235.52446,7971
1659515235.565981,8006
1659515235.604598,7974
1659515235.643214,7862
1659515235.681831,7744
1659515235.72079,7684
1659515235.759748,7665
1659515235.798707,7644
1659515235.839715,7653
1659515235.880724,7650
1659515235.919341,7641
1659515235.957958,7645
1659515235.996574,7644
1659515236.038096,7653
1659515236.079618,7685
1659515236.118576,7720
1659515236.157534,7736
1659515236.196493,7775
1659515236.23511,7803
1659515236.273726,7827
1659515236.312343,7858
1659515236.353864,7882
1659515236.395386,7917
1659515236.43742,7954
1659515236.479454,7971
1659515236.518071,7896
1659515236.556688,7761
1659515236.595304,7669
1659515236.639047,7626
1659515236.68279,7602
1659515236.726533,7589
1659515236.75934,7595
1659515236.792147,7599
1659515236.836232,7586
1659515236.880316,7586
1659515236.924401,7591
1659515236.963359,7604
1659515237.002318,7632
1659515237.041276,7664
1659515237.083823,7690
1659515237.12637,7720
1659515237.165328,7748
1659515237.204287,7771
1659515237.243245,7809
1659515237.284254,7830
1659515237.325263,7856
1659515237.364563,7895
1659515237.403863,7926
1659515237.443163,7915
1659515237.482122,7799
1659515237.52108,7673
1659515237.560039,7589
1659515237.60156,7571
1659515237.643082,7549
1659515237.681699,7542
1659515237.720315,7552
1659515237.758932,7544
1659515237.79789,7539
1659515237.836849,7551
1659515237.875807,7550
1659515237.916304,7572
1659515237.9568,7601
1659515238.001226,7638
1659515238.045653,7683
1659515238.090079,7733
1659515238.124424,7790
1659515238.158769,7839
1659515238.202853,7891
1659515238.246938,7937
1659515238.291023,7997
1659515238.329981,8056
1659515238.368939,8110
1659515238.407898,8089
1659515238.449932,7967
1659515238.491966,7825
1659515238.530925,7744
1659515238.569883,7725
1659515238.608841,7706
1659515238.650363,7707
1659515238.691885,7707
1659515238.731185,7699
1659515238.770485,7694
1659515238.809785,7702
1659515238.847718,7729
1659515238.885652,7747
1659515238.923585,7788
1659515238.965106,7811
1659515239.006628,7835
1659515239.045928,7862
1659515239.085228,7880
1659515239.124528,7898
1659515239.162462,7937
1659515239.200395,7962
1659515239.238328,8003
1659515239.280362,7979
1659515239.322396,7857
1659515239.361013,7731
1659515239.39963,7681
1659515239.438246,7667
1659515239.479768,7666
1659515239.521289,7674
1659515239.565374,7674
1659515239.609459,7667
1659515239.653543,7658
1659515239.687376,7665
1659515239.721208,7691
1659515239.765292,7715
1659515239.809377,7742
1659515239.853462,7763
1659515239.886781,7782
1659515239.920101,7800
1659515239.964869,7823
1659515240.009637,7858
1659515240.054405,7887
1659515240.09268,7922
1659515240.130955,7924
1659515240.16923,7843
1659515240.209726,7697
1659515240.250223,7587
1659515240.289865,7545
1659515240.329506,7525
1659515240.369148,7528
1659515240.411183,7529
1659515240.453217,7537
1659515240.492175,7509
1659515240.531134,7507
1659515240.570092,7526
1659515240.609051,7545
1659515240.648009,7570
1659515240.686967,7593
1659515240.729002,7629
1659515240.771036,7651
1659515240.809311,7685
1659515240.847586,7703
1659515240.885861,7735
1659515240.928407,7775
1659515240.970954,7801
1659515241.009571,7737
1659515241.048187,7586
1659515241.086804,7445
1659515241.127813,7375
1659515241.168822,7342
1659515241.207439,7319
1659515241.246055,7327
1659515241.284672,7327
1659515241.327219,7329
1659515241.369766,7324
1659515241.408382,7359
1659515241.446999,7378
1659515241.485616,7406
1659515241.530384,7434
1659515241.575152,7462
1659515241.61992,7487
1659515241.653239,7508
1659515241.686559,7526
1659515241.730986,7547
1659515241.775412,7584
1659515241.819838,7620
1659515241.86136,7619
1659515241.902881,7544
1659515241.942182,7427
1659515241.981482,7368
1659515242.020782,7346
1659515242.059057,7328
1659515242.097332,7334
1659515242.135607,7363
1659515242.176616,7379
1659515242.217625,7370
1659515242.255045,7380
1659515242.292466,7391
1659515242.329886,7431
1659515242.367307,7441
1659515242.409341,7463
1659515242.451375,7506
1659515242.495118,7534
1659515242.538861,7561
1659515242.582604,7583
1659515242.616436,7627
1659515242.650269,7657
1659515242.69179,7692
1659515242.733311,7716
1659515242.774833,7698
1659515242.816355,7600
1659515242.857876,7487
1659515242.899398,7427
1659515242.938698,7412
1659515242.977998,7402
1659515243.017298,7420
1659515243.059332,7438
1659515243.101366,7445
1659515243.139641,7440
1659515243.177916,7460
1659515243.216191,7485
1659515243.255491,7513
1659515243.294792,7546
1659515243.334092,7560
1659515243.374588,7602
1659515243.415084,7631
1659515243.454043,7659
1659515243.493001,7690
1659515243.53196,7713
1659515243.573994,7751
1659515243.616028,7778
1659515243.654645,7816
1659515243.693261,7792
1659515243.731878,7694
1659515243.772887,7598
1659515243.813896,7550
1659515243.85388,7530
1659515243.893863,7526
1659515243.933847,7543
1659515243.975368,7545
1659515244.01689,7556
1659515244.061658,7560
1659515244.106426,7575
1659515244.151194,7600
1659515244.190153,7622
1659515244.229111,7642
1659515244.26807,7678
1659515244.309591,7693
1659515244.351113,7720
1659515244.389729,7752
1659515244.428346,7782
1659515244.466963,7808
1659515244.506263,7846
1659515244.545563,7881
1659515244.584863,7927
1659515244.625872,7932
1659515244.666881,7843
1659515244.704814,7727
1659515244.742748,7640
1659515244.780681,7591
1659515244.823228,7551
1659515244.865774,7553
1659515244.904733,7557
1659515244.943691,7557
1659515244.98265,7543
1659515245.021266,7547
1659515245.059883,7571
1659515245.0985,7592
1659515245.140021,7624
1659515245.181543,7649
1659515245.22016,7667
1659515245.258776,7678
1659515245.297393,7704
1659515245.338914,7727
1659515245.380436,7752
1659515245.419053,7771
1659515245.457669,7805
1659515245.496286,7838
1659515245.537808,7878
1659515245.579329,7888
1659515245.623072,7840
1659515245.666815,7740
1659515245.710558,7654
1659515245.749174,7623
1659515245.787791,7612
1659515245.826408,7610
1659515245.868442,7617
1659515245.910476,7636
1659515245.949093,7619
1659515245.98771,7620
1659515246.026326,7626
1659515246.067848,7640
1659515246.109369,7662
1659515246.148669,7674
1659515246.187969,7703
1659515246.22727,7717
1659515246.265887,7740
1659515246.304503,7756
1659515246.34312,7774
1659515246.384641,7802
1659515246.426163,7826
1659515246.465121,7854
1659515246.50408,7880
1659515246.543038,7876
1659515246.584047,7782
1659515246.625056,7675
1659515246.663673,7607
1659515246.70229,7580
1659515246.740906,7566
1659515246.780548,7569
1659515246.82019,7588
1659515246.859832,7587
1659515246.901354,7586
1659515246.942875,7604
1659515246.983884,7616
1659515247.024893,7636
1659515247.063851,7654
1659515247.10281,7683
1659515247.141768,7705
1659515247.186536,7736
1659515247.231304,7763
1659515247.276072,7791
1659515247.309905,7829
1659515247.343737,7861
1659515247.388505,7893
1659515247.433273,7935
1659515247.478041,7945
1659515247.515462,7916
1659515247.552882,7804
1659515247.590303,7707
1659515247.627724,7665
1659515247.665657,7645
1659515247.70359,7638
1659515247.741523,7636
1659515247.783557,7654
1659515247.825592,7653
1659515247.867626,7648
1659515247.90966,7671
1659515247.947593,7690
1659515247.985526,7724
1659515248.023459,7742
1659515248.067886,7773
1659515248.112312,7805
1659515248.156739,7844
1659515248.190571,7864
1659515248.224403,7886
1659515248.268488,7929
1659515248.312572,7957
1659515248.356657,7995
1659515248.390489,8028
1659515248.424322,8070
1659515248.46909,8077
1659515248.513858,8002
1659515248.558626,7890
1659515248.596901,7798
1659515248.635176,7778
1659515248.673451,7759
1659515248.714459,7752
1659515248.755468,7764
1659515248.794427,7768
1659515248.833385,7768
1659515248.872344,7772
1659515248.91096,7790
1659515248.949577,7811
1659515248.988194,7838
1659515249.029716,7869
1659515249.071237,7901
1659515249.109854,7937
1659515249.14847,7959
1659515249.187087,7979
1659515249.228096,8009
1659515249.269105,8041
1659515249.308405,8073
1659515249.347705,8106
1659515249.387006,8079
1659515249.428527,7987
1659515249.470048,7897
1659515249.508665,7848
1659515249.547282,7842
1659515249.585899,7847
1659515249.627933,7869
1659515249.669967,7886
1659515249.709609,7864
1659515249.749251,7845
1659515249.788893,7855
1659515249.832977,7873
1659515249.877062,7880
1659515249.921146,7880
1659515249.953954,7891
1659515249.986761,7897
1659515250.031529,7924
1659515250.076297,7933
1659515250.121065,7956
1659515250.162074,7968
1659515250.203083,7893
1659515250.242383,7774
1659515250.281683,7682
1659515250.320983,7652
1659515250.360283,7645
1659515250.399584,7653
1659515250.438884,7656
1659515250.480405,7642
1659515250.521927,7637
1659515250.560544,7636
1659515250.59916,7649
1659515250.637777,7675
1659515250.680324,7700
1659515250.72287,7725
1659515250.761829,7754
1659515250.800787,7787
1659515250.839746,7812
1659515250.878362,7841
1659515250.916979,7874
1659515250.955596,7885
1659515250.996605,7833
1659515251.037614,7679
1659515251.07623,7562
1659515251.114847,7514
1659515251.153464,7474
1659515251.194985,7450
1659515251.236507,7445
1659515251.275124,7454
1659515251.31374,7454
1659515251.352357,7453
1659515251.393366,7455
1659515251.434375,7472
1659515251.478801,7504
1659515251.523227,7532
1659515251.567654,7553
1659515251.601486,7580
1659515251.635318,7612
1659515251.679745,7637
1659515251.724171,7673
1659515251.768597,7716
1659515251.807214,7744
1659515251.845831,7722
1659515251.884447,7606
1659515251.925969,7539
1659515251.96749,7523
1659515252.006107,7497
1659515252.044724,7503
1659515252.083341,7523
1659515252.121957,7551
1659515252.160574,7567
1659515252.199191,7587
1659515252.240712,7621
1659515252.282234,7658
1659515252.321534,7702
1659515252.360834,7749
1659515252.400134,7793
1659515252.441143,7843
1659515252.482152,7887
1659515252.520769,7934
1659515252.559386,7979
1659515252.598002,8032
1659515252.637986,8080
1659515252.67797,8134
1659515252.717953,8192
1659515252.762038,8223
1659515252.806123,8203
1659515252.850207,8163
1659515252.882502,8166
1659515252.914796,8171
1659515252.960248,8191
1659515253.005699,8218
1659515253.051151,8256
1659515253.089426,8285
1659515253.127701,8315
1659515253.165976,8358
1659515253.20801,8400
1659515253.250044,8458
1659515253.289344,8491
1659515253.328644,8539
1659515253.367944,8603
1659515253.408953,8649
1659515253.449962,8693
1659515253.487895,8750
1659515253.525829,8801
1659515253.563762,8850
1659515253.603404,8904
1659515253.643046,8958
1659515253.682688,9006
1659515253.724722,9069
1659515253.766756,9124
1659515253.805714,9145
1659515253.844673,9156
1659515253.883631,9167
1659515253.925153,9203
1659515253.966674,9235
1659515254.005633,9264
1659515254.044591,9303
1659515254.08355,9341
1659515254.125071,9369
1659515254.166593,9403
1659515254.205551,9453
1659515254.24451,9478
1659515254.283468,9517
1659515254.324477,9568
1659515254.365486,9607
1659515254.403761,9646
1659515254.442036,9686
1659515254.480311,9728
1659515254.524737,9767
1659515254.569163,9809
1659515254.61359,9847
1659515254.655624,9883
1659515254.697658,9930
1659515254.735591,9970
1659515254.773525,10009
1659515254.811458,10045
1659515254.850758,10057
1659515254.890058,10078
1659515254.929358,10101
1659515254.97088,10121
1659515255.012401,10148
1659515255.051018,10185
1659515255.089635,10216
1659515255.128251,10239
1659515255.169773,10265
1659515255.211294,10294
1659515255.250253,10326
1659515255.289211,10354
1659515255.32817,10385
1659515255.366445,10411
1659515255.40472,10446
1659515255.442995,10481
1659515255.484004,10504
1659515255.525012,10535
1659515255.564313,10561
1659515255.603613,10602
1659515255.642913,10629
1659515255.684435,10664
1659515255.725956,10697
1659515255.764231,10715
1659515255.802506,10752
1659515255.840781,10763
1659515255.882815,10780
1659515255.924849,10802
1659515255.964491,10803
1659515256.004133,10824
1659515256.043775,10849
1659515256.084784,10873
1659515256.125793,10886
1659515256.170903,10899
1659515256.216012,10925
1659515256.261122,10937
1659515256.300081,10952
1659515256.339039,10972
1659515256.377998,10995
1659515256.418494,11007
1659515256.45899,11040
1659515256.498632,11060
1659515256.538274,11073
1659515256.577916,11098
1659515256.618925,11114
1659515256.659934,11142
1659515256.69855,11164
1659515256.737167,11192
1659515256.775784,11209
1659515256.814401,11225
1659515256.853017,11233
1659515256.891634,11226
1659515256.933668,11229
1659515256.975702,11210
1659515257.014319,11215
1659515257.052936,11212
1659515257.091552,11221
1659515257.130853,11220
1659515257.170153,11224
1659515257.209453,11222
1659515257.250975,11227
1659515257.292496,11233
1659515257.330771,11238
1659515257.369046,11252
1659515257.407321,11257
1659515257.449355,11257
1659515257.491389,11274
1659515257.533423,11283
1659515257.575458,11284
1659515257.613733,11293
1659515257.652007,11309
1659515257.690282,11321
1659515257.734367,11325
1659515257.778451,11347
1659515257.822536,11355
1659515257.856881,11352
1659515257.891226,11330
1659515257.934969,11286
1659515257.978712,11260
1659515258.022455,11231
1659515258.060388,11215
1659515258.098321,11199
1659515258.136254,11188
1659515258.178801,11160
1659515258.221348,11144
1659515258.259964,11126
1659515258.298581,11106
1659515258.337198,11102
1659515258.378719,11091
1659515258.420241,11075
1659515258.459883,11083
1659515258.499525,11075
1659515258.539167,11064
1659515258.577442,11061
1659515258.615717,11064
1659515258.653991,11061
1659515258.694488,11066
1659515258.734984,11063
1659515258.774284,11067
1659515258.813585,11073
1659515258.852885,11074
1659515258.891843,11042
1659515258.930802,10981
1659515258.96976,10910
1659515259.011281,10867
1659515259.052803,10833
1659515259.094325,10800
1659515259.135846,10777
1659515259.174805,10741
1659515259.213763,10708
1659515259.252722,10665
1659515259.296806,10646
1659515259.340891,10621
1659515259.384975,10603
1659515259.41932,10593
1659515259.453665,10580
1659515259.498433,10570
1659515259.543201,10557
1659515259.587969,10549
1659515259.620776,10535
1659515259.653584,10545
1659515259.69801,10523
1659515259.742436,10525
1659515259.786862,10535
1659515259.826504,10538
1659515259.866146,10547
1659515259.905788,10516
1659515259.946285,10462
1659515259.986781,10368
1659515260.025739,10299
1659515260.064698,10266
1659515260.103656,10224
1659515260.142273,10199
1659515260.18089,10165
1659515260.219506,10142
1659515260.26154,10099
1659515260.303575,10058
1659515260.342533,10039
1659515260.381491,10031
1659515260.42045,10014
1659515260.462484,10007
1659515260.504518,10008
1659515260.543135,10002
1659515260.581752,9997
1659515260.620368,9998
1659515260.662402,9994
1659515260.704437,10000
1659515260.743395,10003
1659515260.782353,10008
1659515260.821312,10019
1659515260.862321,10029
1659515260.90333,10015
1659515260.941605,9952
1659515260.97988,9855
1659515261.018155,9789
1659515261.062239,9745
1659515261.106324,9728
1659515261.150408,9701
1659515261.184241,9688
1659515261.218073,9645
1659515261.261816,9607
1659515261.305559,9586
1659515261.349302,9570
1659515261.390823,9563
1659515261.432344,9556
1659515261.471303,9550
1659515261.510262,9546
1659515261.54922,9553
1659515261.587837,9542
1659515261.626453,9538
1659515261.66507,9546
1659515261.707617,9548
1659515261.750164,9557
1659515261.789464,9558
1659515261.828764,9572
1659515261.868064,9538
1659515261.906681,9445
1659515261.945297,9334
1659515261.983914,9263
1659515262.025436,9241
1659515262.066957,9203
1659515262.105916,9174
1659515262.144874,9147
1659515262.183833,9113
1659515262.225354,9088
1659515262.266876,9062
1659515262.305834,9054
1659515262.344793,9053
1659515262.383751,9056
1659515262.425272,9055
1659515262.466794,9057
1659515262.505069,9063
1659515262.543344,9056
1659515262.581619,9064
1659515262.623653,9068
1659515262.665687,9081
1659515262.704987,9097
1659515262.744287,9108
1659515262.783588,9125
1659515262.825109,9123
1659515262.866631,9071
1659515262.911057,8945
1659515262.955483,8849
1659515262.99991,8799
1659515263.03921,8766
1659515263.07851,8732
1659515263.11781,8702
1659515263.159332,8678
1659515263.200853,8646
1659515263.238274,8630
1659515263.275695,8622
1659515263.313115,8611
1659515263.350536,8628
1659515263.389153,8627
1659515263.427769,8647
1659515263.466386,8644
1659515263.510129,8649
1659515263.553872,8663
1659515263.597615,8678
1659515263.639648,8684
1659515263.681683,8697
1659515263.720641,8721
1659515263.759599,8745
1659515263.798558,8755
1659515263.836833,8787
1659515263.875108,8791
1659515263.913383,8729
1659515263.95593,8597
1659515263.998477,8514
1659515264.037435,8483
1659515264.076393,8450
1659515264.115352,8420
1659515264.155848,8406
1659515264.196344,8397
1659515264.235303,8369
1659515264.274261,8363
1659515264.31322,8363
1659515264.352178,8371
1659515264.391137,8398
1659515264.430095,8395
1659515264.470591,8416
1659515264.511088,8433
1659515264.549704,8444
1659515264.588321,8465
1659515264.626938,8482
1659515264.668459,8503
1659515264.709981,8524
1659515264.748939,8562
1659515264.787898,8577
1659515264.826856,8602
1659515264.868378,8634
1659515264.909899,8661
1659515264.948858,8644
1659515264.987816,8542
1659515265.026775,8428
1659515265.071201,8359
1659515265.115627,8341
1659515265.160053,8314
1659515265.202088,8305
1659515265.244122,8301
1659515265.283764,8279
1659515265.323406,8268
1659515265.363048,8263
1659515265.403544,8265
1659515265.44404,8284
1659515265.482657,8314
1659515265.521274,8328
1659515265.55989,8344
1659515265.598849,8366
1659515265.637807,8386
1659515265.676766,8406
1659515265.7188,8432
1659515265.760834,8447
1659515265.799451,8483
1659515265.838067,8504
1659515265.876684,8532
1659515265.918718,8556
1659515265.960752,8590
1659515265.999711,8582
1659515266.038669,8486
1659515266.077628,8367
1659515266.116586,8299
1659515266.155545,8271
1659515266.194503,8258
1659515266.236537,8242
1659515266.278571,8242
1659515266.317871,8226
1659515266.357172,8202
1659515266.396472,8195
1659515266.436968,8210
1659515266.477464,8233
1659515266.516081,8247
1659515266.554698,8272
1659515266.593315,8285
1659515266.635861,8317
1659515266.678408,8331
1659515266.721809,8343
1659515266.76521,8373
1659515266.808611,8396
1659515266.840906,8419
1659515266.8732,8444
1659515266.917627,8475
1659515266.962053,8504
1659515267.006479,8538
1659515267.045438,8495
1659515267.084396,8368
1659515267.123355,8259
1659515267.165389,8206
1659515267.207423,8186
1659515267.246381,8174
1659515267.28534,8173
1659515267.324298,8163
1659515267.36582,8142
1659515267.407341,8129
1659515267.445274,8133
1659515267.483208,8159
1659515267.521141,8174
1659515267.560441,8192
1659515267.599741,8222
1659515267.639041,8228
1659515267.680563,8252
1659515267.722085,8275
1659515267.76036,8296
1659515267.798635,8323
1659515267.836909,8346
1659515267.875868,8383
1659515267.914826,8411
1659515267.953785,8456
1659515267.994794,8467
1659515268.035803,8410
1659515268.077324,8290
1659515268.118846,8191
1659515268.158488,8152
1659515268.198129,8144
1659515268.237772,8144
1659515268.282198,8132
1659515268.326624,8127
1659515268.37105,8107
1659515268.40437,8088
1659515268.43769,8118
1659515268.479468,8133
1659515268.521245,8161
1659515268.563023,8171
1659515268.604801,8189
1659515268.643076,8205
1659515268.681351,8239
1659515268.719626,8254
1659515268.762173,8275
1659515268.804719,8302
1659515268.843678,8330
1659515268.882636,8361
1659515268.921595,8387
1659515268.962091,8401
1659515269.002587,8349
1659515269.041204,8209
1659515269.079821,8116
1659515269.118438,8065
1659515269.160984,8050
1659515269.203531,8044
1659515269.242489,8038
1659515269.281448,8037
1659515269.320406,8014
1659515269.361928,8009
1659515269.403449,8022
1659515269.44275,8045
1659515269.48205,8073
1659515269.52135,8090
1659515269.565776,8102
1659515269.610203,8128
1659515269.654629,8147
1659515269.69615,8172
1659515269.737672,8189
1659515269.77663,8220
1659515269.815589,8253
1659515269.854547,8291
1659515269.892822,8305
1659515269.931097,8329
1659515269.969372,8284
1659515270.010381,8155
1659515270.05139,8039
1659515270.090007,7994
1659515270.128623,7972
1659515270.16724,7955
1659515270.208762,7965
1659515270.250283,7951
1659515270.2889,7943
1659515270.327517,7935
1659515270.366133,7938
1659515270.405092,7964
1659515270.44405,7988
1659515270.483009,8018
1659515270.52453,8032
1659515270.566052,8062
1659515270.605352,8077
1659515270.644652,8105
1659515270.683952,8138
1659515270.725474,8153
1659515270.766995,8189
1659515270.805954,8210
1659515270.844912,8243
1659515270.883871,8273
1659515270.92488,8255
1659515270.965889,8143
1659515271.004847,8019
1659515271.043805,7970
1659515271.082764,7944
1659515271.124285,7932
1659515271.165807,7931
1659515271.209891,7927
1659515271.253976,7930
1659515271.298061,7916
1659515271.336677,7931
1659515271.375294,7949
1659515271.413911,7976
1659515271.455945,8007
1659515271.497979,8032
1659515271.537621,8051
1659515271.577263,8079
1659515271.616905,8097
1659515271.657914,8135
1659515271.698923,8158
1659515271.738223,8193
1659515271.777523,8211
1659515271.816823,8244
1659515271.855782,8282
1659515271.89474,8310
1659515271.933698,8267
1659515271.975733,8145
1659515272.017767,8055
1659515272.056725,8012
1659515272.095684,8006
1659515272.134642,7997
1659515272.176164,7998
1659515272.217685,8001
1659515272.255618,7981
1659515272.293552,7981
1659515272.331485,7994
1659515272.370785,8020
1659515272.410085,8042
1659515272.449385,8077
1659515272.49142,8091
1659515272.533454,8106
1659515272.571729,8143
1659515272.610003,8158
1659515272.648278,8183
1659515272.690313,8218
1659515272.732347,8246
1659515272.777115,8273
1659515272.821883,8308
1659515272.866651,8347
1659515272.899458,8323
1659515272.932265,8210
1659515272.976691,8084
1659515273.021118,8010
1659515273.065544,7995
1659515273.098351,7955
1659515273.131158,7945
1659515273.175243,7951
1659515273.219327,7945
1659515273.263412,7936
1659515273.302029,7932
1659515273.340646,7961
1659515273.379262,7977
1659515273.421809,8010
1659515273.464356,8043
1659515273.502289,8061
1659515273.540222,8098
1659515273.578155,8116
1659515273.617455,8137
1659515273.656756,8168
1659515273.696056,8192
1659515273.735014,8226
1659515273.773973,8261
1659515273.812931,8299
1659515273.857016,8327
1659515273.9011,8321
1659515273.945185,8227
1659515273.979017,8118
1659515274.01285,8070
1659515274.057618,8031
1659515274.102386,8006
1659515274.147154,7991
1659515274.18765,7989
1659515274.228146,7982
1659515274.266763,7984
1659515274.30538,7998
1659515274.343997,8024
1659515274.382613,8056
1659515274.42123,8090
1659515274.459847,8133
1659515274.501368,8216
1659515274.54289,8300
1659515274.581848,8395
1659515274.620807,8465
1659515274.659765,8525
1659515274.701287,8597
1659515274.742808,8663
1659515274.781767,8717
1659515274.820725,8772
1659515274.859684,8759
1659515274.898642,8667
1659515274.9376,8592
1659515274.976559,8540
1659515275.019106,8530
1659515275.061652,8561
1659515275.100611,8603
1659515275.139569,8620
1659515275.178528,8617
1659515275.220049,8618
1659515275.261571,8626
1659515275.300529,8668
1659515275.339488,8697
1659515275.378446,8723
1659515275.42048,8776
1659515275.462514,8812
1659515275.500789,8851
1659515275.539064,8882
1659515275.577339,8921
1659515275.618348,8958
1659515275.659357,8986
1659515275.703442,8989
1659515275.747526,8890
1659515275.791611,8737
1659515275.830569,8611
1659515275.869528,8540
1659515275.908486,8492
1659515275.95052,8438
1659515275.992554,8430
1659515276.031171,8408
1659515276.069788,8366
1659515276.108404,8338
1659515276.149413,8330
1659515276.190422,8340
1659515276.229381,8338
1659515276.268339,8372
1659515276.307298,8384
1659515276.346256,8407
1659515276.385215,8444
1659515276.424173,8488
1659515276.465694,8529
1659515276.507216,8561
1659515276.545491,8596
1659515276.583766,8626
1659515276.622041,8609
1659515276.660999,8473
1659515276.699958,8329
1659515276.738916,8246
1659515276.779413,8186
1659515276.819909,8154
1659515276.859209,8127
1659515276.898509,8126
1659515276.937809,8126
1659515276.979844,8112
1659515277.021878,8111
1659515277.060153,8122
1659515277.098428,8147
1659515277.136703,8172
1659515277.177711,8187
1659515277.21872,8207
1659515277.264172,8220
1659515277.309623,8266
1659515277.355075,8294
1659515277.388395,8350
1659515277.421715,8403
1659515277.465799,8465
1659515277.509884,8519
1659515277.553968,8494
1659515277.593268,8378
1659515277.632569,8262
1659515277.671869,8215
1659515277.712365,8205
1659515277.752861,8194
1659515277.79182,8210
1659515277.830778,8208
1659515277.869737,8199
1659515277.911771,8198
1659515277.953805,8212
1659515277.992422,8238
1659515278.031038,8269
1659515278.069655,8311
1659515278.108613,8346
1659515278.147572,8397
1659515278.18653,8432
1659515278.228565,8479
1659515278.270599,8536
1659515278.312633,8571
1659515278.354667,8620
1659515278.395676,8678
1659515278.436685,8736
1659515278.475643,8703
1659515278.514602,8575
1659515278.55356,8451
1659515278.596107,8376
1659515278.638654,8337
1659515278.676929,8309
1659515278.715204,8298
1659515278.753479,8303
1659515278.792095,8296
1659515278.830712,8289
1659515278.869329,8301
1659515278.91085,8313
1659515278.952372,8341
1659515278.99133,8376
1659515279.030288,8414
1659515279.069247,8448
1659515279.107864,8504
1659515279.146481,8541
1659515279.185097,8594
1659515279.227131,8652
1659515279.269166,8694
1659515279.307782,8749
1659515279.346399,8797
1659515279.385015,8783
1659515279.42705,8651
1659515279.469084,8538
1659515279.51351,8476
1659515279.557936,8458
1659515279.602363,8446
1659515279.635682,8448
1659515279.669002,8456
1659515279.712745,8448
1659515279.756488,8440
1659515279.800231,8452
1659515279.834063,8476
1659515279.867895,8501
1659515279.91198,8536
1659515279.956064,8573
1659515280.000149,8611
1659515280.038424,8635
1659515280.076699,8684
1659515280.114974,8716
1659515280.156496,8750
1659515280.198017,8797
1659515280.236634,8834
1659515280.27525,8796
1659515280.313867,8657
1659515280.352826,8514
1659515280.391784,8438
1659515280.430743,8405
1659515280.473289,8380
1659515280.515836,8379
1659515280.555136,8400
1659515280.594436,8399
1659515280.633737,8397
1659515280.675258,8400
1659515280.716779,8415
1659515280.755396,8450
1659515280.794013,8495
1659515280.83263,8536
1659515280.87193,8578
1659515280.91123,8627
1659515280.95053,8663
1659515280.992052,8711
1659515281.033573,8751
1659515281.074582,8791
1659515281.115591,8846
1659515281.154891,8858
1659515281.194191,8759
1659515281.233492,8595
1659515281.277235,8491
1659515281.320977,8451
1659515281.36472,8427
1659515281.39804,8416
1659515281.43136,8420
1659515281.47647,8434
1659515281.521579,8423
1659515281.566689,8419
1659515281.600009,8438
1659515281.633328,8457
1659515281.677755,8478
1659515281.722181,8516
1659515281.766607,8549
1659515281.808641,8576
1659515281.850676,8611
1659515281.889634,8652
1659515281.928592,8688
1659515281.967551,8733
1659515282.005484,8772
1659515282.043417,8800
1659515282.081351,8726
1659515282.123385,8560
1659515282.165419,8439
1659515282.203694,8382
1659515282.241969,8372
1659515282.280244,8360
1659515282.319202,8377
1659515282.358161,8368
1659515282.397119,8356
1659515282.438641,8362
1659515282.480162,8369
1659515282.518779,8389
1659515282.557396,8422
1659515282.596012,8457
1659515282.637021,8494
1659515282.67803,8530
1659515282.717672,8568
1659515282.757314,8599
1659515282.796956,8640
1659515282.838478,8675
1659515282.879999,8725
1659515282.918616,8703
1659515282.957232,8555
1659515282.995849,8393
1659515283.036858,8308
1659515283.077867,8268
1659515283.117509,8241
1659515283.157151,8246
1659515283.196793,8247
1659515283.240535,8235
1659515283.284278,8226
1659515283.328021,8228
1659515283.369543,8249
1659515283.411064,8278
1659515283.449681,8305
1659515283.488298,8337
1659515283.526914,8374
1659515283.565189,8411
1659515283.603464,8443
1659515283.641739,8485
1659515283.684286,8525
1659515283.726833,8562
1659515283.766133,8608
1659515283.805433,8596
1659515283.844733,8470
1659515283.885742,8313
1659515283.926751,8230
1659515283.966051,8208
1659515284.005352,8182
1659515284.044652,8185
1659515284.083268,8184
1659515284.121885,8185
1659515284.160502,8170
1659515284.203049,8180
1659515284.245595,8186
1659515284.28387,8216
1659515284.322145,8263
1659515284.36042,8295
1659515284.401942,8328
1659515284.443463,8371
1659515284.48208,8409
1659515284.520697,8449
1659515284.559314,8491
1659515284.603398,8542
1659515284.647483,8586
1659515284.691567,8606
1659515284.725399,8513
1659515284.759232,8365
1659515284.803658,8274
1659515284.848084,8240
1659515284.892511,8230
1659515284.931469,8239
1659515284.970428,8243
1659515285.009386,8230
1659515285.05142,8211
1659515285.093454,8207
1659515285.132071,8217
1659515285.170688,8262
1659515285.209305,8270
1659515285.248605,8300
1659515285.287905,8346
1659515285.327205,8368
1659515285.367701,8403
1659515285.408198,8427
1659515285.447156,8476
1659515285.486115,8511
1659515285.525073,8558
1659515285.565569,8524
1659515285.606066,8377
1659515285.645366,8249
1659515285.684666,8171
1659515285.723966,8144
1659515285.765488,8132
1659515285.807009,8124
1659515285.845284,8124
1659515285.883559,8118
1659515285.921834,8108
1659515285.965919,8106
1659515286.010003,8138
1659515286.054088,8166
1659515286.088433,8195
1659515286.122778,8242
1659515286.166862,8261
1659515286.210947,8300
1659515286.255031,8330
1659515286.296553,8372
1659515286.338074,8409
1659515286.377033,8449
1659515286.415991,8494
1659515286.45495,8483
1659515286.493225,8364
1659515286.5315,8188
1659515286.569775,8082
1659515286.611809,8046
1659515286.653843,8018
1659515286.693143,8019
1659515286.732443,8006
1659515286.771744,7998
1659515286.81224,7981
1659515286.852736,7985
1659515286.891695,8001
1659515286.930653,8030
1659515286.969612,8062
1659515287.008912,8101
1659515287.048212,8140
1659515287.087512,8173
1659515287.129546,8214
1659515287.17158,8260
1659515287.210539,8292
1659515287.249497,8335
1659515287.288456,8388
1659515287.33049,8426
1659515287.372524,8375
1659515287.410799,8235
1659515287.449074,8089
1659515287.487349,8015
1659515287.529896,7992
1659515287.572442,7982
1659515287.611059,7996
1659515287.649676,8000
1659515287.688293,7978
1659515287.728789,7959
1659515287.769285,7969
1659515287.813028,7981
1659515287.856771,8015
1659515287.900514,8047
1659515287.939814,8088
1659515287.979114,8135
1659515288.018414,8169
1659515288.060448,8201
1659515288.102482,8234
1659515288.141099,8292
1659515288.179716,8343
1659515288.218333,8395
1659515288.260367,8427
1659515288.302401,8334
1659515288.341359,8195
1659515288.380318,8103
1659515288.419276,8077
1659515288.457893,8078
1659515288.49651,8083
1659515288.535126,8087
1659515288.577673,8076
1659515288.62022,8058
1659515288.658495,8048
1659515288.69677,8061
1659515288.735045,8088
1659515288.77332,8111
1659515288.811595,8145
1659515288.849869,8167
1659515288.890878,8190
1659515288.931887,8231
1659515288.971188,8249
1659515289.010488,8278
1659515289.049788,8304
1659515289.090797,8335
1659515289.131806,8345
1659515289.170764,8243
1659515289.209723,8084
1659515289.248681,7957
1659515289.293108,7907
1659515289.337534,7873
1659515289.38196,7861
1659515289.420577,7870
1659515289.459193,7853
1659515289.49781,7839
1659515289.540357,7833
1659515289.582904,7853
1659515289.621862,7852
1659515289.66082,7881
