LocalTimestamp,PG
1659521957.693805,9329
1659521957.731695,9655
1659521957.769585,9938
1659521957.807475,10182
1659521957.849973,10351
1659521957.892471,10465
1659521957.931385,10581
1659521957.970299,10711
1659521958.009213,10802
1659521958.049663,10863
1659521958.090113,10936
1659521958.128686,11030
1659521958.167258,11127
1659521958.205831,11135
1659521958.248329,11034
1659521958.290827,10877
1659521958.335203,10743
1659521958.379578,10599
1659521958.423954,10454
1659521958.462868,10399
1659521958.501782,10400
1659521958.540696,10445
1659521958.582682,10518
1659521958.624668,10601
1659521958.66324,10652
1659521958.701813,10669
1659521958.740386,10696
1659521958.78186,10707
1659521958.823334,10735
1659521958.862248,10748
1659521958.901162,10820
1659521958.940076,10887
1659521958.978307,10925
1659521959.016538,10976
1659521959.054769,10997
1659521959.095731,11002
1659521959.136693,11001
1659521959.176836,11006
1659521959.216979,10943
1659521959.257122,10747
1659521959.297265,10479
1659521959.337408,10280
1659521959.37598,10152
1659521959.414553,10082
1659521959.453125,10072
1659521959.495111,10101
1659521959.537097,10152
1659521959.576011,10197
1659521959.614925,10267
1659521959.653839,10342
1659521959.695825,10424
1659521959.737812,10507
1659521959.777067,10583
1659521959.816322,10672
1659521959.855577,10737
1659521959.897052,10808
1659521959.938526,10880
1659521959.977098,10933
1659521960.015671,10992
1659521960.054243,11052
1659521960.09623,11126
1659521960.138216,11152
1659521960.17713,11118
1659521960.216043,10998
1659521960.254957,10882
1659521960.299333,10805
1659521960.343709,10733
1659521960.388084,10694
1659521960.420854,10704
1659521960.453623,10737
1659521960.49834,10757
1659521960.543057,10791
1659521960.587774,10839
1659521960.62976,10914
1659521960.671746,11022
1659521960.71066,11114
1659521960.749574,11203
1659521960.788488,11294
1659521960.827743,11360
1659521960.866999,11430
1659521960.906254,11486
1659521960.947728,11533
1659521960.989202,11577
1659521961.028457,11648
1659521961.067713,11703
1659521961.106968,11773
1659521961.14793,11777
1659521961.188892,11702
1659521961.227806,11569
1659521961.26672,11434
1659521961.305634,11328
1659521961.343524,11242
1659521961.381414,11216
1659521961.419304,11238
1659521961.461802,11296
1659521961.5043,11322
1659521961.542872,11364
1659521961.581445,11437
1659521961.620018,11510
1659521961.66098,11598
1659521961.701942,11679
1659521961.740856,11766
1659521961.77977,11829
1659521961.818684,11900
1659521961.861182,11938
1659521961.90368,11983
1659521961.947714,12028
1659521961.991748,12063
1659521962.035783,12109
1659521962.068552,12137
1659521962.101322,12166
1659521962.146039,12109
1659521962.190756,12000
1659521962.235472,11883
1659521962.273704,11809
1659521962.311935,11765
1659521962.350166,11716
1659521962.392152,11721
1659521962.434138,11707
1659521962.473394,11698
1659521962.512649,11699
1659521962.551904,11732
1659521962.58877,11762
1659521962.625636,11794
1659521962.662502,11854
1659521962.699368,11888
1659521962.744426,11941
1659521962.789484,11979
1659521962.834543,12019
1659521962.873456,12071
1659521962.91237,12119
1659521962.951284,12184
1659521962.992246,12233
1659521963.033208,12277
1659521963.072805,12318
1659521963.112402,12364
1659521963.151998,12307
1659521963.193985,12160
1659521963.23597,12011
1659521963.274543,11881
1659521963.313116,11766
1659521963.351688,11692
1659521963.390602,11693
1659521963.429516,11698
1659521963.46843,11717
1659521963.509904,11761
1659521963.551378,11815
1659521963.58961,11899
1659521963.627841,11970
1659521963.666072,12027
1659521963.70857,12050
1659521963.751068,12072
1659521963.789641,12082
1659521963.828213,12108
1659521963.866786,12137
1659521963.90826,12184
1659521963.949734,12254
1659521963.988648,12308
1659521964.027562,12402
1659521964.066476,12490
1659521964.108974,12573
1659521964.151472,12664
1659521964.195507,12664
1659521964.239541,12616
1659521964.283575,12568
1659521964.316857,12527
1659521964.350138,12493
1659521964.390281,12472
1659521964.430424,12465
1659521964.470567,12450
1659521964.51071,12434
1659521964.550852,12425
1659521964.591558,12428
1659521964.632264,12450
1659521964.67297,12481
1659521964.713676,12508
1659521964.756175,12539
1659521964.798673,12547
1659521964.836904,12510
1659521964.875135,12469
1659521964.913366,12446
1659521964.95484,12449
1659521964.996315,12452
1659521965.034887,12476
1659521965.07346,12506
1659521965.112032,12540
1659521965.151629,12500
1659521965.191226,12292
1659521965.230822,12053
1659521965.271784,11863
1659521965.312746,11750
1659521965.35166,11644
1659521965.390574,11609
1659521965.429488,11600
1659521965.470962,11612
1659521965.512436,11618
1659521965.551009,11614
1659521965.589581,11658
1659521965.628154,11697
1659521965.669628,11758
1659521965.711102,11810
1659521965.755136,11864
1659521965.799171,11931
1659521965.843205,11979
1659521965.875975,12021
1659521965.908744,12062
1659521965.953461,12106
1659521965.998178,12147
1659521966.042895,12227
1659521966.082492,12270
1659521966.122088,12324
1659521966.161685,12338
1659521966.200599,12242
1659521966.239513,12058
1659521966.278427,11936
1659521966.319901,11866
1659521966.361375,11806
1659521966.400971,11755
1659521966.440568,11748
1659521966.480165,11747
1659521966.521639,11747
1659521966.563113,11754
1659521966.601686,11761
1659521966.640258,11799
1659521966.678831,11840
1659521966.717745,11891
1659521966.756659,11959
1659521966.795573,12011
1659521966.836023,12061
1659521966.876473,12126
1659521966.915387,12180
1659521966.9543,12243
1659521966.993214,12298
1659521967.035712,12354
1659521967.078211,12416
1659521967.121904,12462
1659521967.165596,12510
1659521967.209289,12489
1659521967.242571,12382
1659521967.275853,12239
1659521967.32057,12148
1659521967.365286,12068
1659521967.410003,12012
1659521967.442773,11991
1659521967.475543,11990
1659521967.519577,11974
1659521967.563611,11958
1659521967.607645,11956
1659521967.647242,11966
1659521967.686838,12011
1659521967.726435,12047
1659521967.764325,12092
1659521967.802215,12134
1659521967.840105,12176
1659521967.881067,12227
1659521967.922029,12270
1659521967.960602,12318
1659521967.999174,12365
1659521968.037747,12401
1659521968.079733,12438
1659521968.121719,12473
1659521968.15995,12499
1659521968.198181,12453
1659521968.236413,12288
1659521968.275668,12109
1659521968.314923,11964
1659521968.354178,11870
1659521968.395141,11807
1659521968.436103,11773
1659521968.475358,11761
1659521968.514613,11763
1659521968.553869,11762
1659521968.595855,11787
1659521968.637841,11836
1659521968.682558,11888
1659521968.727275,11943
1659521968.771991,12002
1659521968.804249,12064
1659521968.836507,12150
1659521968.881224,12235
1659521968.925941,12298
1659521968.970657,12371
1659521969.009571,12427
1659521969.048485,12490
1659521969.087399,12550
1659521969.128361,12607
1659521969.169323,12635
1659521969.208237,12617
1659521969.247151,12546
1659521969.286065,12453
1659521969.328051,12391
1659521969.370037,12345
1659521969.408951,12302
1659521969.447865,12283
1659521969.486779,12282
1659521969.526035,12270
1659521969.56529,12261
1659521969.604545,12258
1659521969.644483,12268
1659521969.684421,12316
1659521969.724359,12353
1659521969.764297,12394
1659521969.804235,12444
1659521969.843149,12498
1659521969.882063,12551
1659521969.920977,12621
1659521969.963475,12658
1659521970.005973,12703
1659521970.050007,12759
1659521970.094042,12809
1659521970.138076,12834
1659521970.170846,12815
1659521970.203615,12762
1659521970.248332,12683
1659521970.293049,12654
1659521970.337766,12638
1659521970.371559,12624
1659521970.405353,12628
1659521970.449046,12622
1659521970.492739,12626
1659521970.536432,12609
1659521970.575346,12616
1659521970.614259,12634
1659521970.653173,12670
1659521970.694648,12696
1659521970.736122,12732
1659521970.775036,12762
1659521970.81395,12794
1659521970.852864,12842
1659521970.891778,12851
1659521970.930691,12894
1659521970.969605,12937
1659521971.008519,12969
1659521971.047433,13004
1659521971.086347,12986
1659521971.126797,12929
1659521971.167247,12854
1659521971.206502,12821
1659521971.245758,12769
1659521971.285013,12725
1659521971.325463,12696
1659521971.365913,12672
1659521971.404827,12661
1659521971.443741,12642
1659521971.482655,12631
1659521971.524641,12636
1659521971.566627,12656
1659521971.611003,12670
1659521971.655378,12686
1659521971.699754,12715
1659521971.732012,12738
1659521971.764269,12765
1659521971.809327,12784
1659521971.854386,12789
1659521971.899444,12796
1659521971.93904,12817
1659521971.978637,12844
1659521972.018234,12837
1659521972.059708,12767
1659521972.101182,12681
1659521972.140096,12630
1659521972.17901,12582
1659521972.217924,12536
1659521972.259398,12533
1659521972.300872,12560
1659521972.339445,12565
1659521972.378017,12576
1659521972.41659,12604
1659521972.455845,12634
1659521972.4951,12668
1659521972.534356,12688
1659521972.575318,12717
1659521972.61628,12747
1659521972.655194,12758
1659521972.694108,12782
1659521972.733021,12800
1659521972.77552,12832
1659521972.818018,12858
1659521972.857273,12901
1659521972.896528,12909
1659521972.935784,12864
1659521972.976746,12793
1659521973.017708,12757
1659521973.056963,12744
1659521973.096218,12738
1659521973.135474,12757
1659521973.177972,12768
1659521973.22047,12773
1659521973.258701,12771
1659521973.296932,12772
1659521973.335164,12794
1659521973.376126,12823
1659521973.417088,12881
1659521973.456002,12901
1659521973.494916,12929
1659521973.53383,12950
1659521973.577523,12985
1659521973.621215,12997
1659521973.664908,13008
1659521973.698702,13036
1659521973.732496,13042
1659521973.77653,13030
1659521973.820564,12915
1659521973.864598,12753
1659521973.903171,12612
1659521973.941743,12495
1659521973.980316,12407
1659521974.02179,12334
1659521974.063264,12320
1659521974.10252,12296
1659521974.141775,12305
1659521974.18103,12301
1659521974.222504,12319
1659521974.263978,12356
1659521974.302892,12387
1659521974.341806,12424
1659521974.38072,12459
1659521974.419634,12513
1659521974.458548,12556
1659521974.497462,12612
1659521974.538424,12663
1659521974.579386,12696
1659521974.617959,12731
1659521974.656531,12765
1659521974.695104,12768
1659521974.73709,12696
1659521974.779076,12558
1659521974.820379,12459
1659521974.861683,12411
1659521974.902986,12389
1659521974.944289,12379
1659521974.985593,12392
1659521975.026896,12383
1659521975.066152,12375
1659521975.105407,12387
1659521975.144662,12393
1659521975.183918,12433
1659521975.223173,12461
1659521975.262428,12489
1659521975.303902,12520
1659521975.345376,12549
1659521975.384632,12574
1659521975.423887,12596
1659521975.463142,12627
1659521975.504616,12659
1659521975.54609,12688
1659521975.584663,12719
1659521975.623235,12724
1659521975.661808,12672
1659521975.700722,12545
1659521975.739636,12451
1659521975.77855,12386
1659521975.821048,12325
1659521975.863546,12257
1659521975.901436,12233
1659521975.939326,12216
1659521975.977216,12195
1659521976.019202,12189
1659521976.061188,12189
1659521976.106246,12190
1659521976.151304,12220
1659521976.196363,12226
1659521976.234936,12227
1659521976.273508,12223
1659521976.312081,12229
1659521976.354067,12246
1659521976.396053,12261
1659521976.435308,12263
1659521976.474563,12281
1659521976.513819,12317
1659521976.554269,12345
1659521976.594719,12343
1659521976.63295,12236
1659521976.671181,12012
1659521976.709413,11786
1659521976.748327,11654
1659521976.78724,11557
1659521976.826154,11488
1659521976.867628,11488
1659521976.909102,11502
1659521976.947675,11523
1659521976.986248,11542
1659521977.02482,11579
1659521977.066294,11620
1659521977.107769,11672
1659521977.146,11713
1659521977.184231,11764
1659521977.222462,11815
1659521977.261718,11859
1659521977.300973,11917
1659521977.340228,11952
1659521977.381702,12000
1659521977.423176,12057
1659521977.46465,12107
1659521977.506124,12123
1659521977.544697,12018
1659521977.58327,11841
1659521977.621842,11696
1659521977.666559,11621
1659521977.711276,11565
1659521977.755993,11538
1659521977.789274,11536
1659521977.822556,11510
1659521977.866249,11482
1659521977.909942,11470
1659521977.953635,11474
1659521977.986916,11496
1659521978.020198,11543
1659521978.064574,11570
1659521978.108949,11616
1659521978.153325,11668
1659521978.19258,11712
1659521978.231835,11759
1659521978.271091,11811
1659521978.313077,11856
1659521978.355063,11905
1659521978.393977,11972
1659521978.432891,12004
1659521978.471805,11928
1659521978.513279,11756
1659521978.554753,11619
1659521978.594349,11553
1659521978.633946,11481
1659521978.673543,11424
1659521978.712457,11421
1659521978.751371,11443
1659521978.790285,11441
1659521978.831247,11441
1659521978.872209,11474
1659521978.911123,11485
1659521978.950037,11530
1659521978.98895,11562
1659521979.030937,11603
1659521979.072923,11668
1659521979.111154,11718
1659521979.149385,11775
1659521979.187616,11816
1659521979.228579,11858
1659521979.269541,11897
1659521979.308455,11959
1659521979.347368,11990
1659521979.386282,11953
1659521979.428268,11863
1659521979.470255,11789
1659521979.509169,11771
1659521979.548083,11774
1659521979.586996,11800
1659521979.631713,11831
1659521979.67643,11892
1659521979.721147,11916
1659521979.762109,11930
1659521979.803071,11960
1659521979.841644,11989
1659521979.880216,12033
1659521979.918789,12055
1659521979.957362,12081
1659521979.995934,12127
1659521980.034507,12163
1659521980.076493,12200
1659521980.118479,12238
1659521980.155601,12293
1659521980.192723,12337
1659521980.229845,12362
1659521980.266966,12298
1659521980.311342,12175
1659521980.355718,12104
1659521980.400093,12057
1659521980.441055,12010
1659521980.482017,11973
1659521980.520931,11943
1659521980.559845,11905
1659521980.598759,11861
1659521980.638014,11829
1659521980.67727,11826
1659521980.716525,11840
1659521980.757999,11852
1659521980.799473,11894
1659521980.838046,11943
1659521980.876618,11998
1659521980.915191,12057
1659521980.957689,12108
1659521981.000187,12171
1659521981.038418,12196
1659521981.07665,12233
1659521981.114881,12164
1659521981.153453,11947
1659521981.192026,11726
1659521981.230599,11563
1659521981.273609,11457
1659521981.316619,11384
1659521981.35485,11374
1659521981.393081,11384
1659521981.431313,11384
1659521981.472275,11387
1659521981.513237,11399
1659521981.552833,11440
1659521981.59243,11483
1659521981.632027,11533
1659521981.674013,11597
1659521981.715999,11651
1659521981.754913,11699
1659521981.793827,11749
1659521981.832741,11802
1659521981.877799,11853
1659521981.922857,11912
1659521981.967916,11915
1659521982.009902,11808
1659521982.051888,11643
1659521982.089778,11524
1659521982.127667,11473
1659521982.165557,11436
1659521982.208568,11457
1659521982.251578,11487
1659521982.29015,11509
1659521982.328723,11532
1659521982.367296,11554
1659521982.405527,11603
1659521982.443758,11643
1659521982.481989,11686
1659521982.523463,11729
1659521982.564937,11780
1659521982.603851,11823
1659521982.642765,11880
1659521982.681679,11915
1659521982.720593,11962
1659521982.759507,12002
1659521982.798421,11970
1659521982.840407,11822
1659521982.882393,11632
1659521982.920966,11531
1659521982.959538,11475
1659521982.998111,11433
1659521983.039585,11423
1659521983.081059,11408
1659521983.120315,11391
1659521983.15957,11364
1659521983.198825,11376
1659521983.239787,11388
1659521983.280749,11426
1659521983.324442,11459
1659521983.368135,11488
1659521983.411828,11519
1659521983.444597,11546
1659521983.477367,11576
1659521983.521743,11603
1659521983.566118,11651
1659521983.610494,11703
1659521983.649408,11716
1659521983.688322,11638
1659521983.727236,11429
1659521983.76871,11278
1659521983.810184,11187
1659521983.849439,11122
1659521983.888694,11106
1659521983.92795,11135
1659521983.968912,11166
1659521984.009874,11174
1659521984.04947,11188
1659521984.089067,11202
1659521984.128664,11235
1659521984.167578,11253
1659521984.206491,11286
1659521984.245405,11338
1659521984.287392,11389
1659521984.329378,11444
1659521984.367609,11502
1659521984.40584,11560
1659521984.444071,11612
1659521984.486569,11671
1659521984.529068,11691
1659521984.567981,11597
1659521984.606895,11406
1659521984.645809,11289
1659521984.684041,11273
1659521984.722272,11276
1659521984.760503,11303
1659521984.801977,11343
1659521984.843451,11355
1659521984.88595,11361
1659521984.928448,11356
1659521984.96702,11367
1659521985.005593,11362
1659521985.044165,11353
1659521985.088882,11347
1659521985.133599,11321
1659521985.178316,11313
1659521985.21211,11309
1659521985.245903,11326
1659521985.289938,11345
1659521985.333972,11390
1659521985.378006,11381
1659521985.41564,11202
1659521985.453274,10875
1659521985.490908,10622
1659521985.528542,10483
1659521985.572234,10408
1659521985.615927,10381
1659521985.65962,10392
1659521985.698193,10379
1659521985.736765,10328
1659521985.775338,10294
1659521985.817324,10306
1659521985.85931,10366
1659521985.897883,10444
1659521985.936455,10536
1659521985.975028,10619
1659521986.013601,10703
1659521986.052173,10772
1659521986.090746,10854
1659521986.133244,10926
1659521986.175742,11007
1659521986.214315,11063
1659521986.252887,11035
1659521986.29146,10820
1659521986.332934,10619
1659521986.374408,10516
1659521986.414005,10460
1659521986.453601,10428
1659521986.493198,10458
1659521986.531429,10469
1659521986.56966,10464
1659521986.607892,10464
1659521986.648342,10517
1659521986.688792,10603
1659521986.727706,10724
1659521986.76662,10851
1659521986.805533,10985
1659521986.84752,11114
1659521986.889506,11224
1659521986.927737,11312
1659521986.965968,11389
1659521987.0042,11455
1659521987.045674,11499
1659521987.087148,11451
1659521987.131865,11247
1659521987.176581,11022
1659521987.221298,10894
1659521987.254068,10802
1659521987.286838,10760
1659521987.331896,10739
1659521987.376954,10721
1659521987.422012,10697
1659521987.460926,10689
1659521987.49984,10701
1659521987.538754,10735
1659521987.579716,10780
1659521987.620678,10825
1659521987.659934,10874
1659521987.699189,10930
1659521987.738444,10980
1659521987.780942,11051
1659521987.823441,11104
1659521987.861672,11163
1659521987.899903,11196
1659521987.938134,11106
1659521987.977048,10880
1659521988.015962,10713
1659521988.054876,10615
1659521988.09635,10571
1659521988.137824,10587
1659521988.176738,10634
1659521988.215652,10690
1659521988.254566,10756
1659521988.29604,10821
1659521988.337514,10874
1659521988.37677,10966
1659521988.416025,11042
1659521988.45528,11129
1659521988.496242,11218
1659521988.537204,11296
1659521988.576459,11373
1659521988.615715,11451
1659521988.65497,11524
1659521988.696956,11593
1659521988.738942,11640
1659521988.777174,11582
1659521988.815405,11462
1659521988.853636,11357
1659521988.89767,11285
1659521988.941704,11253
1659521988.985739,11227
1659521989.01902,11238
1659521989.052302,11233
1659521989.096336,11225
1659521989.14037,11242
1659521989.184405,11271
1659521989.222977,11323
1659521989.26155,11380
1659521989.300122,11450
1659521989.342108,11509
1659521989.384094,11589
1659521989.423008,11655
1659521989.461922,11716
1659521989.500836,11781
1659521989.539409,11816
1659521989.577981,11807
1659521989.616554,11688
1659521989.65854,11527
1659521989.700526,11374
1659521989.739782,11288
1659521989.779037,11235
1659521989.818292,11228
1659521989.859254,11239
1659521989.900216,11230
1659521989.938789,11211
1659521989.977361,11200
1659521990.015934,11212
1659521990.058432,11224
1659521990.10093,11228
1659521990.139162,11238
1659521990.177393,11258
1659521990.215624,11294
1659521990.256586,11335
1659521990.297548,11375
1659521990.336803,11425
1659521990.376059,11475
1659521990.415314,11472
1659521990.459348,11347
1659521990.503382,11154
1659521990.547417,11052
1659521990.586672,11018
1659521990.625927,11006
1659521990.665183,11021
1659521990.706913,11069
1659521990.748643,11085
1659521990.790373,11097
1659521990.832103,11125
1659521990.871017,11171
1659521990.909931,11228
1659521990.948845,11285
1659521990.991343,11317
1659521991.033841,11359
1659521991.072414,11408
1659521991.110986,11438
1659521991.149559,11472
1659521991.18779,11513
1659521991.226021,11565
1659521991.264253,11581
1659521991.306239,11547
1659521991.348225,11372
1659521991.386456,11235
1659521991.424687,11189
1659521991.462919,11183
1659521991.502174,11193
1659521991.541429,11205
1659521991.580684,11208
1659521991.62267,11200
1659521991.664657,11200
1659521991.703229,11222
1659521991.741802,11248
1659521991.780374,11291
1659521991.821848,11329
1659521991.863322,11374
1659521991.902919,11401
1659521991.942516,11421
1659521991.982112,11434
1659521992.023587,11459
1659521992.065061,11440
1659521992.103292,11248
1659521992.141523,10950
1659521992.179754,10727
1659521992.221228,10602
1659521992.262702,10518
1659521992.306737,10487
1659521992.350771,10503
1659521992.394805,10491
1659521992.433378,10476
1659521992.47195,10491
1659521992.510523,10532
1659521992.551997,10571
1659521992.593471,10643
1659521992.632385,10705
1659521992.671299,10774
1659521992.710213,10829
1659521992.751175,10890
1659521992.792137,10960
1659521992.831734,11021
1659521992.87133,11066
1659521992.910927,11023
1659521992.949841,10814
1659521992.988755,10596
1659521993.027669,10464
1659521993.068631,10408
1659521993.109593,10361
1659521993.148848,10377
1659521993.188103,10416
1659521993.227359,10439
1659521993.269857,10465
1659521993.312355,10508
1659521993.350586,10571
1659521993.388818,10639
1659521993.427049,10726
1659521993.465963,10793
1659521993.504877,10863
1659521993.543791,10939
1659521993.585265,11005
1659521993.626739,11074
1659521993.668725,11145
1659521993.710711,11217
1659521993.749284,11258
1659521993.787856,11206
1659521993.826429,11036
1659521993.871487,10913
1659521993.916545,10861
1659521993.961603,10847
1659521993.994885,10867
1659521994.028167,10903
1659521994.072201,10937
1659521994.116235,10963
1659521994.160269,10994
1659521994.199525,11043
1659521994.23878,11100
1659521994.278035,11158
1659521994.320021,11215
1659521994.362008,11270
1659521994.40058,11324
1659521994.439153,11369
1659521994.477725,11415
1659521994.519199,11447
1659521994.560673,11484
1659521994.599246,11539
1659521994.637819,11578
1659521994.676391,11528
1659521994.714964,11407
1659521994.753536,11314
1659521994.792109,11214
1659521994.834095,11110
1659521994.876081,11049
1659521994.915337,11030
1659521994.954592,11000
1659521994.993847,10962
1659521995.032078,10998
1659521995.07031,11080
1659521995.108541,11164
1659521995.150527,11226
1659521995.192513,11288
1659521995.235011,11332
1659521995.277509,11391
1659521995.316082,11432
1659521995.354655,11473
1659521995.393227,11509
1659521995.433677,11567
1659521995.474127,11635
1659521995.513382,11716
1659521995.552638,11798
1659521995.591893,11803
1659521995.635586,11787
1659521995.679279,11738
1659521995.722972,11680
1659521995.756253,11721
1659521995.789535,11765
1659521995.834252,11880
1659521995.878969,12032
1659521995.923686,12196
1659521995.963419,12348
1659521996.003152,12477
1659521996.042885,12590
1659521996.082618,12663
1659521996.122352,12757
1659521996.16229,12813
1659521996.202228,12840
1659521996.242166,12878
1659521996.283128,12901
1659521996.32409,12887
1659521996.363003,12891
1659521996.401917,12937
1659521996.440831,12960
1659521996.479745,13028
1659521996.518659,13049
1659521996.557573,13058
1659521996.59956,13083
1659521996.641546,13130
1659521996.680118,13164
1659521996.718691,13220
1659521996.757263,13268
1659521996.798738,13311
1659521996.840211,13321
1659521996.878784,13337
1659521996.917357,13375
1659521996.955929,13431
1659521996.997915,13460
1659521997.039901,13475
1659521997.078815,13479
1659521997.117729,13500
1659521997.156643,13506
1659521997.198629,13470
1659521997.240616,13403
1659521997.279188,13344
1659521997.317761,13317
1659521997.356333,13309
1659521997.398575,13304
1659521997.440818,13277
1659521997.48306,13265
1659521997.525302,13258
1659521997.566264,13225
1659521997.607226,13216
1659521997.645798,13205
1659521997.684371,13215
1659521997.722944,13219
1659521997.76254,13227
1659521997.802137,13225
1659521997.841734,13221
1659521997.882184,13237
1659521997.922634,13238
1659521997.961206,13232
1659521997.999779,13231
1659521998.038351,13221
1659521998.079825,13136
1659521998.1213,12997
1659521998.165334,12904
1659521998.209368,12860
1659521998.253402,12845
1659521998.286684,12844
1659521998.319966,12864
1659521998.364682,12867
1659521998.409399,12863
1659521998.454116,12878
1659521998.492689,12904
1659521998.531261,12931
1659521998.569834,12955
1659521998.611308,13000
1659521998.652782,13034
1659521998.692037,13080
1659521998.731293,13112
1659521998.770548,13157
1659521998.81151,13209
1659521998.852472,13220
1659521998.890703,13137
1659521998.928935,13001
1659521998.967166,12920
1659521999.005738,12842
1659521999.044311,12725
1659521999.082884,12562
1659521999.12487,12435
1659521999.166856,12373
1659521999.205428,12314
1659521999.244001,12316
1659521999.282574,12346
1659521999.324048,12418
1659521999.365522,12458
1659521999.405118,12502
1659521999.444715,12521
1659521999.484312,12483
1659521999.526298,12478
1659521999.568284,12487
1659521999.606857,12497
1659521999.645429,12519
1659521999.684002,12492
1659521999.725988,12294
1659521999.767974,12075
1659521999.806546,11963
1659521999.845119,11906
1659521999.883692,11853
1659521999.927726,11818
1659521999.97176,11828
1659522000.015794,11847
1659522000.0501,11855
1659522000.084406,11860
1659522000.12844,11889
1659522000.172474,11931
1659522000.216508,11984
1659522000.248766,12036
1659522000.281024,12078
1659522000.325741,12123
1659522000.370457,12158
1659522000.415174,12207
1659522000.454088,12267
1659522000.493002,12335
1659522000.531916,12355
1659522000.573902,12287
1659522000.615888,12135
1659522000.655144,12011
1659522000.694399,12004
1659522000.733654,12019
1659522000.775128,12024
1659522000.816602,12086
1659522000.854834,12129
1659522000.893065,12161
1659522000.931296,12182
1659522000.970551,12195
1659522001.009807,12195
1659522001.049062,12187
1659522001.091048,12204
1659522001.133034,12229
1659522001.172358,12262
1659522001.211681,12298
1659522001.251005,12341
1659522001.290329,12406
1659522001.329652,12441
1659522001.368225,12477
1659522001.406797,12440
1659522001.44537,12368
1659522001.489404,12324
1659522001.533438,12341
1659522001.577472,12361
1659522001.611266,12403
1659522001.64506,12434
1659522001.689777,12465
1659522001.734494,12504
1659522001.779211,12529
1659522001.817442,12561
1659522001.855673,12593
1659522001.893904,12629
1659522001.93589,12656
1659522001.977876,12687
1659522002.017132,12697
1659522002.056387,12707
1659522002.095642,12738
1659522002.133874,12744
1659522002.172105,12735
1659522002.210336,12640
1659522002.25181,12510
1659522002.293284,12422
1659522002.331857,12423
1659522002.37043,12416
1659522002.409002,12439
1659522002.450476,12480
1659522002.49195,12507
1659522002.530864,12527
1659522002.569778,12557
1659522002.608692,12584
1659522002.650678,12604
1659522002.692664,12634
1659522002.731578,12667
1659522002.770492,12695
1659522002.809406,12724
1659522002.851392,12739
1659522002.893378,12772
1659522002.932634,12795
1659522002.971889,12814
1659522003.011144,12791
1659522003.05552,12693
1659522003.099895,12576
1659522003.144271,12533
1659522003.177552,12551
1659522003.210834,12561
1659522003.255551,12601
1659522003.300268,12628
1659522003.344985,12664
1659522003.383216,12694
1659522003.421447,12719
1659522003.459679,12754
1659522003.501665,12788
1659522003.543651,12823
1659522003.582565,12860
1659522003.621479,12911
1659522003.660393,12932
1659522003.698965,12950
1659522003.737538,12988
1659522003.77611,13009
1659522003.817585,13019
1659522003.859059,12967
1659522003.898314,12889
1659522003.937569,12869
1659522003.976825,12902
1659522004.018811,12953
1659522004.060797,12995
1659522004.099369,13058
1659522004.137942,13101
1659522004.176514,13146
1659522004.217988,13191
1659522004.259463,13215
1659522004.298377,13233
1659522004.337291,13260
1659522004.376204,13280
1659522004.417679,13283
1659522004.459153,13296
1659522004.497384,13312
1659522004.535615,13331
1659522004.573846,13350
1659522004.618222,13353
1659522004.662597,13334
1659522004.706973,13231
1659522004.747423,13180
1659522004.787873,13155
1659522004.826787,13164
1659522004.865701,13172
1659522004.904615,13192
1659522004.946601,13215
1659522004.988587,13207
1659522005.027501,13223
1659522005.066415,13232
1659522005.105329,13255
1659522005.144243,13292
1659522005.183157,13301
1659522005.222071,13319
1659522005.264569,13328
1659522005.307067,13358
1659522005.345981,13374
1659522005.384895,13412
1659522005.423809,13441
1659522005.464771,13482
1659522005.505733,13441
1659522005.544988,13340
1659522005.584244,13290
1659522005.623499,13273
1659522005.661389,13261
1659522005.699279,13256
1659522005.737169,13258
1659522005.779155,13272
1659522005.821141,13264
1659522005.860396,13274
1659522005.899651,13272
1659522005.938907,13280
1659522005.980381,13308
1659522006.021855,13330
1659522006.060769,13343
1659522006.099683,13375
1659522006.138597,13398
1659522006.181095,13426
1659522006.223593,13453
1659522006.26831,13467
1659522006.313027,13490
1659522006.357744,13478
1659522006.396828,13398
1659522006.435913,13337
1659522006.474998,13331
1659522006.514082,13340
1659522006.553167,13355
1659522006.592251,13371
1659522006.633213,13389
1659522006.674176,13402
1659522006.712748,13419
1659522006.751321,13426
1659522006.789893,13461
1659522006.828807,13483
1659522006.867721,13508
1659522006.906635,13543
1659522006.948621,13560
1659522006.990607,13578
1659522007.028838,13599
1659522007.06707,13621
1659522007.105301,13634
1659522007.147287,13653
1659522007.189273,13602
1659522007.227846,13497
1659522007.266418,13413
1659522007.304991,13391
1659522007.349366,13380
1659522007.393742,13376
1659522007.438118,13378
1659522007.471911,13386
1659522007.505705,13385
1659522007.550081,13366
1659522007.594456,13375
1659522007.638832,13386
1659522007.677063,13403
1659522007.715294,13417
1659522007.753525,13438
1659522007.794999,13461
1659522007.836473,13469
1659522007.875387,13479
1659522007.914301,13499
1659522007.953215,13523
1659522007.994177,13536
1659522008.03514,13546
1659522008.074054,13515
1659522008.112967,13388
1659522008.151881,13259
1659522008.190454,13169
1659522008.229027,13097
1659522008.267599,13034
1659522008.309585,13023
1659522008.351571,13027
1659522008.390485,13026
1659522008.429399,13024
1659522008.468313,13027
1659522008.509787,13049
1659522008.551261,13076
1659522008.590517,13100
1659522008.629772,13131
1659522008.669027,13165
1659522008.710501,13190
1659522008.751975,13210
1659522008.791231,13254
1659522008.830486,13272
1659522008.869741,13299
1659522008.913434,13330
1659522008.957127,13344
1659522009.00082,13286
1659522009.033589,13207
1659522009.066359,13160
1659522009.110735,13164
1659522009.15511,13171
1659522009.199486,13183
1659522009.241984,13203
1659522009.284482,13213
1659522009.323396,13214
1659522009.36231,13225
1659522009.401224,13245
1659522009.440479,13271
1659522009.479734,13292
1659522009.51899,13312
1659522009.560464,13338
1659522009.601938,13364
1659522009.640852,13386
1659522009.679766,13403
1659522009.71868,13427
1659522009.761178,13446
1659522009.803676,13464
1659522009.84259,13479
1659522009.881504,13439
1659522009.920418,13338
1659522009.958308,13245
1659522009.996197,13209
1659522010.034087,13194
1659522010.076074,13204
1659522010.11806,13216
1659522010.156291,13225
1659522010.194522,13250
1659522010.232754,13250
1659522010.274227,13261
1659522010.315701,13274
1659522010.354615,13288
1659522010.393529,13297
1659522010.432443,13326
1659522010.473917,13334
1659522010.515392,13357
1659522010.559426,13384
1659522010.60346,13411
1659522010.647494,13438
1659522010.681288,13478
1659522010.715081,13507
1659522010.759799,13531
1659522010.804515,13492
1659522010.849232,13436
1659522010.887464,13409
1659522010.925695,13434
1659522010.963926,13443
1659522011.004888,13464
1659522011.04585,13472
1659522011.085105,13472
1659522011.124361,13474
1659522011.163616,13493
1659522011.202188,13500
1659522011.240761,13520
1659522011.279334,13564
1659522011.320808,13601
1659522011.362282,13637
1659522011.400855,13668
1659522011.439427,13697
1659522011.478,13733
1659522011.518962,13768
1659522011.559924,13820
1659522011.599179,13852
1659522011.638434,13887
1659522011.67769,13922
1659522011.716945,13948
1659522011.7562,13885
1659522011.795456,13817
1659522011.83949,13810
1659522011.883524,13828
1659522011.927558,13838
1659522011.967155,13863
1659522012.006752,13886
1659522012.046348,13910
1659522012.08731,13925
1659522012.128272,13936
1659522012.166845,13956
1659522012.205417,13976
1659522012.24399,14012
1659522012.282904,14032
1659522012.321818,14072
1659522012.360732,14090
1659522012.40323,14122
1659522012.445728,14164
1659522012.483959,14177
1659522012.522191,14201
1659522012.560422,14212
1659522012.599677,14237
1659522012.638932,14252
1659522012.678188,14251
1659522012.720174,14131
1659522012.76216,14082
1659522012.803634,14096
1659522012.845108,14109
1659522012.884022,14136
1659522012.922936,14157
1659522012.96185,14188
1659522013.003836,14183
1659522013.045822,14192
1659522013.084736,14192
1659522013.12365,14200
1659522013.162564,14219
1659522013.206598,14229
1659522013.250632,14251
1659522013.294667,14266
1659522013.32846,14299
1659522013.362254,14327
1659522013.406288,14358
1659522013.450322,14386
1659522013.494357,14393
1659522013.527126,14369
1659522013.559896,14229
1659522013.604271,14140
1659522013.648647,14093
1659522013.693022,14055
1659522013.731936,14042
1659522013.77085,14023
1659522013.809764,14002
1659522013.851238,13955
1659522013.892713,13922
1659522013.931285,13859
1659522013.969858,13845
1659522014.00843,13827
1659522014.047686,13844
1659522014.086941,13847
1659522014.126196,13837
1659522014.16767,13830
1659522014.209144,13821
1659522014.248058,13815
1659522014.286972,13824
1659522014.325886,13835
1659522014.36736,13817
1659522014.408834,13702
1659522014.447066,13507
1659522014.485297,13404
1659522014.523528,13331
1659522014.565514,13243
1659522014.6075,13174
1659522014.646755,13142
1659522014.686011,13095
1659522014.725266,13055
1659522014.765716,13048
1659522014.806166,13086
1659522014.84508,13120
1659522014.883994,13169
1659522014.922908,13220
1659522014.967966,13248
1659522015.013025,13277
1659522015.058083,13291
1659522015.100069,13318
1659522015.142055,13355
1659522015.180969,13378
1659522015.219883,13392
1659522015.258797,13307
1659522015.300783,13140
1659522015.342769,13017
1659522015.381342,12946
1659522015.419914,12899
1659522015.458487,12866
1659522015.497059,12863
1659522015.535632,12843
1659522015.574205,12820
1659522015.617215,12807
1659522015.660225,12815
1659522015.698456,12844
1659522015.736687,12877
1659522015.774919,12906
1659522015.815369,12929
1659522015.855819,12964
1659522015.895415,12996
1659522015.935012,13033
1659522015.974609,13074
1659522016.013181,13092
1659522016.051754,13044
1659522016.090326,12928
1659522016.132313,12818
1659522016.174299,12746
1659522016.213554,12686
1659522016.252809,12633
1659522016.292064,12576
1659522016.333539,12510
1659522016.375013,12442
1659522016.413244,12439
1659522016.451475,12473
1659522016.489706,12512
1659522016.532205,12547
1659522016.574703,12585
1659522016.618737,12611
1659522016.662771,12648
1659522016.706805,12685
1659522016.739063,12703
1659522016.771321,12662
1659522016.812794,12522
1659522016.854269,12372
1659522016.895743,12275
1659522016.937217,12215
1659522016.978691,12157
1659522017.020165,12141
1659522017.059079,12130
1659522017.097993,12125
1659522017.136907,12133
1659522017.176162,12156
1659522017.215417,12187
1659522017.254673,12232
1659522017.295635,12277
1659522017.336597,12319
1659522017.375169,12355
1659522017.413742,12403
1659522017.452315,12448
1659522017.494813,12495
1659522017.537311,12446
1659522017.576225,12315
1659522017.615139,12174
1659522017.654053,12070
1659522017.698087,11980
1659522017.742121,11914
1659522017.786155,11887
1659522017.818925,11861
1659522017.851695,11845
1659522017.89607,11817
1659522017.940446,11855
1659522017.984821,11906
1659522018.023052,11959
1659522018.061284,12008
1659522018.099515,12042
1659522018.142013,12070
1659522018.184511,12081
1659522018.223425,12099
1659522018.262339,12127
1659522018.301253,12131
1659522018.342727,12082
1659522018.384201,11813
1659522018.423456,11538
1659522018.462712,11366
1659522018.501967,11278
1659522018.544465,11224
1659522018.586963,11224
1659522018.625877,11249
1659522018.664791,11258
1659522018.703705,11283
1659522018.742278,11295
1659522018.78085,11333
1659522018.819423,11376
1659522018.860897,11424
1659522018.902371,11486
1659522018.940944,11530
1659522018.979516,11578
1659522019.018089,11621
1659522019.060075,11669
1659522019.102061,11697
1659522019.140975,11746
1659522019.179889,11787
1659522019.218803,11762
1659522019.260277,11580
1659522019.301751,11327
1659522019.339982,11188
1659522019.378214,11140
1659522019.416445,11121
1659522019.461162,11137
1659522019.505879,11168
1659522019.550596,11171
1659522019.592582,11170
1659522019.634568,11180
1659522019.673482,11193
1659522019.712396,11220
1659522019.75131,11269
1659522019.792272,11320
1659522019.833234,11382
1659522019.872148,11445
1659522019.911062,11514
1659522019.949975,11577
1659522019.988548,11635
1659522020.027121,11685
1659522020.065693,11741
1659522020.107167,11769
1659522020.148641,11708
1659522020.187555,11526
1659522020.226469,11402
1659522020.265383,11351
1659522020.303273,11329
1659522020.341163,11329
1659522020.379053,11349
1659522020.421551,11377
1659522020.464049,11396
1659522020.502963,11404
1659522020.541877,11432
1659522020.580791,11473
1659522020.621753,11521
1659522020.662715,11576
1659522020.70197,11628
1659522020.741226,11701
1659522020.780481,11762
1659522020.822467,11821
1659522020.864453,11852
1659522020.903026,11892
1659522020.941598,11929
1659522020.980171,11954
1659522021.021645,11999
1659522021.063119,12007
1659522021.107836,11913
1659522021.152553,11719
1659522021.19727,11554
1659522021.23516,11494
1659522021.27305,11453
1659522021.31094,11440
1659522021.353438,11454
1659522021.395936,11502
1659522021.43485,11505
1659522021.473764,11526
1659522021.512678,11571
1659522021.554152,11617
1659522021.595626,11666
1659522021.63454,11710
1659522021.673454,11768
1659522021.712368,11810
1659522021.754866,11858
1659522021.797364,11905
1659522021.835937,11936
1659522021.874509,11986
1659522021.913082,12013
1659522021.951996,12049
1659522021.99091,12091
1659522022.029824,12123
1659522022.071298,12147
1659522022.112772,12126
1659522022.152505,12035
1659522022.192238,11959
1659522022.231971,11966
1659522022.271704,12001
1659522022.311438,12045
1659522022.350352,12090
1659522022.389266,12145
1659522022.42818,12216
1659522022.468629,12249
1659522022.509079,12303
1659522022.547993,12365
1659522022.586907,12413
1659522022.625821,12435
1659522022.667807,12453
1659522022.709794,12471
1659522022.748708,12492
1659522022.787621,12521
1659522022.826535,12548
1659522022.86801,12568
1659522022.909483,12605
1659522022.948397,12629
1659522022.987311,12649
1659522023.026225,12687
1659522023.068212,12725
1659522023.110198,12719
1659522023.149112,12624
1659522023.188025,12572
1659522023.226939,12568
1659522023.270632,12588
1659522023.314325,12592
1659522023.358018,12610
1659522023.399492,12639
1659522023.440966,12663
1659522023.479197,12680
1659522023.517429,12699
1659522023.55566,12728
1659522023.594233,12756
1659522023.632805,12801
1659522023.671378,12816
1659522023.713364,12850
1659522023.75535,12889
1659522023.794605,12915
1659522023.83386,12942
1659522023.873116,12967
1659522023.914078,13003
1659522023.95504,13022
1659522023.994295,13054
1659522024.033551,13082
1659522024.072806,13106
1659522024.115304,13102
1659522024.157802,13006
1659522024.196375,12945
1659522024.234947,12946
1659522024.27352,12947
1659522024.312775,12954
1659522024.35203,12983
1659522024.391286,13001
1659522024.43276,13012
1659522024.474234,13034
1659522024.512806,13043
1659522024.551379,13091
1659522024.589952,13104
1659522024.631938,13135
1659522024.673924,13164
1659522024.717958,13175
1659522024.761992,13200
1659522024.806026,13210
1659522024.838796,13243
1659522024.871566,13251
1659522024.916283,13256
1659522024.960999,13249
1659522025.005716,13260
1659522025.040022,13290
1659522025.074328,13295
1659522025.118703,13208
1659522025.163079,13162
1659522025.207454,13145
1659522025.246368,13166
1659522025.285282,13196
1659522025.324196,13214
1659522025.366182,13222
1659522025.408169,13239
1659522025.446741,13239
1659522025.485314,13253
1659522025.523886,13267
1659522025.564848,13280
1659522025.60581,13296
1659522025.645066,13316
1659522025.684321,13336
1659522025.723576,13359
1659522025.761466,13392
1659522025.799356,13404
1659522025.837246,13426
1659522025.879744,13458
1659522025.922242,13477
1659522025.961156,13491
1659522026.00007,13499
1659522026.038984,13432
1659522026.080458,13361
1659522026.121932,13346
1659522026.160505,13338
1659522026.199077,13349
1659522026.23765,13366
1659522026.280148,13380
1659522026.322646,13398
1659522026.361219,13406
1659522026.399791,13409
1659522026.438364,13433
1659522026.479326,13450
1659522026.520288,13493
1659522026.559202,13519
1659522026.598116,13551
1659522026.63703,13584
1659522026.681064,13622
1659522026.725098,13641
1659522026.769133,13653
1659522026.802414,13664
1659522026.835696,13681
1659522026.880413,13693
1659522026.92513,13710
1659522026.969847,13643
1659522027.008078,13558
1659522027.046309,13542
1659522027.08454,13550
1659522027.126526,13576
1659522027.168513,13611
1659522027.207768,13632
1659522027.247023,13652
1659522027.286278,13654
1659522027.328264,13670
1659522027.370251,13692
1659522027.410189,13727
1659522027.450127,13740
1659522027.490065,13735
1659522027.530003,13735
1659522027.569941,13735
1659522027.608513,13760
1659522027.647086,13771
1659522027.685658,13784
1659522027.724572,13792
1659522027.763486,13794
1659522027.8024,13716
1659522027.844386,13675
1659522027.886373,13666
1659522027.925628,13684
1659522027.964883,13706
1659522028.004138,13734
1659522028.044588,13748
1659522028.085038,13752
1659522028.123952,13753
1659522028.162866,13750
1659522028.20178,13764
1659522028.244278,13776
1659522028.286777,13798
1659522028.331152,13837
1659522028.375528,13856
1659522028.419903,13874
1659522028.453185,13899
1659522028.486466,13931
1659522028.531183,13959
1659522028.5759,13981
1659522028.620617,13902
1659522028.658849,13816
1659522028.69708,13810
1659522028.735311,13812
1659522028.777297,13820
1659522028.819283,13813
1659522028.857856,13831
1659522028.896428,13851
1659522028.935001,13847
1659522028.975963,13862
1659522029.016925,13882
1659522029.055156,13923
1659522029.093388,13938
1659522029.131619,13967
1659522029.171216,13992
1659522029.210812,14018
1659522029.250409,14055
1659522029.291883,14071
1659522029.333357,14083
1659522029.371588,14100
1659522029.409819,14120
1659522029.44805,14058
1659522029.490037,13971
1659522029.532023,13927
1659522029.57162,13920
1659522029.611216,13929
1659522029.650813,13930
1659522029.689044,13942
1659522029.727275,13954
1659522029.765507,13967
1659522029.807492,13981
1659522029.849479,13999
1659522029.890953,14008
1659522029.932427,14025
1659522029.970999,14048
1659522030.009572,14064
1659522030.048145,14078
1659522030.09252,14093
1659522030.136896,14102
1659522030.181271,14129
1659522030.214553,14148
1659522030.247835,14171
1659522030.291869,14195
1659522030.335903,14234
1659522030.379937,14210
1659522030.419193,14115
1659522030.458448,14047
1659522030.497703,14034
1659522030.540201,14039
1659522030.582699,14021
1659522030.620931,14026
1659522030.659162,14041
1659522030.697393,14039
1659522030.738867,14043
1659522030.780341,14067
1659522030.819938,14079
1659522030.859535,14088
1659522030.899131,14122
1659522030.937362,14147
1659522030.975594,14175
1659522031.013825,14191
1659522031.056323,14219
1659522031.098821,14234
1659522031.137735,14275
1659522031.176649,14276
1659522031.215563,14288
1659522031.256013,14309
1659522031.296463,14322
1659522031.335036,14331
1659522031.373608,14343
1659522031.412181,14293
1659522031.454679,14197
1659522031.497177,14153
1659522031.53575,14152
1659522031.574322,14140
1659522031.612895,14147
1659522031.654369,14150
1659522031.695843,14180
1659522031.735098,14171
1659522031.774354,14188
1659522031.813609,14184
1659522031.857985,14198
1659522031.90236,14226
1659522031.946736,14242
1659522031.980017,14262
1659522032.013299,14284
1659522032.057674,14311
1659522032.10205,14335
1659522032.146425,14357
1659522032.184657,14383
1659522032.222888,14406
1659522032.261119,14427
1659522032.302081,14444
1659522032.343043,14460
1659522032.381616,14476
1659522032.420189,14503
1659522032.458761,14465
1659522032.498017,14365
1659522032.537272,14292
1659522032.576527,14275
1659522032.617489,14283
1659522032.658451,14268
1659522032.700437,14287
1659522032.742423,14293
1659522032.78441,14297
1659522032.826396,14309
1659522032.866919,14316
1659522032.907442,14341
1659522032.947965,14359
1659522032.988488,14382
1659522033.029011,14404
1659522033.069535,14429
1659522033.110058,14442
1659522033.148289,14477
1659522033.18652,14515
1659522033.224751,14542
1659522033.263324,14556
1659522033.301897,14572
1659522033.340469,14600
1659522033.381943,14610
1659522033.423418,14615
1659522033.462331,14632
1659522033.501245,14633
1659522033.540159,14546
1659522033.582145,14453
1659522033.624131,14428
1659522033.662704,14410
1659522033.701277,14419
1659522033.739849,14417
1659522033.779446,14424
1659522033.819043,14451
1659522033.858639,14457
1659522033.899601,14457
1659522033.940563,14475
1659522033.979477,14499
1659522034.018391,14519
1659522034.057305,14543
1659522034.100315,14551
1659522034.143326,14569
1659522034.18736,14591
1659522034.231394,14596
1659522034.275428,14615
1659522034.307686,14626
1659522034.339943,14645
1659522034.384319,14645
1659522034.428694,14662
1659522034.47307,14679
1659522034.511642,14698
1659522034.550215,14716
1659522034.588788,14673
1659522034.630774,14584
1659522034.67276,14510
1659522034.712015,14503
1659522034.751271,14509
1659522034.790526,14508
1659522034.831488,14513
1659522034.87245,14521
1659522034.910681,14531
1659522034.948912,14529
1659522034.987144,14554
1659522035.027082,14551
1659522035.06702,14569
1659522035.106958,14602
1659522035.14792,14637
1659522035.188882,14662
1659522035.230356,14690
1659522035.27183,14720
1659522035.313304,14744
1659522035.354778,14753
1659522035.387548,14760
1659522035.420317,14767
1659522035.464352,14792
1659522035.508386,14788
1659522035.55242,14795
1659522035.590992,14799
1659522035.629565,14745
1659522035.668138,14650
1659522035.710636,14595
1659522035.753134,14584
1659522035.791024,14590
1659522035.828914,14602
1659522035.866804,14613
1659522035.908278,14627
1659522035.949752,14632
1659522035.989348,14631
1659522036.028945,14635
1659522036.068542,14658
1659522036.107114,14681
1659522036.145687,14687
1659522036.18426,14711
1659522036.226758,14718
1659522036.269256,14748
1659522036.308511,14751
1659522036.347766,14765
1659522036.387022,14786
1659522036.427472,14806
1659522036.467922,14819
1659522036.506494,14837
1659522036.545067,14860
1659522036.58364,14874
1659522036.626138,14834
1659522036.668636,14733
1659522036.707208,14662
1659522036.745781,14651
1659522036.784353,14657
1659522036.825316,14661
1659522036.866278,14670
1659522036.905192,14672
1659522036.944106,14678
1659522036.98302,14693
1659522037.027736,14687
1659522037.072453,14721
1659522037.11717,14754
1659522037.159156,14780
1659522037.201142,14817
1659522037.240398,14843
1659522037.279653,14860
1659522037.318908,14875
1659522037.357822,14895
1659522037.396736,14916
1659522037.43565,14917
1659522037.474564,14932
1659522037.513478,14934
1659522037.552392,14949
1659522037.591306,14892
1659522037.63022,14784
1659522037.669134,14695
1659522037.711632,14666
1659522037.75413,14670
1659522037.792361,14650
1659522037.830593,14651
1659522037.868824,14656
1659522037.911629,14660
1659522037.954434,14661
1659522037.99724,14660
1659522038.040045,14678
1659522038.08285,14685
1659522038.121764,14712
1659522038.160678,14721
1659522038.199592,14740
1659522038.241579,14733
1659522038.283565,14762
1659522038.322479,14756
1659522038.361392,14777
1659522038.400306,14795
1659522038.438879,14809
1659522038.477452,14819
1659522038.516024,14763
1659522038.557498,14695
1659522038.598972,14670
1659522038.637886,14678
1659522038.6768,14695
1659522038.715714,14693
1659522038.757188,14703
1659522038.798662,14704
1659522038.837235,14708
1659522038.875808,14723
1659522038.91438,14735
1659522038.953294,14753
1659522038.992208,14782
1659522039.031122,14791
1659522039.071572,14809
1659522039.112022,14834
1659522039.151277,14846
1659522039.190533,14860
1659522039.229788,14866
1659522039.271774,14876
1659522039.31376,14906
1659522039.358136,14860
1659522039.402511,14773
1659522039.446887,14714
1659522039.479144,14714
1659522039.511402,14699
1659522039.556802,14705
1659522039.602201,14699
1659522039.647601,14708
1659522039.680882,14707
1659522039.714164,14695
1659522039.754102,14690
1659522039.79404,14705
1659522039.833978,14717
1659522039.873916,14714
1659522039.913854,14745
1659522039.95584,14738
1659522039.997826,14756
1659522040.038788,14774
1659522040.079751,14776
1659522040.118664,14791
1659522040.157578,14816
1659522040.196492,14843
1659522040.241209,14819
1659522040.285926,14762
1659522040.330643,14724
1659522040.363413,14710
1659522040.396182,14706
1659522040.440899,14691
1659522040.485616,14688
1659522040.530333,14684
1659522040.564127,14679
1659522040.59792,14690
1659522040.641955,14685
1659522040.685989,14700
1659522040.730023,14724
1659522040.768937,14750
1659522040.807851,14758
1659522040.846765,14789
1659522040.889263,14789
1659522040.931761,14798
1659522040.969651,14823
1659522041.007541,14842
1659522041.045431,14865
1659522041.084003,14896
1659522041.122576,14917
1659522041.161149,14867
1659522041.202111,14793
1659522041.243073,14719
1659522041.281986,14675
1659522041.3209,14654
1659522041.359814,14632
1659522041.400776,14625
1659522041.441739,14620
1659522041.480994,14617
1659522041.520249,14607
1659522041.559505,14611
1659522041.600466,14618
1659522041.641428,14626
1659522041.680684,14647
1659522041.719939,14670
1659522041.759194,14683
1659522041.800668,14702
1659522041.842143,14719
1659522041.881057,14732
1659522041.919971,14750
1659522041.958884,14768
1659522042.002919,14780
1659522042.046953,14797
1659522042.090987,14808
1659522042.129901,14805
1659522042.168815,14706
1659522042.207729,14611
1659522042.24596,14539
1659522042.284191,14491
1659522042.322423,14449
1659522042.360654,14416
1659522042.398885,14407
1659522042.437116,14386
1659522042.479614,14371
1659522042.522113,14344
1659522042.561368,14337
1659522042.600623,14342
1659522042.639879,14352
1659522042.68084,14364
1659522042.721802,14377
1659522042.761058,14390
1659522042.800313,14388
1659522042.839568,14421
1659522042.884285,14411
1659522042.929002,14430
1659522042.973719,14449
1659522043.012975,14456
1659522043.05223,14472
1659522043.091485,14484
1659522043.131218,14436
1659522043.170951,14340
1659522043.210685,14253
1659522043.250418,14211
1659522043.290151,14191
1659522043.328724,14172
1659522043.367296,14162
1659522043.405869,14175
1659522043.445124,14168
1659522043.484379,14155
1659522043.523635,14150
1659522043.567327,14165
1659522043.61102,14178
1659522043.654713,14184
1659522043.687995,14196
1659522043.721277,14184
1659522043.766335,14200
1659522043.811393,14204
1659522043.856451,14202
1659522043.897925,14217
1659522043.939399,14224
1659522043.978313,14239
1659522044.017227,14246
1659522044.056141,14214
1659522044.098127,14117
1659522044.140114,14002
1659522044.179369,13894
1659522044.218624,13812
1659522044.257879,13762
1659522044.295769,13715
1659522044.333659,13689
1659522044.371549,13660
1659522044.410805,13650
1659522044.45006,13657
1659522044.489315,13648
1659522044.533008,13638
1659522044.576701,13616
1659522044.620394,13614
1659522044.658625,13606
1659522044.696856,13614
1659522044.735087,13623
1659522044.777586,13609
1659522044.820084,13559
1659522044.858656,13521
1659522044.897229,13504
1659522044.935801,13481
1659522044.976763,13351
1659522045.017725,12984
1659522045.057322,12492
1659522045.096919,12085
1659522045.136515,11789
1659522045.175088,11554
1659522045.21366,11410
1659522045.252233,11364
1659522045.293707,11349
1659522045.335181,11325
1659522045.374437,11279
1659522045.413692,11228
1659522045.452947,11189
1659522045.493909,11206
1659522045.534871,11274
1659522045.573444,11355
1659522045.612016,11440
1659522045.650589,11518
1659522045.689503,11583
1659522045.728417,11655
1659522045.767331,11713
1659522045.809317,11774
1659522045.851303,11832
1659522045.890217,11884
1659522045.929131,11820
1659522045.968045,11655
1659522046.010031,11555
1659522046.052017,11520
1659522046.094515,11476
1659522046.137013,11435
1659522046.175586,11430
1659522046.214159,11436
1659522046.252731,11444
1659522046.29779,11451
1659522046.342848,11477
1659522046.387906,11562
1659522046.420164,11658
1659522046.452421,11760
1659522046.496455,11856
1659522046.54049,11922
1659522046.584524,11981
1659522046.623438,12038
1659522046.662352,12101
1659522046.701266,12158
1659522046.743764,12200
1659522046.786262,12246
1659522046.824493,12286
1659522046.862724,12275
1659522046.900956,12178
1659522046.941918,12079
1659522046.98288,11995
1659522047.022135,11865
1659522047.06139,11757
1659522047.100646,11728
1659522047.13956,11694
1659522047.178473,11630
1659522047.217387,11578
1659522047.258862,11525
1659522047.300336,11507
1659522047.33925,11485
1659522047.378164,11487
1659522047.417078,11520
1659522047.458552,11551
1659522047.500026,11581
1659522047.539281,11604
1659522047.578536,11632
1659522047.617791,11664
1659522047.658754,11702
1659522047.699716,11712
1659522047.73863,11645
1659522047.777544,11393
1659522047.816458,11156
1659522047.856907,11012
1659522047.897357,10834
1659522047.936613,10723
1659522047.975868,10752
1659522048.015123,10839
1659522048.059158,10830
1659522048.103192,10805
1659522048.147226,10813
1659522048.188188,10844
1659522048.22915,10867
1659522048.268405,10907
1659522048.307661,10952
1659522048.346916,10981
1659522048.387059,11002
1659522048.427202,11036
1659522048.467344,11083
1659522048.507487,11161
1659522048.54763,11206
1659522048.586885,11149
1659522048.626141,10900
1659522048.665396,10753
1659522048.70687,10765
1659522048.748344,10830
1659522048.786575,10921
1659522048.824806,11005
1659522048.863038,11008
1659522048.902464,10966
1659522048.94189,10958
1659522048.981316,10982
1659522049.020742,11005
1659522049.060168,11043
1659522049.099594,11090
1659522049.139019,11143
1659522049.178446,11195
1659522049.220773,11239
1659522049.2631,11275
1659522049.305428,11324
1659522049.347755,11308
1659522049.390083,11186
1659522049.43241,11066
1659522049.472348,11074
1659522049.512286,11166
1659522049.552224,11266
1659522049.592162,11303
1659522049.6321,11325
1659522049.671355,11356
1659522049.710611,11402
1659522049.749866,11494
1659522049.790828,11588
1659522049.83179,11668
1659522049.870704,11709
1659522049.909618,11783
1659522049.948532,11857
1659522049.987105,11874
1659522050.025677,11920
1659522050.06425,11976
1659522050.105724,12011
1659522050.147198,11966
1659522050.186112,11845
1659522050.225026,11776
1659522050.26394,11706
1659522050.304902,11622
1659522050.345864,11659
1659522050.389898,11721
1659522050.433932,11786
1659522050.477967,11854
1659522050.51176,11860
1659522050.545554,11876
1659522050.590271,11937
1659522050.634988,11985
1659522050.679705,12041
1659522050.717936,12104
1659522050.756167,12129
1659522050.794398,12149
1659522050.836385,12059
1659522050.878371,11820
1659522050.916943,11643
1659522050.955516,11614
1659522050.994088,11588
1659522051.03232,11566
1659522051.070551,11576
1659522051.108782,11564
1659522051.150768,11516
1659522051.192754,11454
1659522051.231668,11387
1659522051.270582,11348
1659522051.309496,11301
1659522051.349946,11238
1659522051.390396,11198
1659522051.42931,11182
1659522051.468224,11153
1659522051.507138,11012
1659522051.546052,10507
1659522051.584966,10018
1659522051.62388,9755
1659522051.666378,9637
1659522051.708876,9554
1659522051.747449,9571
1659522051.786021,9669
1659522051.824594,9749
1659522051.86658,9828
1659522051.908566,9884
1659522051.950552,9966
1659522051.992538,10083
1659522052.031111,10190
1659522052.069684,10292
1659522052.108256,10388
1659522052.152973,10482
1659522052.19769,10565
1659522052.242407,10647
1659522052.275177,10582
1659522052.307946,10292
1659522052.351639,10053
1659522052.395332,9948
1659522052.439025,9896
1659522052.47828,9879
1659522052.517535,9952
1659522052.556791,10044
1659522052.598777,10109
1659522052.640763,10160
1659522052.679677,10224
1659522052.718591,10332
1659522052.757505,10434
1659522052.798979,10532
1659522052.840453,10634
1659522052.879708,10738
1659522052.918963,10825
1659522052.958219,10914
1659522052.999693,11003
1659522053.041167,11080
1659522053.080081,11167
1659522053.118995,11235
1659522053.157909,11186
1659522053.196823,10909
1659522053.235737,10662
1659522053.274651,10549
1659522053.3151,10466
1659522053.355551,10468
1659522053.394464,10567
1659522053.433378,10668
1659522053.472292,10729
1659522053.514278,10797
1659522053.556265,10843
1659522053.595588,10903
1659522053.634912,10986
1659522053.674235,11067
1659522053.713559,11141
1659522053.752882,11197
1659522053.79282,11257
1659522053.832758,11305
1659522053.872696,11374
1659522053.913658,11408
1659522053.95462,11455
1659522053.998655,11496
1659522054.042689,11534
1659522054.086723,11569
1659522054.120005,11608
1659522054.153286,11658
1659522054.197662,11641
1659522054.242038,11407
1659522054.286413,11030
1659522054.324986,10759
1659522054.363558,10557
1659522054.402131,10402
1659522054.443605,10330
1659522054.485079,10330
1659522054.523993,10339
1659522054.562907,10351
1659522054.601821,10388
1659522054.642271,10451
1659522054.682721,10530
1659522054.722317,10612
1659522054.761914,10675
1659522054.801511,10744
1659522054.840425,10789
1659522054.879339,10845
1659522054.918253,10937
1659522054.959215,11010
1659522055.000177,11099
1659522055.039773,11190
1659522055.07937,11264
1659522055.118967,11310
1659522055.161465,11388
1659522055.203963,11434
1659522055.242536,11487
1659522055.281108,11487
1659522055.319681,11306
1659522055.358595,10916
1659522055.397509,10616
1659522055.436423,10430
1659522055.477897,10301
1659522055.519371,10260
1659522055.560845,10296
1659522055.602319,10329
1659522055.640892,10311
1659522055.679464,10301
1659522055.718037,10315
1659522055.762753,10356
1659522055.807471,10408
1659522055.852187,10474
1659522055.89076,10531
1659522055.929332,10573
1659522055.967905,10639
1659522056.009891,10701
1659522056.051877,10759
1659522056.091133,10811
1659522056.130388,10865
1659522056.169643,10929
1659522056.208216,10995
1659522056.246789,11077
1659522056.285361,11147
1659522056.327347,11214
1659522056.369333,11276
1659522056.408589,11300
1659522056.447844,11146
1659522056.487099,10770
1659522056.527549,10490
1659522056.567999,10345
1659522056.606572,10216
1659522056.645144,10130
1659522056.683717,10136
1659522056.722972,10141
1659522056.762228,10099
1659522056.801483,10082
1659522056.842957,10095
1659522056.884431,10168
1659522056.928124,10263
1659522056.971817,10340
1659522057.01551,10407
1659522057.048791,10480
1659522057.082073,10534
1659522057.126448,10589
1659522057.170824,10655
1659522057.215199,10734
1659522057.248993,10822
1659522057.282787,10926
1659522057.327504,11009
1659522057.372221,11112
1659522057.416938,11199
1659522057.455852,11263
1659522057.494766,11227
1659522057.533679,10946
1659522057.57413,10680
1659522057.614579,10595
1659522057.654176,10569
1659522057.693773,10527
1659522057.73337,10512
1659522057.774332,10441
1659522057.815294,10326
1659522057.853866,10230
1659522057.892439,10216
1659522057.931011,10265
1659522057.969925,10340
1659522058.008839,10436
1659522058.047753,10533
1659522058.090251,10704
1659522058.13275,10884
1659522058.171322,11065
1659522058.209895,11219
1659522058.248467,11342
1659522058.289941,11452
1659522058.331415,11535
1659522058.371012,11609
1659522058.410609,11656
1659522058.450205,11700
1659522058.492192,11683
1659522058.534178,11502
1659522058.57275,11207
1659522058.611323,10980
1659522058.649895,10778
1659522058.691881,10541
1659522058.733868,10321
1659522058.77244,10240
1659522058.811013,10218
1659522058.849585,10210
1659522058.889728,10210
1659522058.929871,10283
1659522058.970014,10378
1659522059.010157,10521
1659522059.050299,10653
1659522059.094334,10799
1659522059.138368,10937
1659522059.182402,11047
1659522059.223876,11139
1659522059.26535,11230
1659522059.304605,11317
1659522059.343861,11383
1659522059.383116,11443
1659522059.421689,11501
1659522059.460261,11569
1659522059.498834,11645
1659522059.540308,11656
1659522059.581782,11471
1659522059.621379,11088
1659522059.660975,10788
1659522059.700572,10611
1659522059.741022,10506
1659522059.781472,10451
1659522059.819362,10466
1659522059.857252,10521
1659522059.895142,10579
1659522059.934056,10670
1659522059.97297,10790
1659522060.011883,10924
1659522060.053869,11045
1659522060.095856,11136
1659522060.134087,11212
1659522060.172318,11282
1659522060.210549,11379
1659522060.252023,11471
1659522060.293498,11559
1659522060.332412,11632
1659522060.371325,11695
1659522060.410239,11749
1659522060.451714,11806
1659522060.493188,11878
1659522060.532101,11943
1659522060.571015,11991
1659522060.609929,11935
1659522060.654646,11849
1659522060.699363,11808
1659522060.74408,11801
1659522060.785042,11813
1659522060.826004,11821
1659522060.864918,11856
1659522060.903832,11866
1659522060.942746,11865
1659522060.985244,11848
1659522061.027742,11842
1659522061.065974,11836
1659522061.104205,11836
1659522061.142436,11844
1659522061.18135,11841
1659522061.220264,11850
1659522061.259178,11875
1659522061.300652,11900
1659522061.342126,11961
1659522061.38104,12021
1659522061.419954,12068
1659522061.458868,12110
1659522061.500342,12162
1659522061.541816,12200
1659522061.581071,12180
1659522061.620327,12063
1659522061.659582,11887
1659522061.698496,11806
1659522061.73741,11782
1659522061.776324,11773
1659522061.81831,11797
1659522061.860296,11827
1659522061.899551,11844
1659522061.938807,11861
1659522061.978062,11906
1659522062.019024,11952
1659522062.059986,12007
1659522062.10402,12059
1659522062.148054,12100
1659522062.192089,12147
1659522062.225882,12187
1659522062.259676,12222
1659522062.30371,12265
1659522062.347744,12311
1659522062.391778,12353
1659522062.424548,12386
1659522062.457318,12381
1659522062.502035,12324
1659522062.546751,12092
1659522062.591469,11665
1659522062.630383,11325
1659522062.669297,11214
1659522062.70821,11170
1659522062.749684,11083
1659522062.791158,11049
1659522062.830072,11173
1659522062.868986,11303
1659522062.9079,11418
1659522062.949374,11500
1659522062.990849,11591
1659522063.029421,11654
1659522063.067994,11719
1659522063.106566,11780
1659522063.144798,11847
1659522063.183029,11919
1659522063.22126,11979
1659522063.263758,12055
1659522063.306256,12099
1659522063.344487,12145
1659522063.382719,12205
1659522063.42095,12223
1659522063.459522,12176
1659522063.498095,12080
1659522063.536668,12015
1659522063.578142,12018
1659522063.619616,12066
1659522063.66365,12121
1659522063.707684,12198
1659522063.751719,12259
1659522063.785,12290
1659522063.818282,12332
1659522063.86334,12375
1659522063.908398,12435
1659522063.953457,12498
1659522063.986226,12554
1659522064.018996,12605
1659522064.063371,12641
1659522064.107747,12678
1659522064.152122,12728
1659522064.19247,12786
1659522064.232818,12828
1659522064.273165,12881
1659522064.313513,12914
1659522064.353861,12822
1659522064.392092,12677
1659522064.430323,12612
1659522064.468554,12613
1659522064.50781,12576
1659522064.547065,12556
1659522064.58632,12538
1659522064.627282,12538
1659522064.668244,12547
1659522064.7075,12562
1659522064.746755,12579
1659522064.78601,12576
1659522064.827996,12561
1659522064.869982,12565
1659522064.908555,12609
1659522064.947128,12641
1659522064.9857,12651
1659522065.027174,12686
1659522065.068648,12698
1659522065.108245,12707
1659522065.147842,12685
1659522065.187438,12519
1659522065.228912,12079
1659522065.270386,11604
1659522065.308618,11256
1659522065.346849,11041
1659522065.38508,10898
1659522065.429797,10830
1659522065.474514,10850
1659522065.519231,10851
1659522065.552513,10863
1659522065.585794,10915
1659522065.629487,10997
1659522065.67318,11092
1659522065.716873,11183
1659522065.749643,11287
1659522065.782412,11369
1659522065.827129,11457
1659522065.871846,11530
1659522065.916563,11617
1659522065.955135,11724
1659522065.993708,11809
1659522066.032281,11896
1659522066.074267,11879
1659522066.116253,11825
1659522066.155167,11819
1659522066.194081,11878
1659522066.232995,11921
1659522066.273957,11979
1659522066.314919,12068
1659522066.353833,12129
1659522066.392747,12180
1659522066.431661,12228
1659522066.470233,12282
1659522066.508806,12341
1659522066.547378,12392
1659522066.589365,12434
1659522066.631351,12474
1659522066.669923,12508
1659522066.708496,12546
1659522066.747068,12561
1659522066.788543,12597
1659522066.830017,12615
1659522066.868931,12643
1659522066.907845,12669
1659522066.946758,12626
1659522066.988232,12464
1659522067.029706,12301
1659522067.068962,12242
1659522067.108217,12232
1659522067.147472,12219
1659522067.189459,12223
1659522067.231445,12247
1659522067.275479,12216
1659522067.319513,12166
1659522067.363547,12149
1659522067.402802,12160
1659522067.442058,12206
1659522067.481313,12237
1659522067.523299,12276
1659522067.565285,12304
1659522067.603858,12335
1659522067.642431,12357
1659522067.681003,12387
1659522067.722477,12416
1659522067.763951,12436
1659522067.802865,12459
1659522067.841779,12432
1659522067.880693,12168
1659522067.919266,11781
1659522067.957838,11576
1659522067.996411,11482
1659522068.038397,11384
1659522068.080383,11290
1659522068.11998,11221
1659522068.159576,11159
1659522068.199173,11122
1659522068.240135,11123
1659522068.281097,11164
1659522068.320011,11209
1659522068.358925,11253
1659522068.397839,11318
1659522068.437777,11402
1659522068.477715,11475
1659522068.517653,11541
1659522068.558615,11623
1659522068.599577,11688
1659522068.63815,11746
1659522068.676722,11812
1659522068.715295,11812
1659522068.756769,11682
1659522068.798243,11544
1659522068.841936,11498
1659522068.885629,11545
1659522068.929322,11614
1659522068.962603,11683
1659522068.995885,11720
1659522069.04026,11737
1659522069.084636,11725
1659522069.129012,11705
1659522069.161781,11741
1659522069.194551,11788
1659522069.238585,11856
1659522069.282619,11944
1659522069.326653,11987
1659522069.366591,12084
1659522069.406529,12133
1659522069.446467,12194
1659522069.487429,12286
1659522069.528392,12342
1659522069.569354,12362
1659522069.610316,12317
1659522069.644621,12268
1659522069.678927,12278
1659522069.723644,12315
1659522069.768361,12338
1659522069.813078,12371
1659522069.850968,12398
1659522069.888858,12421
1659522069.926747,12438
1659522069.968221,12488
1659522070.009696,12539
1659522070.048268,12580
1659522070.086841,12630
1659522070.125413,12646
1659522070.167399,12674
1659522070.209386,12713
1659522070.247958,12740
1659522070.286531,12778
1659522070.325103,12812
1659522070.364359,12820
1659522070.403614,12724
1659522070.442869,12566
1659522070.483831,12437
1659522070.524793,12361
1659522070.56439,12277
1659522070.603987,12213
1659522070.643583,12168
1659522070.685569,12082
1659522070.727556,11978
1659522070.766469,11875
1659522070.805383,11797
1659522070.844297,11744
1659522070.88287,11712
1659522070.921443,11684
1659522070.960015,11649
1659522071.002513,11610
1659522071.045011,11553
1659522071.085974,11528
1659522071.126935,11500
1659522071.165508,11460
1659522071.204081,11317
1659522071.242653,10858
1659522071.28737,10334
1659522071.332087,9936
1659522071.376804,9689
1659522071.410086,9491
1659522071.443367,9396
1659522071.487401,9370
1659522071.531436,9337
1659522071.57547,9255
1659522071.608752,9171
1659522071.642033,9152
1659522071.686409,9157
1659522071.730784,9196
1659522071.77516,9258
1659522071.814074,9349
1659522071.852988,9431
1659522071.891902,9509
1659522071.933888,9585
1659522071.975874,9670
1659522072.014446,9752
1659522072.053019,9838
1659522072.091592,9911
1659522072.129823,9730
1659522072.168054,9343
1659522072.206285,9085
1659522072.247247,8965
1659522072.28821,8929
1659522072.327123,8925
1659522072.366037,8963
1659522072.404951,9008
1659522072.446425,9047
1659522072.4879,9103
1659522072.526472,9182
1659522072.565045,9282
1659522072.603617,9389
1659522072.646116,9502
1659522072.688614,9584
1659522072.727186,9661
1659522072.765759,9749
1659522072.804331,9808
1659522072.845805,9882
1659522072.88728,9952
1659522072.926876,10067
1659522072.966473,10160
1659522073.006069,10118
1659522073.047032,9765
1659522073.087994,9477
1659522073.131686,9390
1659522073.175379,9379
1659522073.219072,9410
1659522073.258327,9483
1659522073.297583,9576
1659522073.336838,9630
1659522073.378824,9695
1659522073.42081,9772
1659522073.459041,9872
1659522073.497273,10003
1659522073.535504,10134
1659522073.574759,10277
1659522073.614015,10384
1659522073.65327,10490
1659522073.694744,10586
1659522073.736218,10681
1659522073.774791,10753
1659522073.813363,10825
1659522073.851936,10907
1659522073.894946,10944
1659522073.937956,10816
1659522073.97687,10499
1659522074.015784,10268
1659522074.054698,10173
1659522074.093612,10116
1659522074.132526,10100
1659522074.17144,10152
1659522074.212914,10235
1659522074.254388,10303
1659522074.293643,10383
1659522074.332899,10443
1659522074.372154,10500
1659522074.412604,10590
1659522074.453054,10676
1659522074.491968,10786
1659522074.530882,10907
1659522074.569796,11027
1659522074.61127,11115
1659522074.652744,11210
1659522074.694218,11283
1659522074.735692,11368
1659522074.777166,11429
1659522074.81864,11394
1659522074.861138,11197
1659522074.903636,10988
1659522074.94255,10904
1659522074.981464,10876
1659522075.020378,10894
1659522075.058951,10963
1659522075.097523,11050
1659522075.136096,11142
1659522075.178082,11229
1659522075.220068,11323
1659522075.2583,11418
1659522075.296531,11527
1659522075.334762,11646
1659522075.376748,11753
1659522075.418734,11846
1659522075.457307,11911
1659522075.495879,11999
1659522075.534452,12071
1659522075.575414,12154
1659522075.616376,12215
1659522075.654607,12279
1659522075.692838,12289
1659522075.73107,12197
1659522075.773056,12075
1659522075.815042,12000
1659522075.853956,11971
1659522075.89287,11955
1659522075.931784,11992
1659522075.976159,12023
1659522076.020535,12058
1659522076.06491,12094
1659522076.106897,12118
1659522076.148883,12151
1659522076.188138,12167
1659522076.227393,12206
1659522076.266649,12228
1659522076.308123,12235
1659522076.349597,12240
1659522076.388852,12256
1659522076.428107,12306
1659522076.467363,12328
1659522076.505935,12357
1659522076.544508,12267
1659522076.58308,12002
1659522076.624554,11758
1659522076.666028,11664
1659522076.704601,11634
1659522076.743174,11632
1659522076.781746,11672
1659522076.824244,11681
1659522076.866743,11701
1659522076.905657,11718
1659522076.944571,11761
1659522076.983485,11831
1659522077.022057,11882
1659522077.06063,11930
1659522077.099202,11967
1659522077.141188,12017
1659522077.183174,12057
1659522077.222771,12103
1659522077.262368,12134
1659522077.301964,12172
1659522077.342927,12155
1659522077.383888,11932
1659522077.423144,11605
1659522077.462399,11403
1659522077.501654,11316
1659522077.543128,11252
1659522077.584603,11231
1659522077.628295,11231
1659522077.671988,11221
1659522077.715681,11203
1659522077.748963,11203
1659522077.782244,11228
1659522077.826961,11277
1659522077.871678,11309
1659522077.916395,11351
1659522077.954626,11416
1659522077.992858,11479
1659522078.031089,11520
1659522078.072563,11581
1659522078.114037,11646
1659522078.153634,11708
1659522078.19323,11733
1659522078.232827,11591
1659522078.273789,11275
1659522078.314751,11030
1659522078.353324,10938
1659522078.391896,10908
1659522078.430469,10901
1659522078.470065,10934
1659522078.509662,10958
1659522078.549259,10959
1659522078.590733,10968
1659522078.632207,10997
1659522078.670779,11045
1659522078.709352,11104
1659522078.747925,11166
1659522078.786497,11227
1659522078.82507,11280
1659522078.863642,11351
1659522078.904093,11393
1659522078.944543,11454
1659522078.986017,11525
1659522079.027491,11581
1659522079.066746,11528
1659522079.106001,11259
1659522079.145257,10972
1659522079.189632,10848
1659522079.234008,10844
1659522079.278383,10861
1659522079.311153,10908
1659522079.343923,10974
1659522079.388981,11002
1659522079.434039,11038
1659522079.479097,11083
1659522079.512379,11155
1659522079.54566,11220
1659522079.589695,11313
1659522079.633729,11388
1659522079.677763,11468
1659522079.71736,11543
1659522079.756957,11600
1659522079.796553,11661
1659522079.837515,11720
1659522079.878477,11786
1659522079.915855,11818
1659522079.953233,11658
1659522079.990611,11361
1659522080.027989,11167
1659522080.069463,11112
1659522080.110937,11090
1659522080.150192,11115
1659522080.189447,11121
1659522080.228703,11109
1659522080.273078,11099
1659522080.317454,11103
1659522080.36183,11140
1659522080.395111,11180
1659522080.428393,11241
1659522080.472768,11294
1659522080.517144,11353
1659522080.561519,11410
1659522080.602993,11458
1659522080.644468,11528
1659522080.684064,11577
1659522080.723661,11630
1659522080.763258,11651
1659522080.80183,11439
1659522080.840403,11049
1659522080.878975,10799
1659522080.919937,10703
1659522080.960899,10656
1659522080.999813,10658
1659522081.038727,10685
1659522081.077641,10719
1659522081.115872,10725
1659522081.154104,10745
1659522081.192335,10810
1659522081.234321,10893
1659522081.276307,10983
1659522081.314538,11071
1659522081.35277,11152
1659522081.391001,11216
1659522081.432475,11305
1659522081.473949,11369
1659522081.512863,11428
1659522081.551777,11511
1659522081.590691,11558
1659522081.632677,11473
1659522081.674663,11122
1659522081.713918,10759
1659522081.753174,10586
1659522081.792429,10539
1659522081.833903,10486
1659522081.875377,10476
1659522081.91907,10485
1659522081.962763,10480
1659522082.006456,10497
1659522082.045028,10539
1659522082.083601,10619
1659522082.122174,10699
1659522082.16416,10797
1659522082.206146,10862
1659522082.244718,10940
1659522082.283291,11020
1659522082.321863,11075
1659522082.362826,11152
1659522082.403788,11206
1659522082.443043,11270
1659522082.482298,11269
1659522082.521554,11045
1659522082.560126,10702
1659522082.598699,10521
1659522082.637271,10469
1659522082.679769,10441
1659522082.722267,10464
1659522082.761181,10505
1659522082.800095,10536
1659522082.839009,10579
1659522082.880483,10612
1659522082.921957,10675
1659522082.961554,10753
1659522083.001151,10824
1659522083.040747,10858
1659522083.079661,10905
1659522083.118575,10975
1659522083.157489,11058
1659522083.197939,11170
1659522083.238389,11269
1659522083.277645,11370
1659522083.3169,11483
1659522083.356155,11543
1659522083.397117,11483
1659522083.438079,11327
1659522083.482114,11249
1659522083.526148,11265
1659522083.570182,11312
1659522083.603976,11370
1659522083.637769,11434
1659522083.682486,11487
1659522083.727203,11538
1659522083.77192,11585
1659522083.804178,11655
1659522083.836435,11730
1659522083.881152,11792
1659522083.925869,11877
1659522083.970586,11944
1659522084.010183,12020
1659522084.049779,12085
1659522084.089376,12149
1659522084.130338,12208
1659522084.1713,12258
1659522084.210214,12321
1659522084.249128,12368
1659522084.288042,12358
1659522084.326614,12241
1659522084.365187,12159
1659522084.40376,12133
1659522084.445234,12145
1659522084.486708,12161
1659522084.525622,12189
1659522084.564536,12200
1659522084.60345,12193
1659522084.641681,12188
1659522084.679912,12207
1659522084.718143,12213
1659522084.759105,12243
1659522084.800067,12267
1659522084.838981,12307
1659522084.877895,12342
1659522084.916809,12382
1659522084.959307,12424
1659522085.001806,12463
1659522085.04584,12499
1659522085.089874,12543
1659522085.133908,12567
1659522085.173163,12481
1659522085.212419,12262
1659522085.251674,12064
1659522085.290247,11985
1659522085.328819,11953
1659522085.367392,11924
1659522085.407842,11927
1659522085.448292,11933
1659522085.487206,11921
1659522085.52612,11912
1659522085.565034,11940
1659522085.604289,11969
1659522085.643544,11999
1659522085.6828,12027
1659522085.723762,12063
1659522085.764724,12107
1659522085.803979,12133
1659522085.843234,12175
1659522085.88249,12209
1659522085.924476,12249
1659522085.966462,12296
1659522086.005717,12314
1659522086.044972,12228
1659522086.084228,11998
1659522086.125702,11819
1659522086.167176,11737
1659522086.206431,11690
1659522086.245687,11658
1659522086.284942,11653
1659522086.326928,11667
1659522086.368914,11714
1659522086.412607,11763
1659522086.4563,11833
1659522086.499992,11919
1659522086.533786,12004
1659522086.56758,12072
1659522086.611955,12140
1659522086.656331,12196
1659522086.700706,12258
1659522086.739279,12327
1659522086.777852,12379
1659522086.816424,12444
1659522086.857898,12501
1659522086.899372,12548
1659522086.938628,12511
1659522086.977883,12445
1659522087.017138,12370
1659522087.056052,12374
1659522087.094966,12408
1659522087.13388,12431
1659522087.175354,12466
1659522087.216828,12496
1659522087.256084,12507
1659522087.295339,12531
1659522087.334594,12561
1659522087.376068,12595
1659522087.417542,12633
1659522087.456456,12664
1659522087.49537,12704
1659522087.534284,12739
1659522087.573198,12774
1659522087.612112,12799
1659522087.651026,12824
1659522087.691476,12859
1659522087.731926,12893
1659522087.770499,12898
1659522087.809071,12839
1659522087.847644,12733
1659522087.890142,12672
1659522087.93264,12657
1659522087.976333,12656
1659522088.020026,12678
1659522088.063719,12684
1659522088.096488,12680
1659522088.129258,12682
1659522088.174316,12693
1659522088.219374,12717
1659522088.264433,12758
1659522088.297714,12776
1659522088.330996,12801
1659522088.375372,12820
1659522088.419747,12853
1659522088.464123,12868
1659522088.503719,12893
1659522088.543316,12922
1659522088.582913,12942
1659522088.623363,12961
1659522088.663813,12914
1659522088.702385,12747
1659522088.740958,12592
1659522088.779531,12531
1659522088.818444,12503
1659522088.857358,12514
1659522088.896272,12535
1659522088.938258,12551
1659522088.980245,12579
1659522089.018817,12598
1659522089.05739,12621
1659522089.095962,12658
1659522089.137949,12686
1659522089.179935,12710
1659522089.218848,12727
1659522089.257762,12755
1659522089.296676,12783
1659522089.338662,12805
1659522089.380649,12843
1659522089.419904,12876
1659522089.459159,12902
1659522089.498415,12875
1659522089.540401,12782
1659522089.582387,12659
1659522089.620618,12613
1659522089.658849,12607
1659522089.69708,12615
1659522089.741797,12638
1659522089.786514,12646
1659522089.831231,12658
1659522089.864513,12664
1659522089.897794,12707
1659522089.941829,12731
1659522089.985863,12767
1659522090.029897,12798
1659522090.071371,12822
1659522090.112845,12851
1659522090.151418,12879
1659522090.18999,12916
1659522090.228563,12949
1659522090.267477,12974
1659522090.306391,12996
1659522090.345305,12973
1659522090.38456,12886
1659522090.423815,12767
1659522090.463071,12720
1659522090.501643,12699
1659522090.540216,12696
1659522090.578789,12711
1659522090.622823,12729
1659522090.666857,12720
1659522090.710891,12726
1659522090.744173,12751
1659522090.777454,12772
1659522090.821489,12794
1659522090.865523,12816
1659522090.909557,12839
1659522090.951543,12866
1659522090.993529,12897
1659522091.032102,12916
1659522091.070674,12932
1659522091.109247,12965
1659522091.14782,12993
1659522091.186392,13011
1659522091.224965,12944
1659522091.265415,12791
1659522091.305865,12671
1659522091.344779,12614
1659522091.383693,12583
1659522091.422607,12569
1659522091.462203,12583
1659522091.5018,12580
1659522091.541397,12578
1659522091.582359,12580
1659522091.623321,12601
1659522091.662235,12635
1659522091.701149,12647
1659522091.740062,12674
1659522091.782561,12694
1659522091.825059,12721
1659522091.863973,12738
1659522091.902887,12770
1659522091.941801,12790
1659522091.982763,12811
1659522092.023725,12849
1659522092.06298,12840
1659522092.102235,12741
1659522092.141491,12566
1659522092.181941,12463
1659522092.222391,12423
1659522092.266425,12385
1659522092.310459,12390
1659522092.354493,12373
1659522092.388799,12369
1659522092.423105,12349
1659522092.46748,12342
1659522092.511856,12365
1659522092.556231,12374
1659522092.595145,12401
1659522092.634059,12422
1659522092.672973,12454
1659522092.714959,12477
1659522092.756945,12507
1659522092.796201,12533
1659522092.835456,12568
1659522092.874711,12605
1659522092.916185,12628
1659522092.957659,12603
1659522092.996915,12432
1659522093.03617,12241
1659522093.075425,12124
1659522093.113657,12050
1659522093.151888,11975
1659522093.190119,11956
1659522093.231593,11956
1659522093.273067,11932
1659522093.312323,11920
1659522093.351578,11921
1659522093.390833,11942
1659522093.429406,11981
1659522093.467978,12011
1659522093.506551,12059
1659522093.547001,12098
1659522093.587451,12136
1659522093.626706,12175
1659522093.665962,12224
1659522093.705217,12267
1659522093.747203,12313
1659522093.789189,12354
1659522093.830151,12388
1659522093.871113,12358
1659522093.910027,12186
1659522093.948941,12027
1659522093.987855,11934
1659522094.032572,11867
1659522094.077289,11798
1659522094.122006,11793
1659522094.154775,11792
1659522094.187545,11779
1659522094.23192,11782
1659522094.276296,11799
1659522094.320672,11823
1659522094.359244,11857
1659522094.397817,11914
1659522094.436389,11967
1659522094.47684,12014
1659522094.517289,12073
1659522094.556203,12119
1659522094.595117,12165
1659522094.634031,12200
1659522094.676018,12243
1659522094.718004,12291
1659522094.756576,12317
1659522094.795149,12329
1659522094.833721,12240
1659522094.872977,12019
1659522094.912232,11851
1659522094.951487,11754
1659522094.993473,11694
1659522095.03546,11665
1659522095.074373,11656
1659522095.113287,11628
1659522095.152201,11635
1659522095.194187,11632
1659522095.236173,11651
1659522095.275087,11686
1659522095.314001,11718
1659522095.352915,11749
1659522095.393877,11777
1659522095.434839,11798
1659522095.473412,11810
1659522095.511985,11860
1659522095.550557,11899
1659522095.590905,11959
1659522095.631253,12011
1659522095.6716,12055
1659522095.711948,12029
1659522095.752295,11853
1659522095.794025,11613
1659522095.835756,11429
1659522095.877486,11277
1659522095.919216,11133
1659522095.961202,11066
1659522096.003188,11060
1659522096.042102,11050
1659522096.081016,11067
1659522096.11993,11085
1659522096.161916,11137
1659522096.203902,11201
1659522096.243157,11273
1659522096.282413,11348
1659522096.321668,11404
1659522096.360582,11486
1659522096.399496,11548
1659522096.43841,11631
1659522096.47886,11692
1659522096.51931,11749
1659522096.558224,11794
1659522096.597137,11779
1659522096.636051,11634
1659522096.678038,11462
1659522096.720024,11355
1659522096.763716,11278
1659522096.80741,11239
1659522096.851102,11199
1659522096.88336,11162
1659522096.915617,11113
1659522096.960334,11063
1659522097.005051,11025
1659522097.049768,11029
1659522097.08305,11057
1659522097.116332,11092
1659522097.160707,11135
1659522097.205083,11172
1659522097.249458,11218
1659522097.288713,11265
1659522097.327969,11321
1659522097.367224,11368
1659522097.408186,11425
1659522097.449148,11443
1659522097.487721,11290
1659522097.526293,11006
1659522097.564866,10774
1659522097.607876,10669
1659522097.650886,10604
1659522097.689117,10599
1659522097.727349,10606
1659522097.76558,10608
1659522097.804494,10599
1659522097.843408,10611
1659522097.882322,10652
1659522097.923796,10712
1659522097.96527,10788
1659522098.003501,10855
1659522098.041733,10907
1659522098.079964,10977
1659522098.121438,11028
1659522098.162912,11100
1659522098.202508,11160
1659522098.242105,11223
1659522098.281702,11224
1659522098.323176,11049
1659522098.36465,10785
1659522098.403564,10621
1659522098.442478,10554
1659522098.481392,10519
1659522098.52389,10538
1659522098.566388,10572
1659522098.604961,10597
1659522098.643533,10622
1659522098.682106,10665
1659522098.72614,10717
1659522098.770174,10789
1659522098.814209,10865
1659522098.856194,10935
1659522098.898181,11008
1659522098.936753,11074
1659522098.975326,11141
1659522099.013898,11208
1659522099.055372,11277
1659522099.096847,11344
1659522099.136443,11322
1659522099.17604,11179
1659522099.215636,10990
1659522099.25455,10900
1659522099.293464,10854
1659522099.332378,10840
1659522099.37334,10868
1659522099.414303,10896
1659522099.453899,10920
1659522099.493496,10930
1659522099.533092,10964
1659522099.574567,11006
1659522099.61604,11068
1659522099.654613,11109
1659522099.693186,11170
1659522099.731758,11228
1659522099.770331,11272
1659522099.808903,11326
1659522099.847476,11382
1659522099.889462,11439
1659522099.931448,11489
1659522099.96968,11462
1659522100.007911,11266
1659522100.046142,11089
1659522100.087104,11015
1659522100.128066,10984
1659522100.166639,10978
1659522100.205211,11005
1659522100.243784,11028
1659522100.28577,11032
1659522100.327756,11043
1659522100.372132,11084
1659522100.416507,11128
1659522100.460883,11194
1659522100.499797,11239
1659522100.538711,11281
1659522100.577625,11336
1659522100.618587,11379
1659522100.659549,11436
1659522100.698463,11484
1659522100.737377,11548
1659522100.776291,11588
1659522100.818789,11537
1659522100.861287,11302
1659522100.898153,11067
1659522100.935019,10923
1659522100.971884,10852
1659522101.00875,10829
1659522101.052784,10832
1659522101.096819,10843
1659522101.140853,10852
1659522101.180108,10861
1659522101.219363,10888
1659522101.258619,10946
1659522101.299581,10996
1659522101.340543,11060
1659522101.379798,11114
1659522101.419053,11163
1659522101.458309,11218
1659522101.497564,11263
1659522101.536819,11327
1659522101.576075,11376
1659522101.618061,11444
1659522101.660047,11464
1659522101.698961,11343
1659522101.737875,11096
1659522101.776789,10923
1659522101.818775,10861
1659522101.860761,10828
1659522101.899333,10831
1659522101.937906,10832
1659522101.976479,10821
1659522102.015051,10818
1659522102.053624,10829
1659522102.092196,10863
1659522102.135207,10913
1659522102.178217,10972
1659522102.216107,11018
1659522102.253997,11063
1659522102.291886,11109
1659522102.332336,11160
1659522102.372787,11213
1659522102.412383,11258
1659522102.45198,11308
1659522102.491576,11278
1659522102.533051,11056
1659522102.574525,10735
1659522102.6189,10547
1659522102.663276,10471
1659522102.707651,10423
1659522102.740933,10435
1659522102.774215,10453
1659522102.818931,10453
1659522102.863648,10448
1659522102.908365,10478
1659522102.946597,10505
1659522102.984828,10540
1659522103.023059,10572
1659522103.065557,10558
1659522103.108055,10457
1659522103.146628,10231
