LocalTimestamp,PG
1659431971.290771,12247
1659431971.331264,12442
1659431971.371757,12377
1659431971.411053,12268
1659431971.45035,12174
1659431971.489647,12146
1659431971.531678,12147
1659431971.573708,12177
1659431971.612321,12248
1659431971.650935,12400
1659431971.689548,12517
1659431971.731066,12656
1659431971.772584,12763
1659431971.817348,12867
1659431971.862113,12985
1659431971.906877,13085
1659431971.944807,13190
1659431971.982737,13305
1659431972.020667,13396
1659431972.06321,13504
1659431972.105753,13629
1659431972.144024,13711
1659431972.182296,13786
1659431972.220568,13813
1659431972.26106,13817
1659431972.301553,13818
1659431972.340167,13808
1659431972.37878,13824
1659431972.417393,13867
1659431972.45669,13899
1659431972.495987,13909
1659431972.535284,13920
1659431972.576802,13924
1659431972.61832,13941
1659431972.657617,13951
1659431972.696913,13953
1659431972.73621,13948
1659431972.778241,13925
1659431972.820271,13904
1659431972.859226,13892
1659431972.898181,13904
1659431972.937136,13900
1659431972.976092,13918
1659431973.015047,13923
1659431973.054002,13949
1659431973.09552,13994
1659431973.137038,14045
1659431973.175993,14078
1659431973.214948,14112
1659431973.253903,14142
1659431973.294396,14165
1659431973.334888,14199
1659431973.379653,14230
1659431973.424417,14281
1659431973.469181,14320
1659431973.503011,14314
1659431973.53684,14305
1659431973.580921,14278
1659431973.625001,14258
1659431973.669082,14243
1659431973.702399,14245
1659431973.735716,14250
1659431973.780138,14253
1659431973.824561,14269
1659431973.868984,14280
1659431973.90828,14291
1659431973.947577,14289
1659431973.986874,14276
1659431974.028392,14282
1659431974.06991,14270
1659431974.108865,14272
1659431974.14782,14257
1659431974.186775,14256
1659431974.225047,14255
1659431974.263318,14256
1659431974.30159,14237
1659431974.343621,14227
1659431974.385651,14232
1659431974.424606,14227
1659431974.463561,14218
1659431974.502516,14220
1659431974.543009,14219
1659431974.583502,14213
1659431974.621774,14223
1659431974.660045,14224
1659431974.698317,14222
1659431974.74086,14223
1659431974.783403,14217
1659431974.822016,14220
1659431974.86063,14220
1659431974.899243,14216
1659431974.940249,14218
1659431974.981254,14230
1659431975.020893,14241
1659431975.060531,14247
1659431975.10017,14260
1659431975.14425,14279
1659431975.188331,14332
1659431975.232412,14377
1659431975.270342,14424
1659431975.308272,14435
1659431975.346202,14450
1659431975.389257,14470
1659431975.432313,14484
1659431975.470243,14482
1659431975.508173,14504
1659431975.546103,14519
1659431975.586596,14526
1659431975.627089,14532
1659431975.666385,14553
1659431975.705682,14566
1659431975.744979,14561
1659431975.783592,14566
1659431975.822206,14561
1659431975.860819,14569
1659431975.902337,14568
1659431975.943855,14566
1659431975.983494,14563
1659431976.023132,14584
1659431976.062771,14575
1659431976.101384,14568
1659431976.139997,14571
1659431976.178611,14572
1659431976.220641,14567
1659431976.262672,14575
1659431976.307436,14558
1659431976.3522,14566
1659431976.396964,14556
1659431976.430281,14564
1659431976.463598,14547
1659431976.507337,14554
1659431976.551076,14537
1659431976.594815,14545
1659431976.634112,14532
1659431976.673409,14530
1659431976.712706,14532
1659431976.753711,14531
1659431976.794716,14543
1659431976.834013,14548
1659431976.87331,14552
1659431976.912607,14553
1659431976.954125,14568
1659431976.995643,14572
1659431977.034598,14564
1659431977.073553,14568
1659431977.112508,14562
1659431977.151121,14566
1659431977.189735,14568
1659431977.228348,14570
1659431977.270891,14566
1659431977.313434,14568
1659431977.352047,14567
1659431977.390661,14561
1659431977.429274,14570
1659431977.47028,14566
1659431977.511285,14585
1659431977.549898,14576
1659431977.588512,14582
1659431977.627125,14582
1659431977.669668,14582
1659431977.712211,14580
1659431977.750483,14585
1659431977.788755,14596
1659431977.827026,14589
1659431977.868032,14606
1659431977.909037,14591
1659431977.94765,14602
1659431977.986264,14615
1659431978.024877,14608
1659431978.0693,14602
1659431978.113722,14616
1659431978.158145,14614
1659431978.191462,14614
1659431978.224778,14628
1659431978.269543,14619
1659431978.314307,14624
1659431978.359071,14624
1659431978.400076,14630
1659431978.441082,14633
1659431978.480037,14636
1659431978.518992,14640
1659431978.557947,14646
1659431978.59656,14634
1659431978.635174,14632
1659431978.673787,14647
1659431978.71633,14645
1659431978.758873,14657
1659431978.797145,14658
1659431978.835417,14666
1659431978.873688,14658
1659431978.912985,14683
1659431978.952282,14677
1659431978.991579,14686
1659431979.032584,14698
1659431979.07359,14686
1659431979.112203,14687
1659431979.150816,14692
1659431979.18943,14697
1659431979.231973,14699
1659431979.274516,14718
1659431979.313812,14704
1659431979.353109,14711
1659431979.392406,14712
1659431979.433924,14705
1659431979.475442,14713
1659431979.51696,14706
1659431979.558478,14702
1659431979.599996,14702
1659431979.641514,14709
1659431979.682519,14712
1659431979.723525,14714
1659431979.762821,14721
1659431979.802118,14726
1659431979.841415,14735
1659431979.88037,14726
1659431979.919325,14730
1659431979.95828,14737
1659431979.999798,14740
1659431980.041316,14738
1659431980.079246,14752
1659431980.117176,14758
1659431980.155106,14779
1659431980.198162,14805
1659431980.241217,14812
1659431980.280172,14824
1659431980.319128,14840
1659431980.358083,14849
1659431980.396696,14879
1659431980.435309,14908
1659431980.473923,14914
1659431980.519029,14936
1659431980.564135,14928
1659431980.60924,14908
1659431980.647854,14914
1659431980.686467,14913
1659431980.72508,14909
1659431980.764036,14905
1659431980.802991,14912
1659431980.841946,14904
1659431980.883464,14906
1659431980.924982,14890
1659431980.963595,14879
1659431981.002208,14886
1659431981.040822,14893
1659431981.079093,14899
1659431981.117365,14893
1659431981.155637,14891
1659431981.197155,14888
1659431981.238673,14878
1659431981.279166,14876
1659431981.319658,14872
1659431981.358613,14871
1659431981.397568,14872
1659431981.436524,14876
1659431981.478554,14878
1659431981.520585,14881
1659431981.55954,14889
1659431981.598495,14897
1659431981.63745,14906
1659431981.681531,14901
1659431981.725611,14897
1659431981.769692,14899
1659431981.809331,14900
1659431981.848969,14901
1659431981.888608,14897
1659431981.926879,14896
1659431981.965151,14888
1659431982.003423,14888
1659431982.042036,14887
1659431982.08065,14894
1659431982.119263,14895
1659431982.161806,14897
1659431982.204349,14893
1659431982.242963,14894
1659431982.281576,14901
1659431982.320189,14906
1659431982.360682,14904
1659431982.401175,14923
1659431982.440472,14918
1659431982.479769,14913
1659431982.519065,14905
1659431982.563488,14908
1659431982.60791,14912
1659431982.652333,14914
1659431982.694876,14922
1659431982.737419,14920
1659431982.776374,14924
1659431982.815329,14919
1659431982.854284,14933
1659431982.895802,14929
1659431982.93732,14924
1659431982.975592,14931
1659431983.013863,14934
1659431983.052135,14934
1659431983.091774,14936
1659431983.131412,14943
1659431983.171051,14938
1659431983.212056,14956
1659431983.253061,14947
1659431983.291675,14960
1659431983.330288,14961
1659431983.368901,14955
1659431983.409907,14953
1659431983.450912,14970
1659431983.490551,14972
1659431983.530189,14976
1659431983.569828,14984
1659431983.608441,14977
1659431983.647055,14986
1659431983.685668,14997
1659431983.727186,15003
1659431983.768704,15010
1659431983.808001,15020
1659431983.847297,15029
1659431983.886594,15054
1659431983.928112,15057
1659431983.96963,15068
1659431984.013711,15076
1659431984.057792,15107
1659431984.101872,15124
1659431984.140827,15152
1659431984.179783,15192
1659431984.218738,15195
1659431984.257351,15197
1659431984.295964,15192
1659431984.334578,15196
1659431984.372849,15206
1659431984.411121,15212
1659431984.449393,15216
1659431984.490911,15201
1659431984.532429,15196
1659431984.5707,15198
1659431984.608972,15201
1659431984.647244,15193
1659431984.688762,15201
1659431984.73028,15205
1659431984.769918,15193
1659431984.809557,15189
1659431984.849195,15204
1659431984.890201,15205
1659431984.931206,15208
1659431984.969819,15207
1659431985.008433,15196
1659431985.047046,15203
1659431985.090102,15202
1659431985.133157,15216
1659431985.171771,15197
1659431985.210384,15191
1659431985.248997,15180
1659431985.293078,15184
1659431985.337159,15183
1659431985.38124,15184
1659431985.414044,15198
1659431985.446848,15193
1659431985.490929,15201
1659431985.53501,15203
1659431985.579091,15197
1659431985.621121,15198
1659431985.663152,15186
1659431985.700825,15190
1659431985.738499,15192
1659431985.776173,15191
1659431985.813846,15192
1659431985.85246,15190
1659431985.891073,15180
1659431985.929687,15174
1659431985.971717,15181
1659431986.013748,15184
1659431986.053044,15182
1659431986.092341,15194
1659431986.131638,15194
1659431986.173156,15210
1659431986.214674,15201
1659431986.259096,15203
1659431986.303519,15209
1659431986.347941,15198
1659431986.381258,15194
1659431986.414575,15186
1659431986.455837,15191
1659431986.497098,15188
1659431986.53836,15201
1659431986.579622,15193
1659431986.618577,15190
1659431986.657532,15203
1659431986.696487,15198
1659431986.734759,15186
1659431986.77303,15184
1659431986.811302,15185
1659431986.853333,15185
1659431986.895363,15187
1659431986.936368,15194
1659431986.977374,15198
1659431987.016329,15178
1659431987.055284,15178
1659431987.094239,15176
1659431987.13832,15176
1659431987.1824,15175
1659431987.226481,15183
1659431987.260311,15186
1659431987.29414,15184
1659431987.338562,15188
1659431987.382985,15189
1659431987.427408,15192
1659431987.465679,15198
1659431987.503951,15201
1659431987.542222,15194
1659431987.583228,15189
1659431987.624233,15177
1659431987.663188,15178
1659431987.702143,15189
1659431987.741099,15189
1659431987.77937,15199
1659431987.817642,15193
1659431987.855914,15190
1659431987.897944,15193
1659431987.939975,15194
1659431987.978588,15190
1659431988.017201,15186
1659431988.055815,15201
1659431988.097845,15197
1659431988.139876,15203
1659431988.178489,15200
1659431988.217103,15197
1659431988.255716,15198
1659431988.298259,15192
1659431988.340802,15195
1659431988.380099,15210
1659431988.419396,15201
1659431988.458693,15199
1659431988.499698,15203
1659431988.540703,15197
1659431988.579317,15200
1659431988.61793,15211
1659431988.656543,15205
1659431988.698061,15198
1659431988.739579,15206
1659431988.781097,15203
1659431988.822615,15208
1659431988.861228,15200
1659431988.899842,15215
1659431988.938455,15210
1659431988.980998,15214
1659431989.023541,15219
1659431989.062496,15227
1659431989.101452,15232
1659431989.140407,15238
1659431989.181925,15242
1659431989.223443,15240
1659431989.262739,15240
1659431989.302036,15250
1659431989.341333,15247
1659431989.383876,15249
1659431989.426419,15264
1659431989.464691,15259
1659431989.502963,15274
1659431989.541234,15271
1659431989.583265,15266
1659431989.625295,15280
1659431989.669718,15273
1659431989.71414,15277
1659431989.758563,15284
1659431989.791879,15280
1659431989.825196,15278
1659431989.869277,15289
1659431989.913358,15284
1659431989.957439,15284
1659431989.996394,15290
1659431990.035349,15302
1659431990.074304,15302
1659431990.114797,15295
1659431990.155289,15308
1659431990.193903,15318
1659431990.232516,15332
1659431990.27113,15327
1659431990.310426,15315
1659431990.349723,15311
1659431990.38902,15313
1659431990.430538,15320
1659431990.472056,15328
1659431990.511011,15320
1659431990.549966,15316
1659431990.588921,15309
1659431990.630952,15301
1659431990.672982,15308
1659431990.710912,15304
1659431990.748842,15304
1659431990.786772,15305
1659431990.825727,15315
1659431990.864682,15326
1659431990.903637,15338
1659431990.945668,15326
1659431990.987698,15322
1659431991.027269,15324
1659431991.066839,15325
1659431991.106409,15310
1659431991.145979,15300
1659431991.185549,15289
1659431991.22758,15276
1659431991.26961,15287
1659431991.307882,15287
1659431991.346154,15291
1659431991.384425,15299
1659431991.425943,15306
1659431991.467461,15317
1659431991.506416,15313
1659431991.545371,15319
1659431991.584327,15328
1659431991.626869,15342
1659431991.669413,15334
1659431991.713493,15335
1659431991.757574,15328
1659431991.801655,15328
1659431991.835484,15321
1659431991.869314,15323
1659431991.913736,15322
1659431991.958159,15315
1659431992.002581,15321
1659431992.041195,15313
1659431992.079808,15322
1659431992.118421,15313
1659431992.160964,15325
1659431992.203507,15316
1659431992.242463,15312
1659431992.281418,15323
1659431992.320373,15326
1659431992.358644,15323
1659431992.396916,15319
1659431992.435188,15326
1659431992.477218,15323
1659431992.519249,15340
1659431992.558204,15321
1659431992.597159,15323
1659431992.636114,15336
1659431992.678145,15337
1659431992.720175,15338
1659431992.758789,15333
1659431992.797402,15339
1659431992.836015,15327
1659431992.874629,15326
1659431992.913242,15315
1659431992.951855,15315
1659431992.992861,15318
1659431993.033866,15313
1659431993.073163,15312
1659431993.11246,15318
1659431993.151757,15306
1659431993.192249,15309
1659431993.232742,15312
1659431993.276823,15304
1659431993.320904,15316
1659431993.364985,15314
1659431993.397789,15311
1659431993.430593,15303
1659431993.475357,15304
1659431993.520122,15307
1659431993.564886,15308
1659431993.598715,15307
1659431993.632545,15309
1659431993.676625,15327
1659431993.720706,15327
1659431993.764787,15324
1659431993.8034,15331
1659431993.842014,15343
1659431993.880627,15352
1659431993.919924,15355
1659431993.959221,15349
1659431993.998517,15340
1659431994.036447,15355
1659431994.074377,15346
1659431994.112307,15339
1659431994.15485,15350
1659431994.197393,15340
1659431994.236007,15331
1659431994.27462,15337
1659431994.313234,15334
1659431994.353726,15331
1659431994.394219,15338
1659431994.433174,15336
1659431994.472129,15334
1659431994.511085,15321
1659431994.553115,15319
1659431994.595145,15328
1659431994.638885,15333
1659431994.682624,15326
1659431994.726363,15320
1659431994.765659,15329
1659431994.804956,15336
1659431994.844253,15339
1659431994.886284,15331
1659431994.928314,15333
1659431994.967269,15337
1659431995.006224,15342
1659431995.045179,15336
1659431995.08721,15342
1659431995.12924,15336
1659431995.168879,15340
1659431995.208517,15329
1659431995.248156,15328
1659431995.286086,15329
1659431995.324016,15320
1659431995.361946,15310
1659431995.403464,15305
1659431995.444982,15316
1659431995.483937,15323
1659431995.522892,15333
1659431995.561847,15335
1659431995.601315,15331
1659431995.640782,15334
1659431995.68025,15334
1659431995.719718,15329
1659431995.759185,15320
1659431995.798653,15330
1659431995.838121,15327
1659431995.877588,15334
1659431995.919363,15321
1659431995.961137,15324
1659431996.002911,15327
1659431996.044685,15331
1659431996.086716,15337
1659431996.128746,15352
1659431996.170777,15359
1659431996.212807,15358
1659431996.251079,15350
1659431996.289351,15347
1659431996.327622,15356
1659431996.366235,15350
1659431996.404849,15349
1659431996.443462,15342
1659431996.482076,15341
1659431996.520689,15343
1659431996.559303,15344
1659431996.603383,15341
1659431996.647464,15338
1659431996.691545,15347
1659431996.730158,15343
1659431996.768772,15344
1659431996.807385,15340
1659431996.845998,15333
1659431996.884612,15324
1659431996.923225,15327
1659431996.965255,15324
1659431997.007286,15327
1659431997.046241,15328
1659431997.085196,15336
1659431997.124151,15341
1659431997.165157,15333
1659431997.206162,15333
1659431997.244776,15335
1659431997.283389,15340
1659431997.322002,15331
1659431997.361299,15322
1659431997.400596,15338
1659431997.439893,15334
1659431997.481923,15342
1659431997.523954,15341
1659431997.564959,15352
1659431997.605964,15346
1659431997.64492,15341
1659431997.683875,15331
1659431997.72283,15327
1659431997.767252,15318
1659431997.811675,15329
1659431997.856097,15328
1659431997.889927,15319
1659431997.923756,15317
1659431997.968179,15315
1659431998.012601,15323
1659431998.057024,15317
1659431998.090853,15315
1659431998.124682,15311
1659431998.168763,15314
1659431998.212844,15318
1659431998.256925,15316
1659431998.296221,15314
1659431998.335518,15318
1659431998.374815,15319
1659431998.416846,15315
1659431998.458876,15318
1659431998.497831,15317
1659431998.536786,15325
1659431998.575741,15317
1659431998.616747,15319
1659431998.657752,15319
1659431998.696365,15325
1659431998.734979,15321
1659431998.773592,15328
1659431998.812206,15331
1659431998.850819,15334
1659431998.889432,15334
1659431998.931463,15329
1659431998.973493,15333
1659431999.012449,15333
1659431999.051404,15339
1659431999.090359,15332
1659431999.131876,15334
1659431999.173394,15332
1659431999.211666,15340
1659431999.249938,15332
1659431999.288209,15342
1659431999.331265,15336
1659431999.374321,15335
1659431999.412934,15329
1659431999.451548,15336
1659431999.490161,15330
1659431999.531166,15323
1659431999.572172,15317
1659431999.616252,15311
1659431999.660333,15325
1659431999.704414,15320
1659431999.743369,15324
1659431999.782324,15320
1659431999.821279,15317
1659431999.859893,15309
1659431999.898506,15322
1659431999.937119,15315
1659431999.978637,15310
1659432000.020155,15319
1659432000.058769,15314
1659432000.097382,15310
1659432000.135995,15314
1659432000.177001,15312
1659432000.218006,15312
1659432000.257645,15315
1659432000.297283,15315
1659432000.336922,15318
1659432000.375535,15322
1659432000.414149,15317
1659432000.452762,15319
1659432000.493767,15311
1659432000.534773,15325
1659432000.574069,15316
1659432000.613366,15317
1659432000.652663,15317
1659432000.694694,15323
1659432000.736724,15315
1659432000.775337,15316
1659432000.813951,15312
1659432000.852564,15318
1659432000.894082,15310
1659432000.9356,15316
1659432000.980364,15318
1659432001.025129,15308
1659432001.069893,15325
1659432001.107823,15321
1659432001.145753,15325
1659432001.183683,15323
1659432001.226226,15325
1659432001.268769,15313
1659432001.307724,15328
1659432001.346679,15318
1659432001.385634,15319
1659432001.427152,15330
1659432001.46867,15331
1659432001.507625,15334
1659432001.54658,15334
1659432001.585535,15339
1659432001.625721,15334
1659432001.665906,15331
1659432001.706091,15335
1659432001.746276,15340
1659432001.786461,15351
1659432001.828492,15354
1659432001.870522,15359
1659432001.909136,15345
1659432001.947749,15340
1659432001.986363,15346
1659432002.024634,15345
1659432002.062906,15352
1659432002.101178,15359
1659432002.143208,15363
1659432002.185239,15361
1659432002.224194,15367
1659432002.263149,15367
1659432002.302104,15377
1659432002.342597,15385
1659432002.38309,15398
1659432002.422045,15397
1659432002.461,15409
1659432002.499955,15402
1659432002.541985,15413
1659432002.584016,15405
1659432002.622971,15394
1659432002.661926,15405
1659432002.700881,15412
1659432002.744962,15404
1659432002.789043,15404
1659432002.833123,15393
1659432002.865928,15388
1659432002.898732,15410
1659432002.942813,15403
1659432002.986893,15403
1659432003.030974,15416
1659432003.073005,15407
1659432003.115035,15408
1659432003.153307,15405
1659432003.191579,15408
1659432003.22985,15408
1659432003.268464,15406
1659432003.307077,15409
1659432003.34569,15419
1659432003.386696,15423
1659432003.427701,15422
1659432003.466656,15418
1659432003.505611,15419
1659432003.544566,15425
1659432003.586597,15431
1659432003.628628,15428
1659432003.667924,15419
1659432003.707221,15426
1659432003.746518,15429
1659432003.785131,15427
1659432003.823745,15425
1659432003.862358,15433
1659432003.904901,15435
1659432003.947444,15429
1659432003.986399,15439
1659432004.025354,15432
1659432004.06431,15443
1659432004.105315,15442
1659432004.14632,15457
1659432004.185617,15453
1659432004.224914,15458
1659432004.264211,15458
1659432004.305216,15457
1659432004.346221,15457
1659432004.384835,15451
1659432004.423448,15457
1659432004.462062,15453
1659432004.504092,15458
1659432004.546123,15453
1659432004.589862,15447
1659432004.633601,15462
1659432004.67734,15457
1659432004.716295,15469
1659432004.75525,15466
1659432004.794205,15464
1659432004.835723,15460
1659432004.877241,15481
1659432004.916879,15472
1659432004.956518,15476
1659432004.996156,15497
1659432005.034428,15487
1659432005.0727,15489
1659432005.110971,15485
1659432005.153515,15494
1659432005.196058,15502
1659432005.234671,15501
1659432005.273284,15507
1659432005.311898,15513
1659432005.353416,15524
1659432005.394934,15521
1659432005.433889,15525
1659432005.472844,15520
1659432005.511799,15524
1659432005.550412,15535
1659432005.589026,15532
1659432005.627639,15523
1659432005.668132,15525
1659432005.708625,15521
1659432005.747921,15514
1659432005.787218,15509
1659432005.826515,15510
1659432005.868546,15512
1659432005.910576,15511
1659432005.954657,15510
1659432005.998738,15503
1659432006.042818,15519
1659432006.075623,15516
1659432006.108427,15520
1659432006.153191,15518
1659432006.197955,15526
1659432006.24272,15527
1659432006.275524,15520
1659432006.308328,15525
1659432006.352751,15519
1659432006.397173,15525
1659432006.441596,15534
1659432006.480209,15543
1659432006.518822,15538
1659432006.557436,15535
1659432006.598441,15536
1659432006.639446,15539
1659432006.67806,15545
1659432006.716673,15550
1659432006.755287,15562
1659432006.79783,15560
1659432006.840373,15562
1659432006.87779,15546
1659432006.915208,15546
1659432006.952625,15558
1659432006.990042,15550
1659432007.035148,15555
1659432007.080254,15572
1659432007.12536,15570
1659432007.158164,15558
1659432007.190969,15550
1659432007.235391,15545
1659432007.279814,15549
1659432007.324236,15549
1659432007.366266,15542
1659432007.408297,15535
1659432007.447936,15536
1659432007.487574,15540
1659432007.527213,15545
1659432007.565484,15534
1659432007.603756,15530
1659432007.642028,15522
1659432007.683033,15522
1659432007.724038,15519
1659432007.762994,15518
1659432007.801949,15522
1659432007.840904,15506
1659432007.882421,15513
1659432007.923939,15511
1659432007.962553,15516
1659432008.001166,15523
1659432008.03978,15525
1659432008.079077,15528
1659432008.118373,15534
1659432008.15767,15534
1659432008.199188,15531
1659432008.240706,15539
1659432008.279661,15520
1659432008.318616,15513
1659432008.357571,15499
1659432008.399602,15498
1659432008.441632,15499
1659432008.480929,15500
1659432008.520226,15498
1659432008.559523,15512
1659432008.600015,15502
1659432008.640508,15495
1659432008.684931,15506
1659432008.729353,15500
1659432008.773776,15500
1659432008.807605,15493
1659432008.841434,15501
1659432008.884832,15489
1659432008.928229,15495
1659432008.971627,15487
1659432009.01024,15487
1659432009.048853,15493
1659432009.087467,15490
1659432009.128985,15499
1659432009.170503,15501
1659432009.209458,15487
1659432009.248413,15490
1659432009.287368,15492
1659432009.326323,15492
1659432009.365278,15498
1659432009.404233,15491
1659432009.446776,15499
1659432009.489319,15499
1659432009.527933,15509
1659432009.566546,15505
1659432009.60516,15508
1659432009.646165,15501
1659432009.68717,15495
1659432009.726467,15501
1659432009.765764,15503
1659432009.805061,15506
1659432009.843674,15506
1659432009.882288,15504
1659432009.920901,15497
1659432009.961906,15502
1659432010.002912,15505
1659432010.041867,15507
1659432010.080822,15506
1659432010.119777,15500
1659432010.161295,15511
1659432010.202813,15498
1659432010.247235,15502
1659432010.291658,15512
1659432010.33608,15515
1659432010.36991,15503
1659432010.403739,15503
1659432010.448162,15511
1659432010.492584,15501
1659432010.537006,15515
1659432010.570323,15509
1659432010.60364,15513
1659432010.648063,15515
1659432010.692485,15515
1659432010.736907,15506
1659432010.770737,15525
1659432010.804566,15517
1659432010.848305,15519
1659432010.892045,15513
1659432010.935784,15506
1659432010.97508,15511
1659432011.014377,15508
1659432011.053674,15515
1659432011.094679,15506
1659432011.135685,15513
1659432011.17464,15505
1659432011.213595,15521
1659432011.25255,15513
1659432011.291505,15496
1659432011.33046,15503
1659432011.369415,15493
1659432011.410933,15496
1659432011.452451,15504
1659432011.491065,15498
1659432011.529678,15492
1659432011.568291,15499
1659432011.610834,15504
1659432011.653378,15509
1659432011.691991,15521
1659432011.730604,15533
1659432011.769218,15528
1659432011.810736,15539
1659432011.852253,15539
1659432011.890525,15540
1659432011.928797,15542
1659432011.967069,15539
1659432012.009099,15557
1659432012.05113,15553
1659432012.089401,15545
1659432012.127673,15546
1659432012.165945,15533
1659432012.210025,15529
1659432012.254106,15530
1659432012.298187,15534
1659432012.3368,15533
1659432012.375414,15538
1659432012.414027,15530
1659432012.455032,15527
1659432012.496038,15528
1659432012.534993,15525
1659432012.573948,15518
1659432012.612903,15528
1659432012.655446,15525
1659432012.697989,15529
1659432012.736603,15531
1659432012.775216,15528
1659432012.813829,15536
1659432012.852784,15526
1659432012.89174,15524
1659432012.930695,15536
1659432012.9717,15531
1659432013.012705,15528
1659432013.051661,15521
1659432013.090616,15530
1659432013.129571,15529
1659432013.171089,15537
1659432013.212606,15532
1659432013.251562,15529
1659432013.290517,15520
1659432013.329472,15528
1659432013.37099,15524
1659432013.412508,15532
1659432013.451121,15529
1659432013.489734,15531
1659432013.528348,15538
1659432013.570378,15524
1659432013.612409,15533
1659432013.656831,15526
1659432013.701254,15527
1659432013.745676,15527
1659432013.784631,15531
1659432013.823586,15527
1659432013.862542,15538
1659432013.904572,15524
1659432013.946603,15515
1659432013.985216,15516
1659432014.023829,15508
1659432014.062443,15510
1659432014.104473,15513
1659432014.146504,15530
1659432014.185117,15515
1659432014.223731,15528
1659432014.262344,15515
1659432014.301641,15516
1659432014.340938,15524
1659432014.380234,15518
1659432014.420727,15531
1659432014.46122,15530
1659432014.500517,15528
1659432014.539814,15523
1659432014.57911,15528
1659432014.618065,15531
1659432014.657021,15535
1659432014.695976,15531
1659432014.736981,15543
1659432014.777986,15545
1659432014.816941,15528
1659432014.855896,15521
1659432014.894852,15514
1659432014.937395,15521
1659432014.979938,15519
1659432015.020943,15525
1659432015.061949,15532
1659432015.100904,15522
1659432015.139859,15525
1659432015.178814,15525
1659432015.222895,15527
1659432015.266975,15532
1659432015.311056,15543
1659432015.344373,15529
1659432015.37769,15535
1659432015.421429,15532
1659432015.465168,15548
1659432015.508907,15544
1659432015.548204,15538
1659432015.587501,15540
1659432015.626797,15539
1659432015.66729,15538
1659432015.707783,15535
1659432015.746397,15541
1659432015.78501,15535
1659432015.823623,15538
1659432015.866679,15528
1659432015.909734,15537
1659432015.948348,15539
1659432015.986961,15540
1659432016.025575,15533
1659432016.06453,15530
1659432016.103485,15531
1659432016.14244,15527
1659432016.184214,15543
1659432016.225988,15535
1659432016.267763,15533
1659432016.309537,15534
1659432016.34815,15533
1659432016.386764,15539
1659432016.425377,15542
1659432016.466382,15536
1659432016.507388,15540
1659432016.546343,15533
1659432016.585298,15524
1659432016.624253,15516
1659432016.662525,15518
1659432016.700796,15515
1659432016.739068,15514
1659432016.781611,15507
1659432016.824154,15519
1659432016.863109,15513
1659432016.902064,15515
1659432016.941019,15514
1659432016.98305,15521
1659432017.02508,15521
1659432017.064035,15524
1659432017.102991,15529
1659432017.141946,15530
1659432017.184489,15535
1659432017.227032,15537
1659432017.271454,15531
1659432017.315877,15535
1659432017.360299,15547
1659432017.399254,15539
1659432017.43821,15533
1659432017.477165,15534
1659432017.518682,15530
1659432017.5602,15534
1659432017.598472,15546
1659432017.636744,15546
1659432017.675015,15540
1659432017.713287,15542
1659432017.751559,15540
1659432017.78983,15555
1659432017.831861,15549
1659432017.873891,15538
1659432017.912163,15551
1659432017.950435,15551
1659432017.988707,15550
1659432018.027662,15548
1659432018.066617,15552
1659432018.105572,15549
1659432018.146577,15556
1659432018.187582,15557
1659432018.227221,15554
1659432018.26686,15564
1659432018.306498,15549
1659432018.347503,15549
1659432018.388509,15544
1659432018.427806,15547
1659432018.467103,15557
1659432018.506399,15553
1659432018.547405,15543
1659432018.58841,15549
1659432018.632149,15544
1659432018.675888,15548
1659432018.719627,15550
1659432018.753457,15557
1659432018.787286,15559
1659432018.831708,15570
1659432018.876131,15554
1659432018.920553,15547
1659432018.958825,15560
1659432018.997097,15554
1659432019.035368,15558
1659432019.077399,15555
1659432019.119429,15562
1659432019.159068,15559
1659432019.198706,15571
1659432019.238345,15566
1659432019.27935,15555
1659432019.320356,15554
1659432019.358969,15551
1659432019.397583,15545
1659432019.436196,15550
1659432019.475493,15559
1659432019.51479,15553
1659432019.554086,15556
1659432019.595604,15558
1659432019.637122,15573
1659432019.676077,15564
1659432019.715032,15563
1659432019.753988,15571
1659432019.795506,15572
1659432019.837023,15568
1659432019.875295,15566
1659432019.913567,15579
1659432019.951838,15569
1659432019.993869,15569
1659432020.035899,15571
1659432020.075196,15566
1659432020.114493,15561
1659432020.15379,15563
1659432020.195308,15558
1659432020.236826,15562
1659432020.275781,15564
1659432020.314736,15564
1659432020.353691,15569
1659432020.398797,15564
1659432020.443903,15578
1659432020.489009,15580
1659432020.521813,15572
1659432020.554617,15560
1659432020.598698,15570
1659432020.642779,15572
1659432020.68686,15570
1659432020.720176,15576
1659432020.753493,15575
1659432020.797574,15589
1659432020.841655,15580
1659432020.885736,15574
1659432020.924349,15578
1659432020.962962,15581
1659432021.001576,15573
1659432021.043606,15573
1659432021.085637,15574
1659432021.123909,15575
1659432021.16218,15575
1659432021.200452,15564
1659432021.238724,15568
1659432021.276995,15571
1659432021.315267,15570
1659432021.357297,15569
1659432021.399328,15576
1659432021.437941,15572
1659432021.476555,15584
1659432021.515168,15578
1659432021.557199,15575
1659432021.599229,15585
1659432021.638184,15585
1659432021.677139,15589
1659432021.716094,15578
1659432021.757612,15583
1659432021.79913,15577
1659432021.837402,15595
1659432021.875674,15583
1659432021.913945,15581
1659432021.955976,15588
1659432021.998006,15583
1659432022.036278,15570
1659432022.074549,15572
1659432022.112821,15579
1659432022.156902,15584
1659432022.200983,15579
1659432022.245064,15578
1659432022.286069,15577
1659432022.327074,15577
1659432022.366371,15578
1659432022.405668,15586
1659432022.444965,15588
1659432022.48392,15583
1659432022.522875,15589
1659432022.56183,15582
1659432022.601127,15579
1659432022.640424,15591
1659432022.67972,15587
1659432022.719017,15585
1659432022.758314,15594
1659432022.797611,15583
1659432022.839129,15573
1659432022.880647,15566
1659432022.925069,15559
1659432022.969491,15551
1659432023.013914,15567
1659432023.048256,15564
1659432023.082598,15560
1659432023.126337,15563
1659432023.170076,15563
1659432023.213815,15566
1659432023.246619,15568
1659432023.279424,15573
1659432023.323846,15564
1659432023.368269,15573
1659432023.412691,15574
1659432023.451305,15587
1659432023.489918,15579
1659432023.528531,15579
1659432023.570562,15583
1659432023.612592,15585
1659432023.651547,15583
1659432023.690503,15581
1659432023.729458,15558
1659432023.770976,15547
1659432023.812494,15544
1659432023.851449,15534
1659432023.890404,15537
1659432023.929359,15547
1659432023.968656,15539
1659432024.007952,15550
1659432024.047249,15544
1659432024.08928,15538
1659432024.13131,15537
1659432024.16924,15548
1659432024.20717,15546
1659432024.2451,15551
1659432024.287131,15553
1659432024.329161,15561
1659432024.367433,15555
1659432024.405704,15555
1659432024.443976,15556
1659432024.485494,15560
1659432024.527012,15555
1659432024.565967,15546
1659432024.604922,15533
1659432024.643877,15527
1659432024.685395,15514
1659432024.726913,15520
1659432024.765185,15522
1659432024.803457,15514
1659432024.841728,15538
1659432024.886492,15527
1659432024.931257,15526
1659432024.976021,15523
1659432025.018564,15524
1659432025.061107,15526
1659432025.099379,15520
1659432025.13765,15533
1659432025.175922,15529
1659432025.214877,15533
1659432025.253832,15530
1659432025.292787,15526
1659432025.333793,15535
1659432025.374798,15538
1659432025.413411,15538
1659432025.452025,15524
1659432025.490638,15491
1659432025.532669,15476
1659432025.574699,15476
1659432025.613312,15468
1659432025.651926,15477
1659432025.690539,15467
1659432025.729153,15462
1659432025.767766,15458
1659432025.806379,15465
1659432025.848922,15460
1659432025.891466,15473
1659432025.930762,15476
1659432025.970059,15474
1659432026.009356,15483
1659432026.050361,15491
1659432026.091367,15493
1659432026.130664,15488
1659432026.16996,15483
1659432026.209257,15488
1659432026.2518,15496
1659432026.294343,15492
1659432026.332957,15469
1659432026.37157,15440
1659432026.410183,15415
1659432026.450676,15400
1659432026.491169,15382
1659432026.535933,15380
1659432026.580698,15379
1659432026.625462,15369
1659432026.663733,15359
1659432026.702005,15364
1659432026.740277,15357
1659432026.78282,15367
1659432026.825363,15358
1659432026.864318,15351
1659432026.903273,15359
1659432026.942228,15367
1659432026.983746,15357
1659432027.025264,15351
1659432027.063877,15356
1659432027.102491,15366
1659432027.141104,15381
1659432027.180401,15365
1659432027.219698,15344
1659432027.258995,15310
1659432027.300513,15286
1659432027.34203,15280
1659432027.380644,15270
1659432027.419257,15276
1659432027.45787,15277
1659432027.498876,15290
1659432027.539881,15285
1659432027.578495,15270
1659432027.617108,15278
1659432027.655721,15271
1659432027.693993,15275
1659432027.732265,15281
1659432027.770536,15277
1659432027.812054,15274
1659432027.853572,15280
1659432027.897653,15275
1659432027.941734,15270
1659432027.985815,15275
1659432028.024428,15272
1659432028.063041,15275
1659432028.101655,15232
1659432028.14061,15158
1659432028.179565,15107
1659432028.21852,15070
1659432028.260038,15042
1659432028.301556,15045
1659432028.340853,15042
1659432028.38015,15031
1659432028.419446,15015
1659432028.460964,15014
1659432028.502482,15011
1659432028.541437,15014
1659432028.580392,15015
1659432028.619348,15007
1659432028.657619,15005
1659432028.695891,15004
1659432028.734163,14995
1659432028.776193,14993
1659432028.818223,14990
1659432028.85752,14994
1659432028.896817,15003
1659432028.936114,14999
1659432028.976607,14979
1659432029.0171,14918
1659432029.056055,14823
1659432029.09501,14765
1659432029.133965,14728
1659432029.177021,14729
1659432029.220076,14752
1659432029.264157,14753
1659432029.308238,14748
1659432029.352319,14746
1659432029.385123,14754
1659432029.417927,14768
1659432029.462691,14795
1659432029.507455,14801
1659432029.55222,14810
1659432029.590833,14828
1659432029.629446,14840
1659432029.66806,14850
1659432029.71009,14877
1659432029.752121,14891
1659432029.791076,14907
1659432029.830031,14943
1659432029.868986,14961
1659432029.907258,14970
1659432029.945529,14956
1659432029.983801,14956
1659432030.024294,14970
1659432030.064787,15022
1659432030.104425,15069
1659432030.144064,15120
1659432030.183702,15174
1659432030.22522,15214
1659432030.266738,15264
1659432030.305351,15281
1659432030.343965,15301
1659432030.382578,15304
1659432030.421875,15301
1659432030.461172,15301
1659432030.500469,15291
1659432030.541987,15296
1659432030.583504,15298
1659432030.625022,15296
1659432030.66654,15292
1659432030.705496,15298
1659432030.744451,15308
1659432030.783406,15308
1659432030.827487,15297
1659432030.871567,15307
1659432030.915648,15310
1659432030.94794,15308
1659432030.980232,15325
1659432031.024312,15316
1659432031.068393,15326
1659432031.112474,15324
1659432031.145791,15331
1659432031.179107,15336
1659432031.222847,15336
1659432031.266586,15333
1659432031.310325,15332
1659432031.349622,15339
1659432031.388918,15344
1659432031.428215,15356
1659432031.469733,15362
1659432031.511251,15355
1659432031.549864,15356
1659432031.588478,15363
1659432031.627091,15359
1659432031.669634,15352
1659432031.712177,15353
1659432031.751474,15339
1659432031.790771,15347
1659432031.830068,15337
1659432031.868339,15331
1659432031.906611,15344
1659432031.944883,15342
1659432031.986401,15346
1659432032.027919,15346
1659432032.067215,15351
1659432032.106512,15354
1659432032.145809,15356
1659432032.187327,15355
1659432032.228845,15362
1659432032.267117,15370
1659432032.305388,15377
1659432032.34366,15361
1659432032.38569,15369
1659432032.427721,15369
1659432032.467018,15366
1659432032.506315,15366
1659432032.545611,15350
1659432032.587129,15341
1659432032.628647,15336
1659432032.667602,15319
1659432032.706557,15320
1659432032.745512,15322
1659432032.789935,15312
1659432032.834357,15321
1659432032.87878,15314
1659432032.919785,15308
1659432032.960791,15328
1659432033.000429,15327
1659432033.040068,15335
1659432033.079706,15333
1659432033.116611,15331
1659432033.153516,15335
1659432033.190421,15341
1659432033.227325,15346
1659432033.269356,15345
1659432033.311386,15356
1659432033.350342,15318
1659432033.389297,15296
1659432033.428252,15264
1659432033.46977,15252
1659432033.511288,15243
1659432033.555368,15243
1659432033.599449,15242
1659432033.64353,15247
1659432033.677359,15249
1659432033.711189,15246
1659432033.755611,15267
1659432033.800034,15259
1659432033.844456,15254
1659432033.88307,15259
1659432033.921683,15263
1659432033.960296,15273
1659432034.001302,15281
1659432034.042307,15288
1659432034.081262,15300
1659432034.120217,15304
1659432034.159172,15306
1659432034.20069,15286
1659432034.242208,15262
1659432034.280822,15239
1659432034.319435,15246
1659432034.358048,15255
1659432034.397003,15259
1659432034.435959,15259
1659432034.474914,15248
1659432034.515407,15247
1659432034.555899,15253
1659432034.595538,15247
1659432034.635176,15254
1659432034.674815,15254
1659432034.71377,15247
1659432034.752725,15239
1659432034.79168,15253
1659432034.832685,15251
1659432034.873691,15257
1659432034.915721,15263
1659432034.957752,15275
1659432034.997391,15266
1659432035.037029,15241
1659432035.076668,15220
1659432035.118185,15213
1659432035.159703,15224
1659432035.198317,15226
1659432035.23693,15239
1659432035.275543,15246
1659432035.319966,15240
1659432035.364388,15250
1659432035.408811,15248
1659432035.441615,15249
1659432035.47442,15272
1659432035.5185,15269
1659432035.562581,15265
1659432035.606662,15271
1659432035.648692,15271
1659432035.690723,15276
1659432035.729678,15278
1659432035.768633,15283
1659432035.807588,15260
1659432035.846543,15209
1659432035.885498,15187
1659432035.924453,15173
1659432035.966996,15179
1659432036.00954,15175
1659432036.048153,15188
1659432036.086766,15175
1659432036.12538,15178
1659432036.166898,15172
1659432036.208416,15172
1659432036.247371,15170
1659432036.286326,15171
1659432036.325281,15177
1659432036.363553,15168
1659432036.401824,15176
1659432036.440096,15177
1659432036.482126,15178
1659432036.524157,15182
1659432036.563112,15179
1659432036.602067,15152
1659432036.641022,15092
1659432036.681515,15045
1659432036.722008,15018
1659432036.760621,15015
1659432036.799235,15013
1659432036.837848,15015
1659432036.879878,15014
1659432036.921909,15012
1659432036.960522,14999
1659432036.999136,15000
1659432037.037749,14986
1659432037.082171,14987
1659432037.126594,14986
1659432037.171016,14981
1659432037.213047,14998
1659432037.255078,14994
1659432037.294033,15002
1659432037.332988,15012
1659432037.371943,15010
1659432037.413461,14970
1659432037.454979,14903
1659432037.493592,14827
1659432037.532205,14797
1659432037.570819,14798
1659432037.609432,14817
1659432037.648046,14837
1659432037.686659,14848
1659432037.727664,14865
1659432037.76867,14883
1659432037.807283,14904
1659432037.845896,14919
1659432037.88451,14930
1659432037.92654,14959
1659432037.968571,14978
1659432038.007868,15001
1659432038.047164,15036
1659432038.086461,15054
1659432038.125075,15077
1659432038.163688,15094
1659432038.202302,15107
1659432038.244332,15103
1659432038.286362,15073
1659432038.325659,15072
1659432038.364956,15074
1659432038.404253,15092
1659432038.448675,15116
1659432038.493098,15127
1659432038.53752,15137
1659432038.576817,15131
1659432038.616114,15154
1659432038.655411,15161
1659432038.695391,15163
1659432038.735371,15166
1659432038.773985,15160
1659432038.812598,15168
1659432038.851211,15178
1659432038.893754,15175
1659432038.936297,15176
1659432038.974911,15185
1659432039.013524,15155
1659432039.052138,15090
1659432039.090751,15033
1659432039.129364,15008
1659432039.167978,14997
1659432039.210521,15004
1659432039.253064,14994
1659432039.291677,14968
1659432039.330291,14969
1659432039.368904,14948
1659432039.410422,14948
1659432039.45194,14933
1659432039.491579,14928
1659432039.531217,14924
1659432039.570856,14924
1659432039.611861,14917
1659432039.652866,14925
1659432039.690796,14917
1659432039.728726,14924
1659432039.766656,14906
1659432039.809199,14800
1659432039.851742,14640
1659432039.896165,14521
1659432039.940587,14463
1659432039.98501,14431
1659432040.02294,14458
1659432040.06087,14482
1659432040.0988,14491
1659432040.140317,14495
1659432040.181835,14500
1659432040.221132,14530
1659432040.260429,14542
1659432040.299726,14567
1659432040.337998,14574
1659432040.376269,14576
1659432040.414541,14574
1659432040.457084,14579
1659432040.499627,14584
1659432040.538582,14578
1659432040.577537,14568
1659432040.616492,14479
1659432040.657498,14255
1659432040.698503,14121
1659432040.737458,14061
1659432040.776413,14036
1659432040.815368,14071
1659432040.854665,14122
1659432040.893962,14132
1659432040.933259,14145
1659432040.973752,14155
1659432041.014244,14188
1659432041.0532,14213
1659432041.092155,14240
1659432041.13111,14263
1659432041.172115,14274
1659432041.21312,14289
1659432041.252075,14299
1659432041.291031,14296
1659432041.329986,14298
1659432041.371504,14296
1659432041.413022,14285
1659432041.458127,14171
1659432041.503233,13978
1659432041.548339,13848
1659432041.581144,13777
1659432041.613948,13757
1659432041.658712,13767
1659432041.703476,13772
1659432041.74824,13741
1659432041.787879,13697
1659432041.827518,13683
1659432041.867156,13685
1659432041.908161,13689
1659432041.949167,13699
1659432041.98778,13725
1659432042.026393,13712
1659432042.065007,13727
1659432042.106525,13721
1659432042.148043,13720
1659432042.18734,13734
1659432042.226636,13724
1659432042.265933,13575
1659432042.304547,13360
1659432042.34316,13221
1659432042.381773,13117
1659432042.423804,13066
1659432042.465834,13043
1659432042.504789,13057
1659432042.543745,13094
1659432042.5827,13090
1659432042.624218,13118
1659432042.665735,13145
1659432042.70469,13152
1659432042.743646,13153
1659432042.782601,13173
1659432042.823606,13189
1659432042.864611,13182
1659432042.903225,13179
1659432042.941838,13186
1659432042.980452,13207
1659432043.022482,13209
1659432043.064513,13157
1659432043.103126,12953
1659432043.141739,12689
1659432043.180353,12461
1659432043.224092,12309
1659432043.267831,12195
1659432043.31157,12165
1659432043.343862,12148
1659432043.376153,12124
1659432043.420918,12087
1659432043.465682,12074
1659432043.510446,12087
1659432043.549401,12112
1659432043.588356,12152
1659432043.627311,12200
1659432043.669342,12278
1659432043.711372,12343
1659432043.750669,12406
1659432043.789966,12474
1659432043.829263,12547
1659432043.870781,12625
1659432043.912299,12658
1659432043.95057,12602
1659432043.988842,12591
1659432044.027114,12726
1659432044.06641,12886
1659432044.105707,13012
1659432044.145004,13122
1659432044.186522,13208
1659432044.22804,13273
1659432044.26597,13327
1659432044.3039,13384
1659432044.34183,13434
1659432044.38386,13472
1659432044.425891,13499
1659432044.464162,13519
1659432044.502434,13546
1659432044.540706,13563
1659432044.582224,13571
1659432044.623742,13583
1659432044.66338,13606
1659432044.703019,13619
1659432044.742657,13644
1659432044.784175,13641
1659432044.825693,13646
1659432044.870457,13642
1659432044.915221,13646
1659432044.959986,13650
1659432044.993815,13664
1659432045.027645,13681
1659432045.07275,13680
1659432045.117856,13690
1659432045.162962,13706
1659432045.200892,13726
1659432045.238822,13730
1659432045.276752,13735
1659432045.31827,13746
1659432045.359788,13756
1659432045.398743,13768
1659432045.437698,13778
1659432045.476653,13791
1659432045.515267,13794
1659432045.55388,13806
1659432045.592494,13812
1659432045.634011,13811
1659432045.675529,13786
1659432045.714484,13765
1659432045.753439,13762
1659432045.792395,13772
1659432045.8334,13779
1659432045.874405,13784
1659432045.913702,13800
1659432045.952999,13794
1659432045.992296,13817
1659432046.031251,13816
1659432046.070206,13821
1659432046.109161,13823
1659432046.150167,13837
1659432046.191172,13842
1659432046.229785,13855
1659432046.268399,13868
1659432046.307012,13875
1659432046.349555,13894
1659432046.392098,13898
1659432046.435837,13879
1659432046.479576,13851
1659432046.523315,13814
1659432046.556119,13805
1659432046.588924,13805
1659432046.633005,13812
1659432046.677085,13824
1659432046.721166,13834
1659432046.759779,13821
1659432046.798393,13817
1659432046.837006,13833
1659432046.879037,13840
1659432046.921067,13856
1659432046.960022,13868
1659432046.998977,13883
1659432047.037933,13885
1659432047.076546,13893
1659432047.115159,13894
1659432047.153773,13915
1659432047.194778,13918
1659432047.235784,13928
1659432047.274739,13867
1659432047.313694,13812
1659432047.352649,13782
1659432047.394679,13780
1659432047.43671,13779
1659432047.475323,13784
1659432047.513937,13817
1659432047.55255,13809
1659432047.591505,13806
1659432047.63046,13814
1659432047.669415,13823
1659432047.710933,13831
1659432047.752451,13838
1659432047.794482,13850
1659432047.836512,13843
1659432047.875125,13862
1659432047.913739,13872
1659432047.952352,13878
1659432047.997116,13883
1659432048.041881,13885
1659432048.086645,13848
1659432048.119962,13768
1659432048.153279,13713
1659432048.198043,13698
1659432048.242807,13708
1659432048.287571,13733
1659432048.321913,13760
1659432048.356255,13767
1659432048.399994,13769
1659432048.443733,13782
1659432048.487472,13794
1659432048.526086,13811
1659432048.564699,13829
1659432048.603312,13849
1659432048.643805,13864
1659432048.684298,13900
1659432048.722911,13894
1659432048.761525,13909
1659432048.800138,13928
1659432048.842169,13942
1659432048.884199,13949
1659432048.921873,13953
1659432048.959547,13908
1659432048.99722,13896
1659432049.034894,13905
1659432049.078975,13922
1659432049.123055,13947
1659432049.167136,13969
1659432049.206433,13982
1659432049.24573,13984
1659432049.285027,14003
1659432049.326545,14008
1659432049.368062,14027
1659432049.406334,14022
1659432049.444606,14027
1659432049.482877,14043
1659432049.521833,14044
1659432049.560788,14050
1659432049.599743,14050
1659432049.641773,14051
1659432049.683804,14050
1659432049.721734,14046
1659432049.759664,13977
1659432049.797594,13946
1659432049.839112,13943
1659432049.88063,13945
1659432049.919243,13948
1659432049.957856,13950
1659432049.99647,13938
1659432050.037988,13932
1659432050.079506,13940
1659432050.118461,13957
1659432050.157416,13969
1659432050.196371,13989
1659432050.241135,13999
1659432050.285899,14015
1659432050.330663,14009
1659432050.362955,14022
1659432050.395247,14028
1659432050.440353,14030
1659432050.485459,14033
1659432050.530565,14010
1659432050.573108,13922
1659432050.615651,13882
1659432050.653922,13860
1659432050.692194,13856
1659432050.730466,13867
1659432050.769421,13888
1659432050.808376,13889
1659432050.847331,13889
1659432050.888849,13898
1659432050.930367,13911
1659432050.969322,13927
1659432051.008277,13926
1659432051.047232,13934
1659432051.08875,13940
1659432051.130268,13962
1659432051.169223,13971
1659432051.208178,13991
1659432051.247133,14001
1659432051.286088,13999
1659432051.325043,13985
1659432051.363999,13894
1659432051.405517,13819
1659432051.447035,13795
1659432051.486331,13786
1659432051.525628,13796
1659432051.564925,13820
1659432051.606443,13838
1659432051.647961,13842
1659432051.686916,13865
1659432051.725871,13872
1659432051.764826,13894
1659432051.806857,13915
1659432051.848887,13930
1659432051.887842,13945
1659432051.926797,13961
1659432051.965752,13972
1659432052.006245,13977
1659432052.046738,13987
1659432052.091161,13998
1659432052.135583,14006
1659432052.180005,13968
1659432052.218277,13886
1659432052.256549,13826
1659432052.294821,13817
1659432052.336851,13822
1659432052.378881,13851
1659432052.417836,13873
1659432052.456792,13874
1659432052.495747,13894
1659432052.534702,13897
1659432052.573657,13900
1659432052.612612,13911
1659432052.653617,13916
1659432052.694623,13926
1659432052.733236,13935
1659432052.77185,13947
1659432052.810463,13949
1659432052.852494,13975
1659432052.894524,13980
1659432052.933137,13996
1659432052.971751,13995
1659432053.010364,13943
1659432053.048636,13894
1659432053.086907,13905
1659432053.125179,13907
1659432053.16721,13934
1659432053.20924,13967
1659432053.247512,13990
1659432053.285784,14013
1659432053.324055,14029
1659432053.365573,14051
1659432053.407091,14060
1659432053.451855,14067
1659432053.496619,14077
1659432053.541384,14080
1659432053.575213,14097
1659432053.609042,14102
1659432053.653123,14111
1659432053.697204,14108
1659432053.741285,14111
1659432053.775627,14118
1659432053.809969,14129
1659432053.854733,14067
1659432053.899497,13936
1659432053.944261,13854
1659432053.982533,13835
1659432054.020805,13855
1659432054.059076,13878
1659432054.100594,13914
1659432054.142112,13929
1659432054.181067,13930
1659432054.220022,13939
1659432054.258977,13961
1659432054.297591,13969
1659432054.336204,13987
1659432054.374818,14002
1659432054.416848,14003
1659432054.458879,14024
1659432054.49715,14029
1659432054.535422,14046
1659432054.573694,14052
1659432054.612649,14071
1659432054.651604,14063
1659432054.690559,14093
1659432054.732589,14060
1659432054.77462,13908
1659432054.81665,13809
1659432054.858681,13793
1659432054.896953,13805
1659432054.935224,13822
1659432054.973496,13876
1659432055.015527,13898
1659432055.057557,13926
1659432055.096854,13941
1659432055.136151,13943
1659432055.175447,13975
1659432055.219186,13993
1659432055.262925,14015
1659432055.306664,14018
1659432055.339469,14021
1659432055.372273,14035
1659432055.416696,14036
1659432055.461118,14046
1659432055.505541,14056
1659432055.543471,14069
1659432055.5814,14079
1659432055.61933,14092
1659432055.661874,14081
1659432055.704417,14001
1659432055.743372,13915
1659432055.782327,13913
1659432055.821282,13934
1659432055.862287,13949
1659432055.903293,13985
1659432055.941906,13996
1659432055.980519,14015
1659432056.019133,14019
1659432056.058088,14027
1659432056.097043,14050
1659432056.135998,14063
1659432056.177516,14064
1659432056.219034,14087
1659432056.257647,14100
1659432056.296261,14119
1659432056.334874,14127
1659432056.376392,14129
1659432056.41791,14149
1659432056.456523,14159
1659432056.495137,14161
1659432056.53375,14158
1659432056.575268,14159
1659432056.616786,14091
1659432056.655741,14038
1659432056.694696,14011
1659432056.733651,14021
1659432056.778074,14036
1659432056.822496,14055
1659432056.866919,14062
1659432056.900236,14070
1659432056.933553,14073
1659432056.978658,14076
1659432057.023764,14096
1659432057.06887,14103
1659432057.110901,14103
1659432057.152931,14124
1659432057.191545,14128
1659432057.230158,14139
1659432057.268771,14143
1659432057.307726,14152
1659432057.346681,14159
1659432057.385637,14170
1659432057.426642,14171
1659432057.467647,14174
1659432057.506261,14163
1659432057.544874,14063
1659432057.583488,13978
1659432057.625518,13963
1659432057.667548,13970
1659432057.706504,13984
1659432057.745459,14020
1659432057.784414,14032
1659432057.822685,14046
1659432057.860957,14049
1659432057.899229,14063
1659432057.940747,14081
1659432057.982265,14079
1659432058.022245,14090
1659432058.062225,14109
1659432058.102205,14121
1659432058.143211,14129
1659432058.184216,14145
1659432058.222829,14152
1659432058.261443,14162
1659432058.300056,14156
1659432058.342599,14164
1659432058.385142,14172
1659432058.428881,14176
1659432058.47262,14144
1659432058.51636,14044
1659432058.549676,14001
1659432058.582993,14005
1659432058.627416,14022
1659432058.671838,14036
1659432058.716261,14056
1659432058.754874,14072
1659432058.793488,14072
1659432058.832101,14079
1659432058.872594,14086
1659432058.913086,14102
1659432058.952725,14109
1659432058.992363,14129
1659432059.032002,14137
1659432059.070615,14139
1659432059.109229,14158
1659432059.147842,14150
1659432059.188848,14162
1659432059.229853,14172
1659432059.269491,14181
1659432059.30913,14198
1659432059.348768,14205
1659432059.390799,14205
1659432059.432829,14189
1659432059.471101,14161
1659432059.509373,14146
1659432059.547644,14158
1659432059.586941,14151
1659432059.626238,14161
1659432059.665535,14174
1659432059.70654,14190
1659432059.747546,14196
1659432059.786159,14200
1659432059.824772,14218
1659432059.863386,14222
1659432059.905929,14232
1659432059.948472,14231
1659432059.992894,14231
1659432060.037317,14245
1659432060.081739,14244
1659432060.114031,14247
1659432060.146323,14251
1659432060.191429,14259
1659432060.236535,14265
1659432060.281641,14270
1659432060.320254,14269
1659432060.358867,14237
1659432060.397481,14173
1659432060.438999,14132
1659432060.480516,14128
1659432060.519813,14135
1659432060.55911,14144
1659432060.598407,14149
1659432060.640437,14145
1659432060.682468,14143
1659432060.72074,14145
1659432060.759011,14153
1659432060.797283,14158
1659432060.836238,14166
1659432060.875193,14173
1659432060.914148,14177
1659432060.956691,14188
1659432060.999234,14193
1659432061.037506,14193
1659432061.075778,14212
1659432061.114049,14210
1659432061.155055,14216
1659432061.19606,14217
1659432061.235357,14230
1659432061.274654,14187
1659432061.313951,14044
1659432061.355469,13951
1659432061.396986,13922
1659432061.435941,13921
1659432061.474897,13936
1659432061.513852,13972
1659432061.555882,13993
1659432061.597913,13990
1659432061.636526,14000
1659432061.675139,14013
1659432061.713753,14029
1659432061.757492,14049
1659432061.801231,14068
1659432061.84497,14076
1659432061.878799,14078
1659432061.912629,14083
1659432061.956368,14092
1659432062.000107,14101
1659432062.043846,14109
1659432062.082459,14120
1659432062.121073,14133
1659432062.159686,14138
1659432062.201204,14153
1659432062.242722,14106
1659432062.282019,13918
1659432062.321316,13821
1659432062.360613,13816
1659432062.401618,13819
1659432062.442623,13846
1659432062.481578,13894
1659432062.520534,13926
1659432062.559489,13942
1659432062.598785,13959
1659432062.638082,13977
1659432062.677379,14018
1659432062.718897,14034
1659432062.760415,14060
1659432062.79937,14079
1659432062.838325,14102
1659432062.87728,14117
1659432062.918798,14127
1659432062.960316,14127
1659432062.998588,14139
1659432063.036859,14152
1659432063.075131,14166
1659432063.117162,14176
1659432063.159192,14182
1659432063.198489,14154
1659432063.237786,14057
1659432063.277082,13986
1659432063.317575,13975
1659432063.358068,13978
1659432063.402491,14009
1659432063.446913,14040
1659432063.491335,14051
1659432063.530974,14060
1659432063.570612,14074
1659432063.610251,14078
1659432063.651256,14097
1659432063.692262,14110
1659432063.731217,14135
1659432063.770172,14151
1659432063.809127,14158
1659432063.851158,14172
1659432063.893188,14184
1659432063.931802,14191
1659432063.970415,14208
1659432064.009028,14219
1659432064.0473,14218
1659432064.085572,14240
1659432064.123843,14236
1659432064.166899,14221
1659432064.209955,14158
1659432064.248226,14134
1659432064.286498,14140
1659432064.324769,14141
1659432064.363383,14148
1659432064.401996,14156
1659432064.44061,14163
1659432064.482128,14168
1659432064.523646,14176
1659432064.561917,14173
1659432064.600189,14194
1659432064.638461,14195
1659432064.682541,14213
1659432064.726622,14221
1659432064.770703,14228
1659432064.810683,14231
1659432064.850663,14242
1659432064.890644,14258
1659432064.931649,14261
1659432064.972654,14265
1659432065.011609,14273
1659432065.050565,14266
1659432065.08952,14219
1659432065.127791,14140
1659432065.166063,14105
1659432065.204335,14102
1659432065.246365,14110
1659432065.288396,14114
1659432065.326667,14125
1659432065.364939,14135
1659432065.403211,14136
1659432065.442166,14142
1659432065.481121,14161
1659432065.520076,14166
1659432065.560569,14177
1659432065.601062,14179
1659432065.643092,14178
1659432065.685122,14204
1659432065.724419,14206
1659432065.763716,14216
1659432065.803013,14219
1659432065.844531,14232
1659432065.886049,14242
1659432065.924662,14262
1659432065.963276,14263
1659432066.001889,14238
1659432066.046653,14164
1659432066.091417,14087
1659432066.136182,14073
1659432066.169498,14055
1659432066.202815,14073
1659432066.247238,14080
1659432066.29166,14102
1659432066.336083,14101
1659432066.374696,14104
1659432066.41331,14115
1659432066.451923,14128
1659432066.493441,14140
1659432066.534959,14147
1659432066.573231,14148
1659432066.611502,14165
1659432066.649774,14177
1659432066.692317,14187
1659432066.73486,14202
1659432066.773815,14217
1659432066.81277,14226
1659432066.851725,14234
1659432066.89068,14233
1659432066.929635,14242
1659432066.96859,14203
1659432067.010108,14103
1659432067.051626,14031
1659432067.091265,14030
1659432067.130903,14027
1659432067.170542,14055
1659432067.21206,14077
1659432067.253578,14088
1659432067.292533,14097
1659432067.331488,14114
1659432067.370443,14130
1659432067.411961,14138
1659432067.453479,14147
1659432067.492092,14158
1659432067.530706,14178
1659432067.569319,14184
1659432067.610837,14191
1659432067.652355,14207
1659432067.696436,14217
1659432067.740516,14226
1659432067.784597,14228
1659432067.822869,14241
1659432067.861141,14251
1659432067.899412,14260
1659432067.94093,14192
1659432067.982448,14128
1659432068.021062,14113
1659432068.059675,14122
1659432068.098288,14128
1659432068.140831,14149
1659432068.183374,14156
1659432068.221988,14148
1659432068.260601,14161
1659432068.299215,14163
1659432068.338511,14182
1659432068.377808,14184
1659432068.417105,14200
1659432068.45811,14210
1659432068.499116,14228
1659432068.537729,14233
1659432068.576343,14257
1659432068.614956,14260
1659432068.656474,14266
1659432068.697992,14276
1659432068.736947,14273
1659432068.775902,14286
1659432068.814857,14273
1659432068.852787,14208
1659432068.890717,14125
1659432068.928647,14123
1659432068.971703,14105
1659432069.014758,14102
1659432069.056789,14128
1659432069.098819,14130
1659432069.137091,14132
1659432069.175363,14136
1659432069.213634,14147
1659432069.258399,14147
1659432069.303163,14166
1659432069.347927,14170
1659432069.382269,14172
1659432069.416611,14184
1659432069.460692,14194
1659432069.504772,14207
1659432069.548853,14214
1659432069.581657,14212
1659432069.614462,14219
1659432069.659226,14228
1659432069.70399,14236
1659432069.748754,14240
1659432069.787026,14183
1659432069.825298,14047
1659432069.863569,13953
1659432069.9056,13909
1659432069.94763,13893
1659432069.985304,13910
1659432070.022978,13937
1659432070.060651,13954
1659432070.098325,13962
1659432070.142406,13965
1659432070.186486,13982
1659432070.230567,14022
1659432070.264909,14032
1659432070.299251,14049
1659432070.344016,14058
1659432070.38878,14073
1659432070.433544,14077
1659432070.471816,14097
1659432070.510087,14105
1659432070.548359,14126
1659432070.589877,14131
1659432070.631395,14142
1659432070.670691,14164
1659432070.709988,14160
1659432070.749285,14070
1659432070.787557,13911
1659432070.825829,13846
1659432070.8641,13822
1659432070.905106,13844
1659432070.946111,13872
1659432070.984724,13910
1659432071.023338,13944
1659432071.061951,13956
1659432071.103469,13969
1659432071.144987,13984
1659432071.1836,13997
1659432071.222214,14015
1659432071.260827,14032
1659432071.302858,14049
1659432071.344888,14063
1659432071.383502,14078
1659432071.422115,14083
1659432071.460728,14098
1659432071.502759,14107
1659432071.544789,14121
1659432071.583403,14133
1659432071.622016,14141
1659432071.66063,14109
1659432071.705052,13998
1659432071.749474,13882
1659432071.793897,13869
1659432071.826701,13887
1659432071.859505,13928
1659432071.903586,13961
1659432071.947667,13989
1659432071.991748,14003
1659432072.03002,14008
1659432072.068291,14035
1659432072.106563,14038
1659432072.148081,14061
1659432072.189599,14077
1659432072.228554,14085
1659432072.267509,14097
1659432072.306464,14111
1659432072.347982,14116
1659432072.3895,14118
1659432072.428455,14136
1659432072.46741,14149
1659432072.506365,14166
1659432072.545662,14157
1659432072.584959,14115
1659432072.624255,14004
1659432072.666799,13910
1659432072.709342,13901
1659432072.748297,13896
1659432072.787252,13937
1659432072.826207,13960
1659432072.867212,13984
1659432072.908218,13986
1659432072.947515,13981
1659432072.986811,14001
1659432073.026108,14014
1659432073.067626,14037
1659432073.109144,14055
1659432073.147757,14071
1659432073.186371,14084
1659432073.224984,14106
1659432073.269407,14100
1659432073.313829,14102
1659432073.358252,14121
1659432073.399257,14130
1659432073.440262,14141
1659432073.479217,14141
1659432073.518173,14088
1659432073.557128,13898
1659432073.598645,13799
1659432073.640163,13777
1659432073.679119,13778
1659432073.718074,13823
1659432073.757029,13888
1659432073.795642,13924
1659432073.834255,13933
1659432073.872869,13944
1659432073.914899,13966
1659432073.95693,13989
1659432073.995885,14007
1659432074.03484,14021
1659432074.073795,14052
1659432074.112409,14069
1659432074.151022,14086
1659432074.189635,14102
1659432074.231153,14122
1659432074.272671,14135
1659432074.310601,14154
1659432074.348531,14176
1659432074.386461,14195
1659432074.428492,14216
1659432074.470522,14223
1659432074.509135,14223
1659432074.547749,14237
1659432074.586362,14249
1659432074.62788,14266
1659432074.669398,14281
1659432074.708012,14282
1659432074.746625,14291
1659432074.785238,14295
1659432074.827781,14302
1659432074.870324,14296
1659432074.914747,14295
1659432074.959169,14307
1659432075.003592,14319
1659432075.041863,14315
1659432075.080135,14308
1659432075.118407,14309
1659432075.160437,14312
1659432075.202468,14332
1659432075.239373,14324
1659432075.276278,14336
1659432075.313182,14342
1659432075.350087,14329
1659432075.389042,14289
1659432075.427997,14227
1659432075.466953,14210
1659432075.511375,14189
1659432075.555798,14198
1659432075.60022,14209
1659432075.641738,14216
1659432075.683256,14228
1659432075.722894,14225
1659432075.762533,14233
1659432075.802171,14243
1659432075.844202,14256
1659432075.886232,14272
1659432075.924846,14274
1659432075.963459,14281
1659432076.002073,14280
1659432076.041369,14290
1659432076.080666,14300
1659432076.119963,14314
1659432076.162506,14311
1659432076.205049,14322
1659432076.243321,14316
1659432076.281592,14267
1659432076.319864,14202
1659432076.360357,14174
1659432076.40085,14176
1659432076.439805,14173
1659432076.47876,14200
1659432076.517715,14199
1659432076.556328,14201
1659432076.594942,14210
1659432076.633555,14207
1659432076.675586,14209
1659432076.717616,14224
1659432076.756571,14236
1659432076.795526,14248
1659432076.834481,14264
1659432076.876512,14264
1659432076.918542,14280
1659432076.962623,14284
1659432077.006704,14289
1659432077.050785,14298
1659432077.084614,14305
1659432077.118443,14318
1659432077.162866,14264
1659432077.207289,14160
1659432077.251711,14088
1659432077.285028,14070
1659432077.318345,14058
1659432077.362426,14065
1659432077.406506,14094
1659432077.450587,14116
1659432077.4892,14096
1659432077.527814,14119
1659432077.566427,14122
1659432077.607945,14132
1659432077.649463,14156
1659432077.687735,14172
1659432077.726007,14182
1659432077.764278,14186
1659432077.805284,14191
1659432077.846289,14199
1659432077.885244,14205
1659432077.924199,14213
1659432077.963154,14215
1659432078.001767,14234
1659432078.040381,14213
1659432078.078994,14119
1659432078.12205,13990
1659432078.165106,13935
1659432078.203719,13915
1659432078.242332,13913
1659432078.280946,13944
1659432078.322464,13967
1659432078.363981,13972
1659432078.403278,13971
1659432078.442575,13986
1659432078.481872,13993
1659432078.523902,14003
1659432078.565933,14012
1659432078.603863,14011
1659432078.641793,14003
1659432078.679723,14004
1659432078.724829,13995
1659432078.769935,14001
1659432078.815041,13970
1659432078.847332,13938
1659432078.879624,13898
1659432078.924047,13833
1659432078.968469,13649
1659432079.012892,13378
1659432079.047234,13166
1659432079.081575,13018
1659432079.12634,12893
1659432079.171104,12785
1659432079.215868,12725
1659432079.25414,12657
1659432079.292411,12578
1659432079.330683,12495
1659432079.373226,12432
1659432079.415769,12398
1659432079.454724,12367
1659432079.493679,12341
1659432079.532634,12308
1659432079.571248,12283
1659432079.609861,12253
1659432079.648475,12223
1659432079.68948,12216
1659432079.730485,12210
1659432079.769099,12203
1659432079.807712,12182
1659432079.846326,12093
1659432079.887843,11838
1659432079.929361,11532
1659432079.968317,11304
1659432080.007272,11165
1659432080.046227,11077
1659432080.087745,11042
1659432080.129262,11037
1659432080.167876,10992
1659432080.206489,10968
1659432080.245103,10955
1659432080.287133,10962
1659432080.329164,10991
1659432080.368119,11007
1659432080.407074,11022
1659432080.446029,11040
1659432080.48929,11052
1659432080.53255,11065
1659432080.575811,11077
1659432080.619072,11083
1659432080.662332,11098
1659432080.696162,11090
1659432080.729991,10984
1659432080.77373,10693
1659432080.817469,10375
1659432080.861208,10158
1659432080.89948,10007
1659432080.937752,9899
1659432080.976023,9846
1659432081.017541,9816
1659432081.059059,9771
1659432081.096989,9723
1659432081.134919,9684
1659432081.172849,9681
1659432081.211804,9697
1659432081.250759,9707
1659432081.289714,9713
1659432081.332258,9723
1659432081.3748,9724
1659432081.413756,9723
1659432081.452711,9740
1659432081.491666,9751
1659432081.532671,9774
1659432081.573677,9811
1659432081.612973,9769
1659432081.65227,9561
1659432081.691567,9280
1659432081.733598,9063
1659432081.775628,8905
1659432081.814241,8832
1659432081.852855,8797
1659432081.891468,8827
1659432081.932986,8829
1659432081.974504,8822
1659432082.013459,8819
1659432082.052414,8849
1659432082.091369,8878
1659432082.132887,8921
1659432082.174405,8960
1659432082.213019,8987
1659432082.251632,9039
1659432082.290245,9063
1659432082.33501,9106
1659432082.379774,9157
1659432082.424538,9223
1659432082.457855,9282
1659432082.491172,9307
1659432082.535594,9183
1659432082.580017,8949
1659432082.624439,8766
1659432082.666982,8652
1659432082.709525,8579
1659432082.748139,8565
1659432082.786752,8594
1659432082.825365,8604
1659432082.863979,8592
1659432082.902592,8585
1659432082.941206,8596
1659432082.982723,8619
1659432083.024241,8641
1659432083.062855,8666
1659432083.101468,8672
1659432083.140082,8676
1659432083.179037,8679
1659432083.217992,8685
1659432083.256947,8694
1659432083.298977,8723
1659432083.341008,8731
1659432083.379621,8680
1659432083.418235,8465
1659432083.456848,8122
1659432083.497853,7842
1659432083.538859,7655
1659432083.578839,7526
1659432083.618819,7463
1659432083.658799,7442
1659432083.699805,7386
1659432083.74081,7344
1659432083.779082,7324
1659432083.817353,7359
1659432083.855625,7409
1659432083.897143,7504
1659432083.938661,7599
1659432083.977958,7712
1659432084.017255,7880
1659432084.056551,8136
1659432084.100291,8466
1659432084.14403,8753
1659432084.187769,8982
1659432084.229286,9166
1659432084.270804,9281
1659432084.30976,9293
1659432084.348715,9321
1659432084.38767,9377
1659432084.428163,9421
1659432084.468655,9481
1659432084.508294,9555
1659432084.547932,9627
1659432084.587571,9699
1659432084.626526,9774
1659432084.665481,9868
1659432084.704436,9989
1659432084.745442,10113
1659432084.786447,10262
1659432084.826086,10391
1659432084.865724,10498
1659432084.905363,10585
1659432084.947393,10644
1659432084.989424,10684
1659432085.028037,10718
1659432085.06665,10757
1659432085.105264,10785
1659432085.144219,10817
1659432085.183174,10822
1659432085.222129,10835
1659432085.263134,10868
1659432085.30414,10922
1659432085.342411,10979
1659432085.380683,11040
1659432085.418955,11079
1659432085.460985,11123
1659432085.503016,11163
1659432085.54778,11197
1659432085.592544,11219
1659432085.637308,11243
1659432085.670113,11265
1659432085.702917,11280
1659432085.743307,11315
1659432085.783697,11349
1659432085.824088,11369
1659432085.864478,11395
1659432085.904868,11419
1659432085.949291,11460
1659432085.993713,11478
1659432086.038136,11492
1659432086.071453,11465
1659432086.104769,11462
1659432086.149192,11463
1659432086.193614,11494
1659432086.238037,11531
1659432086.276309,11552
1659432086.31458,11592
1659432086.352852,11613
1659432086.391465,11638
1659432086.430079,11669
1659432086.468692,11691
1659432086.511235,11718
1659432086.553778,11753
1659432086.59205,11784
1659432086.630322,11814
1659432086.668593,11848
1659432086.709599,11863
1659432086.750604,11896
1659432086.789559,11915
1659432086.828514,11931
1659432086.867469,11945
1659432086.908987,11950
1659432086.950505,11955
1659432086.98946,11961
1659432087.028415,11975
1659432087.06737,11981
1659432087.108888,12009
1659432087.150406,12015
1659432087.189703,12034
1659432087.229,12044
1659432087.268297,12065
1659432087.312036,12072
1659432087.355775,12094
1659432087.399514,12096
1659432087.433343,12108
1659432087.467173,12110
1659432087.511595,12106
1659432087.556018,12117
1659432087.60044,12125
1659432087.641446,12112
1659432087.682451,12016
1659432087.721064,11815
1659432087.759678,11676
1659432087.798291,11621
1659432087.837929,11580
1659432087.877568,11603
1659432087.917207,11625
1659432087.958724,11603
1659432088.000242,11564
1659432088.038856,11561
1659432088.077469,11582
1659432088.116083,11611
1659432088.155721,11673
1659432088.19536,11726
1659432088.234998,11790
1659432088.276516,11838
1659432088.318034,11881
1659432088.356647,11920
1659432088.395261,11960
1659432088.433874,11988
1659432088.475905,11942
1659432088.517935,11737
1659432088.556207,11626
1659432088.594479,11636
1659432088.63275,11649
1659432088.674268,11708
1659432088.715786,11805
1659432088.755083,11883
1659432088.79438,11925
1659432088.833677,11974
1659432088.874682,12002
1659432088.915687,12035
1659432088.96011,12071
1659432089.004532,12103
1659432089.048955,12129
1659432089.088252,12146
1659432089.127548,12174
1659432089.166845,12188
1659432089.208876,12213
1659432089.250906,12245
1659432089.289178,12254
1659432089.32745,12216
1659432089.365721,12053
1659432089.40536,12034
1659432089.444998,12090
1659432089.484637,12189
1659432089.52513,12280
1659432089.565622,12366
1659432089.603552,12433
1659432089.641482,12514
1659432089.679412,12572
1659432089.718367,12620
1659432089.757322,12646
1659432089.796278,12663
1659432089.838308,12660
1659432089.880338,12658
1659432089.91861,12657
1659432089.956882,12658
1659432089.995153,12670
1659432090.036671,12679
1659432090.078189,12692
1659432090.117145,12682
1659432090.1561,12678
1659432090.195055,12665
1659432090.236573,12671
1659432090.27809,12684
1659432090.317046,12696
1659432090.356001,12709
1659432090.394956,12727
1659432090.436986,12742
1659432090.479017,12745
1659432090.522756,12750
1659432090.566495,12758
1659432090.610234,12762
1659432090.649189,12775
1659432090.688144,12786
1659432090.727099,12797
1659432090.76913,12805
1659432090.81116,12820
1659432090.849432,12830
1659432090.887704,12836
1659432090.925975,12849
1659432090.964589,12823
1659432091.003202,12763
1659432091.041816,12744
1659432091.080429,12743
1659432091.119042,12761
1659432091.157656,12770
1659432091.199686,12772
1659432091.241717,12794
1659432091.280672,12792
1659432091.319627,12806
1659432091.358582,12819
1659432091.400612,12832
1659432091.442643,12837
1659432091.481598,12859
1659432091.520553,12861
1659432091.559508,12871
1659432091.604272,12893
1659432091.649037,12895
1659432091.693801,12909
1659432091.72763,12915
1659432091.76146,12929
1659432091.80554,12889
1659432091.849621,12811
1659432091.893702,12795
1659432091.934707,12813
1659432091.975713,12847
1659432092.014668,12869
1659432092.053623,12884
1659432092.092578,12900
1659432092.131191,12904
1659432092.169805,12916
1659432092.208418,12933
1659432092.250449,12937
1659432092.292479,12965
1659432092.331776,12971
1659432092.371073,12977
1659432092.41037,12981
1659432092.451887,12993
1659432092.493405,12999
1659432092.532019,13010
1659432092.570632,13016
1659432092.609246,13025
1659432092.648542,13020
1659432092.687839,12931
1659432092.727136,12866
1659432092.768654,12887
1659432092.810172,12905
1659432092.848102,12938
1659432092.886032,12962
1659432092.923962,12985
1659432092.964967,12990
1659432093.005972,13003
1659432093.044928,13009
1659432093.083883,13028
1659432093.122838,13032
1659432093.164356,13040
1659432093.205874,13056
1659432093.249954,13066
1659432093.294035,13083
1659432093.338116,13078
1659432093.377413,13092
1659432093.41671,13097
1659432093.456006,13115
1659432093.497012,13072
1659432093.538017,12965
1659432093.576972,12929
1659432093.615927,12944
1659432093.654882,12970
1659432093.697425,12997
1659432093.739969,13020
1659432093.778582,13021
1659432093.817195,13031
1659432093.855809,13032
1659432093.894764,13046
1659432093.933719,13052
1659432093.972674,13064
1659432094.014192,13075
1659432094.05571,13092
1659432094.094323,13102
1659432094.132937,13108
1659432094.17155,13114
1659432094.210505,13129
1659432094.24946,13143
1659432094.288415,13133
1659432094.329933,13089
1659432094.371451,12897
1659432094.409381,12837
1659432094.447311,12863
1659432094.485241,12905
1659432094.527784,12954
1659432094.570327,12995
1659432094.612358,13013
1659432094.654388,13007
1659432094.693343,13017
1659432094.732298,13027
1659432094.771253,13048
1659432094.815676,13058
1659432094.860098,13080
1659432094.904521,13092
1659432094.938863,13091
1659432094.973205,13109
1659432095.017969,13116
1659432095.062733,13133
1659432095.107497,13140
1659432095.139789,13139
1659432095.172081,13145
1659432095.216845,13056
1659432095.261609,12888
1659432095.306374,12872
1659432095.344645,12911
1659432095.382917,12946
1659432095.421189,13000
1659432095.462706,13020
1659432095.504224,13043
1659432095.54318,13041
1659432095.582134,13054
1659432095.62109,13070
1659432095.659703,13085
1659432095.698316,13102
1659432095.73693,13115
1659432095.778448,13137
1659432095.819966,13139
1659432095.858921,13151
1659432095.897876,13163
1659432095.936831,13169
1659432095.978862,13172
1659432096.020892,13189
1659432096.059505,13193
1659432096.098119,13157
1659432096.136732,13035
1659432096.177737,13001
1659432096.218743,13038
1659432096.258723,13065
1659432096.298703,13101
1659432096.338684,13109
1659432096.378664,13116
1659432096.418644,13127
1659432096.457258,13156
1659432096.495871,13150
1659432096.534484,13164
1659432096.57549,13184
1659432096.616495,13196
1659432096.655792,13206
1659432096.695089,13217
1659432096.734385,13220
1659432096.778466,13223
1659432096.822547,13244
1659432096.866628,13254
1659432096.908658,13262
1659432096.950689,13255
1659432096.989302,13203
1659432097.027915,13140
1659432097.066529,13147
1659432097.107534,13163
1659432097.14854,13186
1659432097.187836,13202
1659432097.227133,13206
1659432097.26643,13206
1659432097.305385,13217
1659432097.34434,13222
1659432097.383295,13250
1659432097.424813,13256
1659432097.466331,13258
1659432097.505286,13271
1659432097.544241,13266
1659432097.583196,13278
1659432097.624714,13284
1659432097.666232,13294
1659432097.704846,13298
1659432097.743459,13308
1659432097.782073,13299
1659432097.821711,13246
1659432097.86135,13116
1659432097.900988,13075
1659432097.943018,13109
1659432097.985049,13146
1659432098.023321,13183
1659432098.061592,13205
1659432098.099864,13219
1659432098.141895,13223
1659432098.183925,13236
1659432098.228689,13245
1659432098.273453,13259
1659432098.318218,13273
1659432098.351534,13293
1659432098.384851,13308
1659432098.428932,13325
1659432098.473013,13332
1659432098.517094,13348
1659432098.549898,13364
1659432098.582702,13377
1659432098.626441,13392
1659432098.67018,13402
1659432098.713919,13391
1659432098.752874,13349
1659432098.79183,13347
1659432098.830785,13341
1659432098.872815,13350
1659432098.914846,13372
1659432098.953459,13380
1659432098.992072,13385
1659432099.030686,13390
1659432099.069641,13397
1659432099.108596,13407
1659432099.147551,13415
1659432099.190094,13413
1659432099.232637,13421
1659432099.270909,13409
1659432099.30918,13400
1659432099.347452,13393
1659432099.386407,13396
1659432099.425362,13401
1659432099.464318,13413
1659432099.505323,13422
1659432099.546328,13430
1659432099.590409,13444
1659432099.63449,13415
1659432099.678571,13365
1659432099.717184,13331
1659432099.755797,13329
1659432099.794411,13315
1659432099.836954,13326
1659432099.879497,13325
1659432099.917427,13325
1659432099.955357,13329
1659432099.993287,13329
1659432100.034292,13347
1659432100.075298,13350
1659432100.114936,13361
1659432100.154575,13374
1659432100.194213,13401
1659432100.232485,13411
1659432100.270756,13422
1659432100.309028,13432
1659432100.351571,13439
1659432100.394114,13447
1659432100.433411,13433
1659432100.472708,13422
1659432100.512005,13393
1659432100.553523,13336
1659432100.595041,13311
1659432100.633654,13308
1659432100.672267,13332
1659432100.710881,13355
1659432100.750519,13398
1659432100.790158,13404
1659432100.829796,13412
1659432100.870802,13439
1659432100.911807,13447
1659432100.95042,13451
1659432100.989034,13469
1659432101.027647,13487
1659432101.069165,13503
1659432101.110683,13513
1659432101.155105,13513
1659432101.199528,13533
1659432101.24395,13526
1659432101.277267,13529
1659432101.310584,13528
1659432101.355348,13531
1659432101.400113,13492
1659432101.444877,13478
1659432101.483832,13465
1659432101.522787,13455
1659432101.561742,13444
1659432101.600697,13411
1659432101.639652,13354
1659432101.678607,13275
1659432101.717221,13192
1659432101.755834,13144
1659432101.794447,13142
1659432101.836991,13134
1659432101.879534,13127
1659432101.917805,13112
1659432101.956077,13087
1659432101.994349,13075
1659432102.035354,13087
1659432102.076359,13118
1659432102.115314,13122
1659432102.154269,13070
1659432102.193225,12970
1659432102.237305,12952
1659432102.281386,13045
1659432102.325467,13171
1659432102.358784,13281
1659432102.392101,13344
1659432102.436865,13388
1659432102.481629,13439
1659432102.526393,13491
1659432102.567399,13513
1659432102.608404,13570
1659432102.647017,13657
1659432102.685631,13719
1659432102.724244,13751
1659432102.763199,13770
1659432102.802154,13799
1659432102.84111,13764
1659432102.879723,13775
1659432102.918336,13791
1659432102.956949,13822
1659432102.997955,13798
1659432103.03896,13778
1659432103.078257,13801
1659432103.117554,13811
1659432103.156851,13812
1659432103.197344,13805
1659432103.237836,13780
1659432103.277475,13759
1659432103.317113,13746
1659432103.356752,13720
1659432103.398782,13724
1659432103.440813,13705
1659432103.479426,13725
1659432103.51804,13741
1659432103.556653,13744
1659432103.597658,13737
1659432103.638664,13737
1659432103.678644,13747
1659432103.718624,13757
1659432103.758605,13749
1659432103.800122,13700
1659432103.84164,13687
1659432103.886063,13708
1659432103.930485,13737
1659432103.974908,13761
1659432104.014205,13789
1659432104.053501,13821
1659432104.092798,13850
1659432104.133804,13870
1659432104.174809,13892
1659432104.213422,13917
1659432104.252036,13942
1659432104.290649,13935
1659432104.329604,13943
1659432104.368559,13975
1659432104.407514,13971
1659432104.44852,13960
1659432104.489525,13938
1659432104.52848,13878
1659432104.567435,13833
1659432104.60639,13781
1659432104.648421,13754
1659432104.690451,13736
1659432104.729407,13744
1659432104.768362,13729
1659432104.807317,13750
1659432104.84593,13757
1659432104.884543,13771
1659432104.923157,13801
1659432104.965187,13849
1659432105.007218,13889
1659432105.04549,13910
1659432105.083761,13914
1659432105.122033,13910
1659432105.164063,13915
1659432105.206094,13900
1659432105.244707,13884
1659432105.283321,13885
1659432105.321934,13863
1659432105.362939,13843
1659432105.403945,13823
1659432105.447684,13823
1659432105.491423,13878
1659432105.535162,13906
1659432105.568991,13909
1659432105.602821,13903
1659432105.647585,13898
1659432105.692349,13888
1659432105.737113,13904
1659432105.775727,13904
1659432105.81434,13901
1659432105.852953,13897
1659432105.893959,13880
1659432105.934964,13870
1659432105.973919,13861
1659432106.012874,13868
1659432106.05183,13867
1659432106.090101,13826
1659432106.128373,13739
1659432106.166645,13692
1659432106.208675,13674
1659432106.250705,13676
1659432106.289319,13693
1659432106.327932,13759
1659432106.366546,13810
1659432106.408064,13862
1659432106.449582,13872
1659432106.487853,13871
1659432106.526125,13915
1659432106.564397,13976
1659432106.604377,13992
1659432106.644357,13996
1659432106.684337,13973
1659432106.727598,13896
1659432106.770859,13884
1659432106.814119,13869
1659432106.85738,13824
1659432106.90064,13755
1659432106.939596,13702
1659432106.978551,13692
1659432107.017506,13686
1659432107.059536,13696
1659432107.101567,13692
1659432107.140522,13689
1659432107.179477,13666
1659432107.218432,13640
1659432107.257729,13635
1659432107.297026,13636
1659432107.336323,13643
1659432107.377328,13636
1659432107.418333,13631
1659432107.456947,13628
1659432107.49556,13639
1659432107.534173,13635
1659432107.576204,13565
1659432107.618234,13342
1659432107.65719,13221
1659432107.696145,13167
1659432107.7351,13130
1659432107.77303,13130
1659432107.81096,13147
1659432107.84889,13160
1659432107.891433,13158
1659432107.933976,13154
1659432107.972931,13157
1659432108.011886,13159
1659432108.050841,13170
1659432108.092359,13190
1659432108.133877,13198
1659432108.178641,13196
1659432108.223405,13210
1659432108.26817,13233
1659432108.307466,13172
1659432108.346763,12930
1659432108.38606,12764
1659432108.426553,12680
1659432108.467046,12664
1659432108.505659,12690
1659432108.544272,12750
1659432108.582886,12802
1659432108.621499,12821
1659432108.660112,12829
1659432108.698726,12827
1659432108.740244,12845
1659432108.781762,12853
1659432108.820375,12870
1659432108.858989,12899
1659432108.897602,12929
1659432108.939632,12943
1659432108.981663,12963
1659432109.019935,12938
1659432109.058206,12711
1659432109.096478,12510
1659432109.136117,12403
1659432109.175755,12350
1659432109.215394,12339
1659432109.256912,12375
1659432109.298429,12438
1659432109.337043,12469
1659432109.375656,12486
1659432109.414269,12491
1659432109.455787,12512
1659432109.497305,12539
1659432109.536944,12556
1659432109.576582,12580
1659432109.616221,12602
1659432109.656714,12627
1659432109.697206,12648
1659432109.741629,12628
1659432109.786052,12436
1659432109.830474,12188
1659432109.863791,12045
1659432109.897108,11970
1659432109.94153,11939
1659432109.985953,11956
1659432110.030375,12018
1659432110.069672,12040
1659432110.108969,12044
1659432110.148266,12059
1659432110.189784,12083
1659432110.231301,12120
1659432110.269915,12161
1659432110.308528,12201
1659432110.347142,12255
1659432110.389172,12298
1659432110.431203,12338
1659432110.470499,12382
1659432110.509796,12311
1659432110.549093,12148
1659432110.587706,12081
1659432110.62632,12120
1659432110.664933,12205
1659432110.705939,12367
1659432110.746944,12456
1659432110.785899,12511
1659432110.824854,12567
1659432110.863809,12590
1659432110.90584,12629
1659432110.94787,12661
1659432110.986484,12679
1659432111.025097,12699
1659432111.06371,12714
1659432111.104716,12718
1659432111.145721,12739
1659432111.185018,12751
1659432111.224315,12756
1659432111.263612,12712
1659432111.30513,12588
1659432111.346647,12565
1659432111.385602,12579
1659432111.424557,12621
1659432111.463513,12669
1659432111.507935,12723
1659432111.552358,12744
1659432111.59678,12758
1659432111.630097,12769
1659432111.663414,12779
1659432111.707153,12781
1659432111.750892,12803
1659432111.794631,12813
1659432111.832903,12822
1659432111.871174,12843
1659432111.909446,12852
1659432111.951477,12862
1659432111.993507,12843
1659432112.030924,12674
1659432112.068342,12561
1659432112.105759,12526
1659432112.143177,12511
1659432112.187599,12515
1659432112.232022,12570
1659432112.276444,12610
1659432112.309248,12635
1659432112.342053,12646
1659432112.386817,12674
1659432112.431581,12709
1659432112.476345,12731
1659432112.515642,12760
1659432112.554939,12799
1659432112.594236,12816
1659432112.635754,12830
1659432112.677271,12849
1659432112.716227,12849
1659432112.755182,12785
1659432112.794137,12638
1659432112.835655,12560
1659432112.877173,12521
1659432112.915444,12510
1659432112.953716,12513
1659432112.991988,12541
1659432113.030943,12575
1659432113.069898,12577
1659432113.108853,12593
1659432113.151396,12602
1659432113.193939,12619
1659432113.231869,12633
1659432113.269799,12657
1659432113.307729,12670
1659432113.349247,12702
1659432113.390765,12718
1659432113.430403,12736
1659432113.470042,12765
1659432113.50968,12722
1659432113.551198,12592
1659432113.592716,12500
1659432113.631671,12455
1659432113.670626,12439
1659432113.709582,12443
1659432113.751612,12465
1659432113.793643,12489
1659432113.837723,12505
1659432113.881804,12507
1659432113.925885,12526
1659432113.964157,12542
1659432114.002428,12584
1659432114.0407,12606
1659432114.083755,12640
1659432114.126811,12679
1659432114.165083,12704
1659432114.203355,12740
1659432114.241626,12763
1659432114.282119,12797
1659432114.322612,12756
1659432114.361909,12639
1659432114.401205,12573
1659432114.440502,12550
1659432114.478774,12550
1659432114.517045,12569
1659432114.555317,12606
1659432114.596835,12640
1659432114.638353,12658
1659432114.67765,12667
1659432114.716947,12685
1659432114.756243,12709
1659432114.794857,12729
1659432114.83347,12750
1659432114.872084,12783
1659432114.913602,12805
1659432114.95512,12819
1659432114.994416,12849
1659432115.033713,12862
1659432115.07301,12878
1659432115.114015,12896
1659432115.155021,12858
1659432115.193292,12714
1659432115.231564,12619
1659432115.269836,12559
1659432115.310841,12549
1659432115.351846,12549
1659432115.396269,12572
1659432115.440691,12623
1659432115.485114,12631
1659432115.524069,12641
1659432115.563024,12651
1659432115.601979,12670
1659432115.64401,12695
1659432115.68604,12736
1659432115.724995,12757
1659432115.76395,12782
1659432115.802906,12807
1659432115.843911,12826
1659432115.884916,12854
1659432115.924555,12866
1659432115.964193,12895
1659432116.003832,12904
1659432116.042445,12858
1659432116.081059,12690
1659432116.119672,12580
1659432116.160677,12540
1659432116.201683,12523
1659432116.240296,12537
1659432116.278909,12576
1659432116.317523,12599
1659432116.360066,12619
1659432116.402609,12635
1659432116.441222,12666
1659432116.479836,12698
1659432116.518449,12749
1659432116.557062,12777
1659432116.595676,12809
1659432116.634289,12828
1659432116.67632,12852
1659432116.71835,12883
1659432116.760381,12905
1659432116.802411,12922
1659432116.841366,12951
1659432116.880322,12970
1659432116.919276,12981
1659432116.964041,12951
1659432117.008805,12789
1659432117.053569,12715
1659432117.087399,12711
1659432117.121228,12726
1659432117.164967,12755
1659432117.208706,12809
1659432117.252445,12833
1659432117.290375,12836
1659432117.328305,12825
1659432117.366235,12843
1659432117.404165,12870
1659432117.447562,12887
1659432117.49096,12910
1659432117.534357,12932
1659432117.567674,12950
1659432117.600991,12958
1659432117.645072,12983
1659432117.689152,12999
1659432117.733233,13023
1659432117.771847,13042
1659432117.81046,13060
1659432117.849073,13057
1659432117.890591,12938
1659432117.932109,12763
1659432117.971064,12671
1659432118.010019,12641
1659432118.048974,12627
1659432118.091005,12658
1659432118.133035,12690
1659432118.171307,12711
1659432118.209579,12716
1659432118.24785,12734
1659432118.287489,12752
1659432118.327127,12793
1659432118.366766,12810
1659432118.407259,12844
1659432118.447752,12884
1659432118.486023,12905
1659432118.524295,12931
1659432118.562567,12957
1659432118.601522,12977
1659432118.640477,12999
1659432118.679432,13030
1659432118.721462,13035
1659432118.763493,13048
1659432118.803986,13062
1659432118.844478,12925
1659432118.884117,12780
1659432118.923755,12721
1659432118.963394,12715
1659432119.005424,12722
1659432119.047455,12769
1659432119.08641,12813
1659432119.125365,12830
1659432119.16432,12845
1659432119.209085,12857
1659432119.253849,12884
1659432119.298613,12911
1659432119.331417,12933
1659432119.364221,12968
1659432119.40796,12991
1659432119.451699,13018
1659432119.495439,13031
1659432119.529781,13060
1659432119.564123,13068
1659432119.608545,13088
1659432119.652967,13095
1659432119.69739,13108
1659432119.736003,13127
1659432119.774617,13127
1659432119.81323,13022
1659432119.854748,12890
1659432119.896266,12851
1659432119.935563,12844
1659432119.97486,12886
1659432120.014157,12923
1659432120.055674,12967
1659432120.097192,12982
1659432120.136489,12991
1659432120.175786,13001
1659432120.215083,13026
1659432120.254038,13054
1659432120.292993,13079
1659432120.331948,13091
1659432120.373466,13104
1659432120.414984,13132
1659432120.453939,13139
1659432120.492894,13154
1659432120.531849,13163
1659432120.57388,13182
1659432120.61591,13183
1659432120.654182,13200
1659432120.692454,13207
1659432120.730725,13196
1659432120.771731,13068
1659432120.812736,12955
1659432120.851691,12939
1659432120.890646,12956
1659432120.929601,12993
1659432120.971119,13037
1659432121.012637,13066
1659432121.056376,13064
1659432121.100115,13080
1659432121.143854,13089
1659432121.183151,13109
1659432121.222448,13131
1659432121.261745,13153
1659432121.30275,13173
1659432121.343755,13188
1659432121.383052,13197
1659432121.422349,13207
1659432121.461646,13222
1659432121.500601,13230
1659432121.539556,13238
1659432121.578511,13250
1659432121.620542,13259
1659432121.662572,13268
1659432121.700844,13218
1659432121.739115,13057
1659432121.777387,12986
1659432121.815659,12995
1659432121.85393,12999
1659432121.892202,13037
1659432121.934745,13089
1659432121.977288,13110
1659432122.015218,13116
1659432122.053148,13131
1659432122.091078,13151
1659432122.132084,13166
1659432122.173089,13185
1659432122.212728,13195
1659432122.252366,13216
1659432122.292005,13208
1659432122.333523,13215
1659432122.37504,13227
1659432122.419805,13239
1659432122.464569,13250
1659432122.509333,13258
1659432122.547263,13271
1659432122.585193,13277
1659432122.623123,13272
1659432122.661053,13124
1659432122.699666,12991
1659432122.73828,12962
1659432122.776893,12948
1659432122.818923,12949
1659432122.860954,12982
1659432122.899567,13037
1659432122.938181,13070
1659432122.976794,13089
1659432123.018312,13093
1659432123.05983,13121
1659432123.104594,13138
1659432123.149359,13162
1659432123.194123,13177
1659432123.232736,13201
1659432123.271349,13219
1659432123.309963,13219
1659432123.34738,13229
1659432123.384798,13238
1659432123.422215,13251
1659432123.459632,13257
1659432123.50115,13266
1659432123.542668,13285
1659432123.58094,13268
1659432123.619211,13139
1659432123.657483,13007
1659432123.699514,12959
1659432123.741544,12953
1659432123.785625,12970
1659432123.829706,13024
1659432123.873786,13077
1659432123.907103,13101
1659432123.94042,13134
1659432123.984159,13144
1659432124.027898,13161
1659432124.071637,13174
1659432124.110934,13180
1659432124.150231,13192
1659432124.189528,13205
1659432124.230021,13229
1659432124.270514,13246
1659432124.309469,13255
1659432124.348424,13258
1659432124.387379,13271
1659432124.428897,13274
1659432124.470415,13282
1659432124.509028,13287
1659432124.547641,13235
1659432124.586255,13132
1659432124.624868,13079
1659432124.663481,13074
1659432124.702095,13082
1659432124.744638,13098
1659432124.787181,13142
1659432124.825794,13174
1659432124.864408,13176
1659432124.903021,13169
1659432124.941635,13195
1659432124.980248,13200
1659432125.018861,13217
1659432125.060379,13230
1659432125.101897,13245
1659432125.140169,13249
1659432125.178441,13276
1659432125.216712,13283
1659432125.258743,13302
1659432125.300773,13314
1659432125.342291,13318
1659432125.383809,13335
1659432125.422422,13342
1659432125.461036,13291
1659432125.499649,13135
1659432125.544414,13049
1659432125.589178,13042
1659432125.633942,13061
1659432125.667771,13088
1659432125.701601,13142
1659432125.746706,13178
1659432125.791812,13188
1659432125.836918,13181
1659432125.869723,13193
1659432125.902527,13206
1659432125.947291,13215
1659432125.992055,13237
1659432126.036819,13252
1659432126.075433,13266
1659432126.114046,13278
1659432126.15266,13284
1659432126.19469,13296
1659432126.236721,13306
1659432126.274992,13311
1659432126.313264,13339
1659432126.351536,13348
1659432126.390491,13310
1659432126.429446,13155
1659432126.468401,13016
1659432126.509406,12981
1659432126.550412,12968
1659432126.589367,12980
1659432126.628322,13025
1659432126.667277,13087
1659432126.709307,13110
1659432126.751338,13112
1659432126.790635,13131
1659432126.829932,13153
1659432126.869228,13180
1659432126.910234,13199
1659432126.951239,13216
1659432126.990536,13233
1659432127.029833,13261
1659432127.06913,13273
1659432127.11116,13278
1659432127.153191,13295
1659432127.191121,13303
1659432127.229051,13327
1659432127.26698,13331
1659432127.311061,13331
1659432127.355142,13254
1659432127.399223,13061
1659432127.440741,12975
1659432127.482259,12961
1659432127.52053,12965
1659432127.558802,12999
1659432127.597074,13064
1659432127.638592,13085
1659432127.68011,13099
1659432127.718723,13112
1659432127.757336,13138
1659432127.79595,13173
1659432127.834563,13195
1659432127.873177,13216
1659432127.91179,13234
1659432127.951087,13255
1659432127.990384,13261
1659432128.02968,13270
1659432128.072223,13282
1659432128.114766,13285
1659432128.153038,13293
1659432128.19131,13305
1659432128.229581,13311
1659432128.272125,13242
1659432128.314668,13135
1659432128.353281,13088
1659432128.391894,13094
1659432128.430508,13112
1659432128.474589,13152
1659432128.518669,13189
1659432128.56275,13201
1659432128.59658,13208
1659432128.630409,13223
1659432128.675173,13236
1659432128.719937,13240
1659432128.764702,13265
1659432128.802631,13269
1659432128.840561,13277
1659432128.878491,13274
1659432128.920522,13293
1659432128.962552,13297
1659432129.001849,13300
1659432129.041146,13314
1659432129.080443,13320
1659432129.122473,13335
1659432129.164504,13312
1659432129.203459,13199
1659432129.242414,13076
1659432129.281369,13052
1659432129.322887,13058
1659432129.364405,13081
1659432129.402677,13111
1659432129.440948,13149
1659432129.47922,13180
1659432129.517833,13185
1659432129.556447,13207
1659432129.59506,13221
1659432129.637603,13243
1659432129.680146,13261
1659432129.718418,13280
1659432129.75669,13286
1659432129.794961,13297
1659432129.835967,13300
1659432129.876972,13309
1659432129.916269,13318
1659432129.955566,13321
1659432129.994863,13328
1659432130.03638,13342
1659432130.077898,13334
1659432130.116853,13226
1659432130.155808,13141
1659432130.194764,13116
1659432130.239186,13143
1659432130.283609,13159
1659432130.328031,13203
1659432130.369549,13238
1659432130.411067,13260
1659432130.44968,13259
1659432130.488294,13258
1659432130.526907,13269
1659432130.56945,13269
1659432130.611993,13300
1659432130.650265,13301
1659432130.688537,13307
1659432130.726808,13329
1659432130.76508,13325
1659432130.803352,13336
1659432130.841623,13347
1659432130.882629,13352
1659432130.923634,13357
1659432130.962589,13359
1659432131.001544,13286
1659432131.040499,13176
1659432131.079113,13137
1659432131.117726,13152
1659432131.156339,13165
1659432131.197857,13209
1659432131.239375,13247
1659432131.278672,13266
1659432131.317969,13264
1659432131.357266,13268
1659432131.399296,13294
1659432131.441327,13305
1659432131.47994,13306
1659432131.518553,13316
1659432131.557167,13335
1659432131.59971,13342
1659432131.642253,13348
1659432131.685992,13359
1659432131.729731,13365
1659432131.77347,13382
1659432131.8073,13379
1659432131.841129,13393
1659432131.885551,13373
1659432131.929974,13252
1659432131.974396,13152
1659432132.007713,13134
1659432132.04103,13142
1659432132.084769,13160
1659432132.128508,13209
1659432132.172247,13243
1659432132.211544,13267
1659432132.250841,13274
1659432132.290138,13279
1659432132.332168,13297
1659432132.374199,13306
1659432132.413154,13322
1659432132.452109,13342
1659432132.491064,13353
1659432132.532582,13354
1659432132.5741,13366
1659432132.613397,13369
1659432132.652694,13380
1659432132.69199,13393
1659432132.72992,13402
1659432132.76785,13405
1659432132.80578,13415
1659432132.848836,13314
1659432132.891891,13210
1659432132.930505,13164
1659432132.969118,13151
1659432133.007732,13155
1659432133.048993,13172
1659432133.090255,13209
1659432133.131517,13227
1659432133.172778,13246
1659432133.212075,13266
1659432133.251372,13284
1659432133.290669,13294
1659432133.331674,13313
1659432133.372679,13330
1659432133.411634,13337
1659432133.45059,13352
1659432133.489545,13356
1659432133.5285,13373
1659432133.567455,13367
1659432133.60641,13391
1659432133.647928,13387
1659432133.689446,13397
1659432133.730451,13337
1659432133.771457,13209
1659432133.810753,13135
1659432133.85005,13133
1659432133.889347,13123
1659432133.931378,13140
1659432133.973408,13179
1659432134.01168,13207
1659432134.049951,13227
1659432134.088223,13242
1659432134.132987,13253
1659432134.177752,13278
1659432134.222516,13294
1659432134.254807,13309
1659432134.287099,13332
1659432134.330838,13334
1659432134.374577,13341
1659432134.418316,13354
1659432134.457955,13352
1659432134.497593,13362
1659432134.537232,13379
1659432134.579262,13384
1659432134.621293,13377
1659432134.660248,13319
1659432134.699203,13212
1659432134.738158,13202
1659432134.780189,13205
1659432134.822219,13221
1659432134.861174,13254
1659432134.900129,13301
1659432134.939084,13317
1659432134.977356,13331
1659432135.015628,13335
1659432135.0539,13343
1659432135.096442,13362
1659432135.138986,13374
1659432135.177257,13382
1659432135.215529,13391
1659432135.253801,13405
1659432135.294806,13406
1659432135.335811,13416
1659432135.374425,13422
1659432135.413038,13429
1659432135.451652,13446
1659432135.494195,13450
1659432135.536738,13418
1659432135.575693,13301
1659432135.614648,13253
1659432135.653603,13253
1659432135.698367,13269
1659432135.743131,13300
1659432135.787895,13334
1659432135.821212,13358
1659432135.854529,13365
1659432135.898952,13366
1659432135.943374,13371
1659432135.987797,13383
1659432136.029827,13393
1659432136.071858,13398
1659432136.110813,13406
1659432136.149768,13418
1659432136.188723,13425
1659432136.226995,13430
1659432136.265266,13450
1659432136.303538,13442
1659432136.344543,13454
1659432136.385549,13457
1659432136.424845,13418
1659432136.464142,13304
1659432136.503439,13251
1659432136.544445,13236
1659432136.58545,13240
1659432136.624063,13256
1659432136.662677,13291
1659432136.70129,13325
1659432136.740587,13330
1659432136.779884,13335
1659432136.81918,13340
1659432136.860698,13351
1659432136.902216,13358
1659432136.940488,13384
1659432136.97876,13382
1659432137.017031,13388
1659432137.059062,13406
1659432137.101092,13417
1659432137.140389,13420
1659432137.179686,13423
1659432137.218983,13435
1659432137.260501,13435
1659432137.302019,13445
1659432137.346441,13404
1659432137.390864,13275
1659432137.435286,13209
1659432137.468603,13194
1659432137.50192,13194
1659432137.545659,13223
1659432137.589398,13268
1659432137.633137,13295
1659432137.67175,13311
1659432137.710364,13320
1659432137.748977,13340
1659432137.79152,13354
1659432137.834063,13359
1659432137.872677,13373
1659432137.91129,13385
1659432137.949903,13394
1659432137.9892,13404
1659432138.028497,13420
1659432138.067794,13429
1659432138.109824,13437
1659432138.151855,13443
1659432138.190126,13450
1659432138.228398,13458
1659432138.26667,13419
1659432138.30706,13324
1659432138.34745,13294
1659432138.387841,13297
1659432138.428231,13310
1659432138.468621,13349
1659432138.509114,13386
1659432138.549607,13406
1659432138.58822,13395
1659432138.626834,13401
1659432138.665447,13412
1659432138.70799,13424
1659432138.750533,13431
1659432138.788805,13440
1659432138.827076,13454
1659432138.865348,13453
1659432138.906866,13472
1659432138.948384,13469
1659432138.987681,13477
1659432139.026978,13490
1659432139.066274,13487
1659432139.110697,13482
1659432139.155119,13428
1659432139.199542,13336
1659432139.232859,13299
1659432139.266176,13311
1659432139.311281,13312
1659432139.356387,13327
1659432139.401493,13368
1659432139.441986,13372
1659432139.482479,13369
1659432139.520409,13367
1659432139.558339,13381
1659432139.596269,13395
1659432139.635224,13411
1659432139.674179,13420
1659432139.713134,13437
1659432139.755165,13445
1659432139.797195,13454
1659432139.835467,13464
1659432139.873739,13472
1659432139.91201,13488
1659432139.950965,13501
1659432139.98992,13480
1659432140.028875,13368
1659432140.070393,13305
1659432140.111911,13291
1659432140.150866,13295
1659432140.189821,13307
1659432140.228776,13343
1659432140.270294,13368
1659432140.311812,13382
1659432140.350768,13395
1659432140.389723,13400
1659432140.428678,13416
1659432140.469683,13425
1659432140.510689,13439
1659432140.549985,13448
1659432140.589282,13451
1659432140.628579,13453
1659432140.669584,13466
1659432140.71059,13476
1659432140.749545,13478
1659432140.7885,13498
1659432140.827455,13497
1659432140.871536,13446
1659432140.915617,13325
1659432140.959697,13273
1659432141.000703,13263
1659432141.041708,13269
1659432141.080663,13293
1659432141.119618,13330
1659432141.158573,13368
1659432141.197528,13364
1659432141.236483,13384
1659432141.275439,13384
1659432141.317469,13391
1659432141.359499,13401
1659432141.398455,13413
1659432141.43741,13424
1659432141.476365,13428
1659432141.518395,13446
1659432141.560426,13452
1659432141.599723,13464
1659432141.639019,13473
1659432141.678316,13479
1659432141.71693,13455
1659432141.755543,13327
1659432141.794156,13214
1659432141.835162,13200
1659432141.876167,13210
1659432141.915122,13247
1659432141.954077,13293
1659432141.993032,13326
1659432142.035575,13352
1659432142.078119,13352
1659432142.116049,13375
1659432142.153979,13398
1659432142.191908,13404
1659432142.233939,13413
1659432142.27597,13435
1659432142.320734,13442
1659432142.365498,13454
1659432142.410262,13469
1659432142.443579,13473
1659432142.476896,13491
1659432142.521318,13488
1659432142.565741,13489
1659432142.610163,13406
1659432142.64348,13310
1659432142.676797,13288
1659432142.720536,13293
1659432142.764275,13322
1659432142.808014,13360
1659432142.846286,13401
1659432142.884557,13417
1659432142.922829,13413
1659432142.965372,13431
1659432143.007915,13440
1659432143.046187,13469
1659432143.084459,13472
1659432143.12273,13480
1659432143.161344,13486
1659432143.199957,13507
1659432143.23857,13510
1659432143.277525,13520
1659432143.316481,13527
1659432143.355436,13546
1659432143.396441,13541
1659432143.437446,13500
1659432143.477085,13413
1659432143.516723,13396
1659432143.556362,13419
1659432143.59788,13432
1659432143.639398,13471
1659432143.680916,13494
1659432143.722434,13499
1659432143.764464,13499
1659432143.806495,13509
1659432143.848525,13525
1659432143.890556,13540
1659432143.932074,13541
1659432143.973592,13547
1659432144.012205,13559
1659432144.050818,13561
1659432144.089432,13567
1659432144.130437,13572
1659432144.171443,13584
1659432144.210739,13587
1659432144.250036,13590
1659432144.289333,13495
1659432144.327263,13447
1659432144.365193,13444
1659432144.403123,13445
1659432144.445666,13460
1659432144.488209,13502
1659432144.527506,13516
1659432144.566803,13519
1659432144.606099,13533
1659432144.647617,13537
1659432144.689135,13556
1659432144.72809,13558
1659432144.767045,13569
1659432144.806,13573
1659432144.845297,13578
1659432144.884594,13584
1659432144.923891,13598
1659432144.965921,13597
1659432145.007952,13603
1659432145.048957,13614
1659432145.089963,13582
1659432145.128918,13498
1659432145.167873,13459
1659432145.206828,13465
1659432145.250909,13478
1659432145.29499,13506
1659432145.33907,13535
1659432145.372387,13550
1659432145.405704,13560
1659432145.450126,13564
1659432145.494549,13585
1659432145.538971,13593
1659432145.577585,13594
1659432145.616198,13598
1659432145.654812,13606
1659432145.69633,13611
1659432145.737847,13612
1659432145.776803,13625
1659432145.815758,13629
1659432145.854713,13640
1659432145.893668,13639
1659432145.932623,13552
1659432145.971578,13440
1659432146.013096,13388
1659432146.054614,13385
1659432146.093227,13393
1659432146.131841,13428
1659432146.170454,13471
1659432146.211459,13497
1659432146.252465,13495
1659432146.291078,13491
1659432146.329692,13510
1659432146.368305,13528
1659432146.407602,13528
1659432146.446898,13549
1659432146.486195,13555
1659432146.527713,13579
1659432146.569231,13578
1659432146.610749,13571
1659432146.652267,13591
1659432146.690539,13597
1659432146.72881,13591
1659432146.767082,13484
1659432146.811505,13402
1659432146.855927,13371
1659432146.90035,13395
1659432146.934179,13405
1659432146.968008,13451
1659432147.012089,13492
1659432147.05617,13508
1659432147.100251,13514
1659432147.13408,13524
1659432147.16791,13542
1659432147.212332,13545
1659432147.256754,13564
1659432147.301177,13577
1659432147.340132,13586
1659432147.379087,13601
1659432147.418042,13604
1659432147.45956,13607
1659432147.501078,13623
1659432147.540033,13621
1659432147.578988,13630
1659432147.617944,13580
1659432147.656215,13450
1659432147.694487,13396
1659432147.732759,13380
1659432147.775814,13375
1659432147.81887,13393
1659432147.857825,13430
1659432147.89678,13457
1659432147.935735,13462
1659432147.97674,13469
1659432148.017746,13481
1659432148.057384,13504
1659432148.097023,13518
1659432148.136661,13530
1659432148.178692,13543
1659432148.220722,13552
1659432148.258994,13565
1659432148.297266,13583
1659432148.335537,13588
1659432148.377055,13600
1659432148.418573,13617
1659432148.456845,13618
1659432148.495116,13542
1659432148.533388,13400
1659432148.577127,13334
1659432148.620866,13324
1659432148.664605,13319
1659432148.706636,13346
1659432148.748666,13392
1659432148.78728,13430
1659432148.825893,13432
1659432148.864506,13444
1659432148.90312,13457
1659432148.941733,13480
1659432148.980347,13505
1659432149.019644,13519
1659432149.05894,13523
1659432149.098237,13537
1659432149.139755,13558
1659432149.181273,13560
1659432149.219886,13582
1659432149.2585,13583
1659432149.297113,13589
1659432149.339144,13608
1659432149.381174,13614
1659432149.419788,13535
1659432149.458401,13427
1659432149.497014,13387
1659432149.540753,13376
1659432149.584492,13389
1659432149.628232,13421
1659432149.661036,13463
1659432149.69384,13502
1659432149.738263,13501
1659432149.782685,13510
1659432149.827107,13525
1659432149.860424,13541
1659432149.893741,13556
1659432149.938164,13570
1659432149.982586,13585
1659432150.027009,13588
1659432150.065964,13605
1659432150.104919,13609
1659432150.143874,13632
1659432150.184879,13634
1659432150.225885,13634
1659432150.265523,13647
1659432150.305162,13658
1659432150.3448,13629
1659432150.386831,13531
1659432150.428861,13488
1659432150.467816,13479
1659432150.506771,13505
1659432150.545727,13523
1659432150.58434,13566
1659432150.622953,13596
1659432150.661567,13600
1659432150.70411,13603
1659432150.746653,13620
1659432150.785266,13630
1659432150.823879,13654
1659432150.862493,13654
1659432150.903498,13660
1659432150.944504,13678
1659432150.983459,13687
1659432151.022414,13692
1659432151.061369,13694
1659432151.1034,13706
1659432151.14543,13708
1659432151.184043,13719
1659432151.222657,13717
1659432151.26127,13649
1659432151.306034,13572
1659432151.350799,13554
1659432151.395563,13560
1659432151.429392,13578
1659432151.463222,13613
1659432151.507302,13642
1659432151.551383,13656
1659432151.595464,13665
1659432151.634077,13672
1659432151.672691,13699
1659432151.711304,13701
1659432151.753847,13706
1659432151.79639,13713
1659432151.834662,13719
1659432151.872934,13727
1659432151.911205,13739
1659432151.95016,13748
1659432151.989115,13768
1659432152.02807,13769
1659432152.069076,13771
1659432152.110081,13779
1659432152.148353,13772
1659432152.186625,13738
1659432152.224896,13660
1659432152.266927,13631
1659432152.308957,13634
1659432152.348254,13637
1659432152.387551,13658
1659432152.426848,13682
1659432152.467853,13698
1659432152.508858,13701
1659432152.547813,13703
1659432152.586769,13718
1659432152.625724,13730
1659432152.667754,13736
1659432152.709785,13746
1659432152.747715,13750
1659432152.785645,13765
1659432152.823575,13750
1659432152.867655,13744
1659432152.911736,13751
1659432152.955817,13761
1659432152.997847,13767
1659432153.039878,13775
1659432153.07815,13767
1659432153.116421,13689
1659432153.154693,13589
1659432153.196723,13532
1659432153.238754,13524
1659432153.278392,13525
1659432153.318031,13535
1659432153.35767,13572
1659432153.396283,13593
1659432153.434896,13598
1659432153.47351,13609
1659432153.514515,13640
1659432153.55552,13635
1659432153.595501,13662
1659432153.635481,13679
1659432153.675461,13684
1659432153.716979,13689
1659432153.758497,13705
1659432153.797452,13715
1659432153.836407,13732
1659432153.875362,13736
1659432153.914317,13740
1659432153.953272,13767
1659432153.992228,13774
1659432154.032003,13756
1659432154.071778,13638
1659432154.111553,13555
1659432154.151328,13521
1659432154.191103,13538
1659432154.235526,13540
1659432154.279948,13569
1659432154.324371,13625
1659432154.365376,13644
1659432154.406382,13658
1659432154.445337,13664
1659432154.484292,13682
1659432154.523247,13692
1659432154.562202,13713
1659432154.601157,13732
1659432154.640112,13743
1659432154.682143,13761
1659432154.724173,13770
1659432154.762787,13786
1659432154.8014,13792
1659432154.840014,13797
1659432154.882044,13804
1659432154.924074,13833
1659432154.962346,13834
1659432155.000618,13796
1659432155.038889,13744
1659432155.077503,13754
1659432155.116116,13787
1659432155.15473,13805
1659432155.19676,13827
1659432155.238791,13844
1659432155.277404,13857
1659432155.316017,13859
1659432155.354631,13872
1659432155.395123,13874
1659432155.435616,13891
1659432155.474571,13892
1659432155.513527,13901
1659432155.552482,13909
1659432155.594512,13925
1659432155.636543,13926
1659432155.675498,13928
1659432155.714453,13943
1659432155.753408,13943
1659432155.794413,13961
1659432155.835419,13964
1659432155.879841,13962
1659432155.924264,13943
1659432155.968686,13858
1659432156.006958,13818
1659432156.045229,13824
1659432156.083501,13843
1659432156.122798,13859
1659432156.162095,13911
1659432156.201391,13915
1659432156.242397,13924
1659432156.283402,13938
1659432156.322357,13939
1659432156.361312,13944
1659432156.400268,13949
1659432156.438539,13948
1659432156.476811,13959
1659432156.515083,13968
1659432156.558138,13975
1659432156.601194,13989
1659432156.639807,13988
1659432156.678421,13994
1659432156.717034,13995
1659432156.758552,14002
1659432156.80007,14006
1659432156.839708,14001
1659432156.879347,13931
1659432156.918985,13893
1659432156.961016,13876
1659432157.003047,13880
1659432157.041318,13885
1659432157.07959,13902
1659432157.117862,13912
1659432157.160404,13904
1659432157.202948,13921
1659432157.247028,13933
1659432157.291109,13949
1659432157.33519,13974
1659432157.368507,13979
1659432157.401824,13981
1659432157.446246,13999
1659432157.490669,13992
1659432157.535091,13997
1659432157.574046,14001
1659432157.613001,14011
1659432157.651956,14012
1659432157.692449,14024
1659432157.732942,14023
1659432157.772239,14033
1659432157.811536,14005
1659432157.850832,13906
1659432157.889446,13847
1659432157.928059,13824
1659432157.966673,13814
1659432158.00819,13832
1659432158.049708,13864
1659432158.089005,13895
1659432158.128302,13913
1659432158.167599,13906
1659432158.209629,13918
1659432158.25166,13935
1659432158.28959,13933
1659432158.32752,13943
1659432158.36545,13958
1659432158.404405,13967
1659432158.44336,13964
1659432158.482315,13981
1659432158.524346,13983
1659432158.566376,13995
1659432158.606869,14002
1659432158.647362,14004
1659432158.685633,14015
1659432158.723905,14023
1659432158.762177,14016
1659432158.807282,13923
1659432158.852388,13831
1659432158.897494,13799
1659432158.930299,13795
1659432158.963103,13802
1659432159.007867,13838
1659432159.052631,13879
1659432159.097395,13892
1659432159.130712,13901
1659432159.164029,13929
1659432159.208452,13932
1659432159.252874,13946
1659432159.297297,13958
1659432159.337482,13953
1659432159.377667,13969
1659432159.417852,13971
1659432159.458038,13983
1659432159.498223,13993
1659432159.539228,13997
1659432159.580234,14010
1659432159.618847,14018
1659432159.65746,14027
1659432159.696074,14035
1659432159.738617,14036
1659432159.78116,13967
1659432159.819773,13887
1659432159.858387,13874
1659432159.897,13880
1659432159.935614,13886
1659432159.974227,13922
1659432160.01284,13948
1659432160.054871,13950
1659432160.096901,13954
1659432160.135515,13963
1659432160.174128,13972
1659432160.212741,13983
1659432160.254772,14003
1659432160.296803,14004
1659432160.335757,14011
1659432160.374713,14014
1659432160.413668,14026
1659432160.453306,14030
1659432160.492945,14035
1659432160.532583,14042
1659432160.573076,14053
1659432160.613569,14060
1659432160.652866,14067
1659432160.692163,14086
1659432160.731459,14069
1659432160.772977,13999
1659432160.814495,13942
1659432160.858576,13926
1659432160.902657,13942
1659432160.946738,13953
1659432160.979542,13979
1659432161.012346,14000
1659432161.05711,14001
1659432161.101874,13999
1659432161.146639,14000
1659432161.185594,13999
1659432161.224549,14015
1659432161.263504,14024
1659432161.305022,14023
1659432161.34654,14041
1659432161.385495,14049
1659432161.42445,14051
1659432161.463405,14060
1659432161.504923,14058
1659432161.546441,14049
1659432161.585396,14063
1659432161.624351,14061
1659432161.663306,14066
1659432161.702261,14024
1659432161.741216,13926
1659432161.780172,13847
1659432161.820664,13827
1659432161.861157,13781
1659432161.899087,13753
1659432161.937017,13786
1659432161.974947,13800
1659432162.01749,13807
1659432162.060033,13798
1659432162.098988,13802
1659432162.137943,13820
1659432162.176898,13844
1659432162.217904,13867
1659432162.258909,13886
1659432162.298206,13907
1659432162.337503,13910
1659432162.3768,13924
1659432162.419343,13932
1659432162.461886,13937
1659432162.500157,13934
1659432162.538429,13933
1659432162.576701,13928
1659432162.621465,13946
1659432162.666229,13917
1659432162.710993,13771
1659432162.743798,13645
1659432162.776602,13621
1659432162.820683,13644
1659432162.864763,13673
1659432162.908844,13714
1659432162.950875,13753
1659432162.992905,13779
1659432163.032202,13795
1659432163.071499,13801
1659432163.110796,13818
1659432163.148726,13827
1659432163.186656,13837
1659432163.224586,13860
1659432163.266104,13866
1659432163.307621,13877
1659432163.34726,13894
1659432163.386899,13901
1659432163.426537,13915
1659432163.464809,13923
1659432163.50308,13940
1659432163.541352,13955
1659432163.583895,13958
1659432163.626438,13956
1659432163.665735,13860
1659432163.705032,13756
1659432163.744328,13714
1659432163.785334,13724
1659432163.826339,13729
1659432163.864953,13761
1659432163.903566,13796
1659432163.942179,13793
1659432163.984723,13787
1659432164.027266,13790
1659432164.065537,13796
1659432164.103809,13817
1659432164.142081,13837
1659432164.183086,13849
1659432164.224091,13867
1659432164.268856,13873
1659432164.31362,13892
1659432164.358384,13901
1659432164.396656,13920
1659432164.434927,13923
1659432164.473199,13950
1659432164.514717,13948
1659432164.556235,13946
1659432164.59642,13883
1659432164.636605,13757
1659432164.67679,13700
1659432164.716976,13673
1659432164.757161,13661
1659432164.795774,13663
