LocalTimestamp,PG
1659520874.764243,10867
1659520874.805717,10916
1659520874.844631,11019
1659520874.883545,11108
1659520874.922459,11172
1659520874.964957,11208
1659520875.007455,11246
1659520875.046369,11280
1659520875.085283,11314
1659520875.124197,11312
1659520875.16311,11282
1659520875.202024,11257
1659520875.240938,11284
1659520875.282925,11319
1659520875.324911,11371
1659520875.363142,11428
1659520875.401373,11488
1659520875.439605,11545
1659520875.481591,11597
1659520875.523576,11675
1659520875.562832,11716
1659520875.602087,11750
1659520875.641342,11759
1659520875.682305,11755
1659520875.723267,11747
1659520875.762181,11751
1659520875.801095,11796
1659520875.840008,11842
1659520875.882507,11890
1659520875.925005,11924
1659520875.963577,11966
1659520876.00215,11982
1659520876.040722,11994
1659520876.084757,11983
1659520876.128791,11950
1659520876.172825,11931
1659520876.215323,11894
1659520876.257821,11882
1659520876.296053,11892
1659520876.334284,11930
1659520876.372515,11953
1659520876.413989,11980
1659520876.455463,12011
1659520876.494377,12023
1659520876.533291,12025
1659520876.572205,12002
1659520876.610436,11952
1659520876.648668,11889
1659520876.686899,11803
1659520876.727349,11723
1659520876.767799,11649
1659520876.807054,11599
1659520876.846309,11555
1659520876.885565,11513
1659520876.924137,11519
1659520876.96271,11523
1659520877.001282,11637
1659520877.043269,11786
1659520877.085255,11928
1659520877.12451,12008
1659520877.163765,12058
1659520877.203021,12123
1659520877.245007,12188
1659520877.286993,12199
1659520877.325224,12217
1659520877.363455,12223
1659520877.401687,12183
1659520877.444185,12157
1659520877.486683,12156
1659520877.525255,12125
1659520877.563828,12103
1659520877.602401,12058
1659520877.643363,12047
1659520877.684325,12057
1659520877.728359,12071
1659520877.772393,12100
1659520877.816427,12105
1659520877.850221,12122
1659520877.884015,12136
1659520877.92839,12152
1659520877.972766,12149
1659520878.017141,12143
1659520878.056397,12132
1659520878.095652,12102
1659520878.134907,12080
1659520878.176893,12053
1659520878.218879,12048
1659520878.257793,12041
1659520878.296707,12044
1659520878.335621,12032
1659520878.377607,12028
1659520878.419594,12041
1659520878.458507,12049
1659520878.497421,12057
1659520878.536335,12074
1659520878.574908,12087
1659520878.613481,12090
1659520878.652053,12098
1659520878.693015,12116
1659520878.733977,12122
1659520878.773574,12128
1659520878.81317,12121
1659520878.852767,12074
1659520878.894241,12075
1659520878.935715,12090
1659520878.973947,12103
1659520879.012178,12125
1659520879.050409,12143
1659520879.089664,12164
1659520879.12892,12180
1659520879.168175,12180
1659520879.210161,12191
1659520879.252147,12196
1659520879.293109,12197
1659520879.334071,12224
1659520879.372644,12224
1659520879.411216,12217
1659520879.449789,12202
1659520879.494506,12176
1659520879.539223,12172
1659520879.58394,12175
1659520879.617221,12149
1659520879.650503,12085
1659520879.694537,12068
1659520879.738571,12066
1659520879.782606,12065
1659520879.815887,12067
1659520879.849169,12088
1659520879.892862,12109
1659520879.936555,12133
1659520879.980247,12170
1659520880.01882,12200
1659520880.057393,12216
1659520880.095965,12220
1659520880.138463,12211
1659520880.180962,12209
1659520880.217827,12211
1659520880.254693,12205
1659520880.291559,12214
1659520880.328425,12209
1659520880.370923,12212
1659520880.413421,12180
1659520880.452335,12118
1659520880.491249,12100
1659520880.530163,12135
1659520880.571637,12156
1659520880.613111,12195
1659520880.657146,12238
1659520880.70118,12264
1659520880.745214,12307
1659520880.77952,12338
1659520880.813825,12394
1659520880.857859,12438
1659520880.901894,12479
1659520880.945928,12485
1659520880.978698,12495
1659520881.011467,12503
1659520881.056184,12503
1659520881.100901,12502
1659520881.145618,12472
1659520881.184191,12449
1659520881.222763,12455
1659520881.261336,12476
1659520881.303322,12490
1659520881.345308,12499
1659520881.384904,12523
1659520881.424501,12524
1659520881.464098,12539
1659520881.505572,12535
1659520881.547046,12544
1659520881.58596,12549
1659520881.624874,12563
1659520881.663788,12576
1659520881.703384,12598
1659520881.742981,12616
1659520881.782578,12625
1659520881.823028,12655
1659520881.863478,12656
1659520881.901709,12659
1659520881.93994,12687
1659520881.978172,12661
1659520882.019645,12622
1659520882.06112,12621
1659520882.100034,12633
1659520882.138947,12645
1659520882.177861,12671
1659520882.218823,12691
1659520882.259786,12703
1659520882.298358,12713
1659520882.336931,12718
1659520882.375503,12719
1659520882.416977,12732
1659520882.458452,12755
1659520882.498389,12756
1659520882.538327,12784
1659520882.578265,12801
1659520882.618203,12811
1659520882.658141,12829
1659520882.697055,12844
1659520882.735969,12869
1659520882.774883,12863
1659520882.816357,12852
1659520882.857831,12840
1659520882.901866,12849
1659520882.9459,12868
1659520882.989934,12882
1659520883.023728,12911
1659520883.057522,12928
1659520883.101556,12964
1659520883.14559,12973
1659520883.189624,12984
1659520883.228197,13007
1659520883.266769,13034
1659520883.305342,13053
1659520883.346816,13067
1659520883.38829,13098
1659520883.427204,13112
1659520883.466118,13146
1659520883.505032,13153
1659520883.545994,13174
1659520883.586956,13191
1659520883.626211,13191
1659520883.665467,13185
1659520883.704722,13179
1659520883.743977,13190
1659520883.783232,13203
1659520883.822488,13227
1659520883.863962,13246
1659520883.905436,13248
1659520883.944691,13269
1659520883.983947,13278
1659520884.023202,13288
1659520884.064676,13301
1659520884.10615,13306
1659520884.144722,13326
1659520884.183295,13345
1659520884.221868,13351
1659520884.260782,13363
1659520884.299695,13391
1659520884.338609,13388
1659520884.381108,13408
1659520884.423606,13428
1659520884.464056,13422
1659520884.504506,13421
1659520884.54342,13376
1659520884.582334,13360
1659520884.621248,13356
1659520884.666306,13368
1659520884.711364,13385
1659520884.756423,13391
1659520884.789704,13400
1659520884.822986,13401
1659520884.867361,13412
1659520884.911737,13434
1659520884.956112,13451
1659520884.989906,13482
1659520885.0237,13515
1659520885.067734,13527
1659520885.111768,13564
1659520885.155802,13579
1659520885.194034,13584
1659520885.232265,13600
1659520885.270496,13611
1659520885.313506,13622
1659520885.356516,13633
1659520885.394748,13635
1659520885.432979,13628
1659520885.47121,13643
1659520885.509783,13654
1659520885.548355,13657
1659520885.586928,13666
1659520885.628402,13670
1659520885.669876,13665
1659520885.708107,13667
1659520885.746339,13662
1659520885.78457,13684
1659520885.826556,13701
1659520885.868542,13705
1659520885.907456,13724
1659520885.94637,13743
1659520885.985284,13754
1659520886.026758,13759
1659520886.068232,13778
1659520886.106805,13789
1659520886.145377,13809
1659520886.18395,13840
1659520886.226448,13855
1659520886.268946,13861
1659520886.307519,13860
1659520886.346091,13877
1659520886.384664,13883
1659520886.428357,13888
1659520886.47205,13903
1659520886.515743,13897
1659520886.549024,13903
1659520886.582306,13913
1659520886.626681,13919
1659520886.671057,13928
1659520886.715432,13921
1659520886.756907,13932
1659520886.798381,13935
1659520886.837977,13945
1659520886.877574,13958
1659520886.917171,13969
1659520886.956084,13964
1659520886.994998,13988
1659520887.033912,13974
1659520887.075387,13993
1659520887.116861,13993
1659520887.156457,13992
1659520887.196054,14001
1659520887.235651,13998
1659520887.277637,13999
1659520887.319623,14001
1659520887.357854,14004
1659520887.396085,14013
1659520887.434316,14022
1659520887.47323,14027
1659520887.512144,14034
1659520887.551058,14028
1659520887.593044,14032
1659520887.635031,14043
1659520887.673603,14039
1659520887.712176,14046
1659520887.750748,14060
1659520887.792222,14065
1659520887.833696,14063
1659520887.87517,14057
1659520887.916645,14077
1659520887.958631,14074
1659520888.000617,14078
1659520888.039531,14095
1659520888.078445,14107
1659520888.117359,14122
1659520888.158833,14120
1659520888.200307,14132
1659520888.239562,14140
1659520888.278817,14149
1659520888.318073,14151
1659520888.356987,14155
1659520888.3959,14163
1659520888.434814,14169
1659520888.475776,14182
1659520888.516739,14176
1659520888.555652,14187
1659520888.594566,14191
1659520888.63348,14188
1659520888.67393,14175
1659520888.714381,14176
1659520888.758415,14186
1659520888.802449,14192
1659520888.846483,14201
1659520888.880789,14204
1659520888.915094,14202
1659520888.958787,14206
1659520889.00248,14215
1659520889.046173,14215
1659520889.085087,14223
1659520889.124001,14234
1659520889.162915,14239
1659520889.204389,14258
1659520889.245863,14254
1659520889.285118,14264
1659520889.324374,14268
1659520889.363629,14270
1659520889.404591,14268
1659520889.445553,14260
1659520889.48515,14269
1659520889.524746,14279
1659520889.564343,14297
1659520889.602574,14293
1659520889.640805,14305
1659520889.679037,14322
1659520889.721023,14327
1659520889.763009,14336
1659520889.802264,14336
1659520889.84152,14347
1659520889.880775,14348
1659520889.921737,14372
1659520889.962699,14367
1659520890.00093,14366
1659520890.039161,14382
1659520890.077393,14384
1659520890.116989,14384
1659520890.156586,14384
1659520890.196182,14381
1659520890.238169,14373
1659520890.280155,14379
1659520890.321117,14383
1659520890.362079,14401
1659520890.401675,14406
1659520890.441272,14419
1659520890.480869,14429
1659520890.523367,14423
1659520890.565865,14425
1659520890.604438,14430
1659520890.64301,14427
1659520890.681583,14436
1659520890.7263,14427
1659520890.771017,14415
1659520890.815734,14409
1659520890.848503,14415
1659520890.881273,14410
1659520890.924966,14411
1659520890.968658,14424
1659520891.012351,14418
1659520891.054338,14411
1659520891.096323,14394
1659520891.135579,14394
1659520891.174834,14384
1659520891.214089,14397
1659520891.252321,14401
1659520891.290552,14408
1659520891.328783,14413
1659520891.370769,14420
1659520891.412755,14430
1659520891.451669,14424
1659520891.490583,14432
1659520891.529497,14433
1659520891.56807,14428
1659520891.606642,14434
1659520891.645215,14432
1659520891.687201,14432
1659520891.729187,14449
1659520891.768101,14445
1659520891.807015,14456
1659520891.845929,14455
1659520891.886379,14450
1659520891.926829,14445
1659520891.965402,14428
1659520892.003974,14427
1659520892.042547,14423
1659520892.085045,14430
1659520892.127543,14434
1659520892.166116,14458
1659520892.204688,14444
1659520892.243261,14446
1659520892.283711,14455
1659520892.324161,14460
1659520892.363416,14457
1659520892.402672,14468
1659520892.441927,14470
1659520892.486302,14467
1659520892.530678,14481
1659520892.575053,14494
1659520892.61704,14498
1659520892.659026,14510
1659520892.698281,14508
1659520892.737536,14500
1659520892.776792,14483
1659520892.818266,14463
1659520892.85974,14408
1659520892.897971,14377
1659520892.936202,14354
1659520892.974433,14325
1659520893.01403,14315
1659520893.053627,14302
1659520893.093224,14300
1659520893.132138,14308
1659520893.171051,14319
1659520893.209965,14351
1659520893.250415,14358
1659520893.290865,14378
1659520893.329779,14385
1659520893.368693,14396
1659520893.407607,14392
1659520893.450105,14404
1659520893.492604,14413
1659520893.531176,14408
1659520893.569749,14419
1659520893.608321,14401
1659520893.653038,14362
1659520893.697755,14355
1659520893.742472,14371
1659520893.776266,14372
1659520893.810059,14398
1659520893.854094,14400
1659520893.898128,14401
1659520893.942162,14408
1659520893.984148,14416
1659520894.026134,14422
1659520894.065048,14425
1659520894.103962,14430
1659520894.142876,14436
1659520894.181107,14433
1659520894.219338,14448
1659520894.25757,14453
1659520894.298532,14465
1659520894.339494,14459
1659520894.378408,14452
1659520894.417322,14450
1659520894.456236,14439
1659520894.494467,14436
1659520894.532698,14440
1659520894.570929,14455
1659520894.612916,14451
1659520894.654902,14472
1659520894.694498,14473
1659520894.734095,14477
1659520894.773692,14490
1659520894.814654,14496
1659520894.855616,14498
1659520894.89453,14507
1659520894.933444,14510
1659520894.972358,14505
1659520895.014856,14516
1659520895.057354,14500
1659520895.095585,14497
1659520895.133816,14496
1659520895.172047,14499
1659520895.21574,14500
1659520895.259433,14515
1659520895.303126,14511
1659520895.336408,14527
1659520895.369689,14518
1659520895.413723,14520
1659520895.457758,14535
1659520895.501792,14532
1659520895.543266,14536
1659520895.58474,14538
1659520895.623995,14553
1659520895.663251,14547
1659520895.702506,14558
1659520895.741079,14538
1659520895.779651,14517
1659520895.818224,14499
1659520895.859186,14495
1659520895.900148,14485
1659520895.940086,14495
1659520895.980024,14504
1659520896.019962,14491
1659520896.061436,14503
1659520896.10291,14499
1659520896.141824,14493
1659520896.180738,14503
1659520896.219652,14496
1659520896.258566,14500
1659520896.29748,14505
1659520896.336394,14515
1659520896.378892,14507
1659520896.42139,14486
1659520896.459621,14423
1659520896.497853,14385
1659520896.536084,14385
1659520896.577558,14369
1659520896.619032,14385
1659520896.657604,14395
1659520896.696177,14391
1659520896.73475,14399
1659520896.776736,14410
1659520896.818722,14419
1659520896.857636,14424
1659520896.89655,14434
1659520896.935464,14442
1659520896.97745,14447
1659520897.019436,14446
1659520897.06347,14435
1659520897.107504,14444
1659520897.151538,14428
1659520897.190794,14339
1659520897.230049,14295
1659520897.269304,14281
1659520897.311291,14263
1659520897.353276,14261
1659520897.391508,14273
1659520897.429739,14283
1659520897.46797,14297
1659520897.508932,14295
1659520897.549894,14304
1659520897.588467,14314
1659520897.62704,14315
1659520897.665612,14313
1659520897.703843,14318
1659520897.742075,14332
1659520897.780306,14325
1659520897.822292,14342
1659520897.864278,14350
1659520897.903192,14344
1659520897.942106,14348
1659520897.98102,14275
1659520898.020275,14206
1659520898.05953,14189
1659520898.098786,14184
1659520898.139748,14165
1659520898.18071,14186
1659520898.22244,14200
1659520898.26417,14200
1659520898.3059,14216
1659520898.34763,14214
1659520898.388592,14226
1659520898.429554,14231
1659520898.46881,14236
1659520898.508065,14246
1659520898.54732,14248
1659520898.586234,14252
1659520898.625148,14246
1659520898.664062,14252
1659520898.705024,14247
1659520898.745986,14252
1659520898.784218,14257
1659520898.822449,14213
1659520898.86068,14161
1659520898.903178,14140
1659520898.945676,14124
1659520898.984249,14115
1659520899.022821,14122
1659520899.061394,14127
1659520899.100308,14128
1659520899.139222,14134
1659520899.178136,14127
1659520899.220634,14144
1659520899.263132,14152
1659520899.305118,14146
1659520899.347104,14150
1659520899.385335,14156
1659520899.423567,14157
1659520899.461798,14158
1659520899.506856,14161
1659520899.551914,14163
1659520899.596973,14171
1659520899.629742,14172
1659520899.662512,14133
1659520899.706546,14069
1659520899.750581,14021
1659520899.794615,14002
1659520899.833529,13979
1659520899.872442,13980
1659520899.911356,13985
1659520899.953855,13993
1659520899.996353,13999
1659520900.034243,13997
1659520900.072133,14015
1659520900.110023,14018
1659520900.152009,14019
1659520900.193995,14029
1659520900.23325,14020
1659520900.272505,14028
1659520900.311761,14041
1659520900.350333,14045
1659520900.388906,14057
1659520900.427478,14079
1659520900.469976,14085
1659520900.512475,14100
1659520900.551389,14083
1659520900.590302,14021
1659520900.629216,13973
1659520900.669667,13939
1659520900.710116,13916
1659520900.74903,13909
1659520900.787944,13920
1659520900.826858,13913
1659520900.868845,13915
1659520900.91083,13904
1659520900.94872,13896
1659520900.98661,13922
1659520901.0245,13938
1659520901.068876,13936
1659520901.113251,13948
1659520901.157627,13963
1659520901.190908,13962
1659520901.22419,13983
1659520901.268224,13993
1659520901.312259,13996
1659520901.356293,14010
1659520901.398279,14007
1659520901.440265,13978
1659520901.47952,13855
1659520901.518776,13732
1659520901.558031,13647
1659520901.596603,13589
1659520901.635176,13552
1659520901.673749,13550
1659520901.715735,13568
1659520901.757721,13592
1659520901.797318,13606
1659520901.836914,13635
1659520901.876511,13641
1659520901.916961,13667
1659520901.957411,13691
1659520901.996325,13703
1659520902.035239,13716
1659520902.074153,13730
1659520902.113067,13750
1659520902.151981,13760
1659520902.190895,13774
1659520902.232881,13786
1659520902.274867,13782
1659520902.313439,13784
1659520902.352012,13781
1659520902.390584,13731
1659520902.432571,13672
1659520902.474557,13675
1659520902.513812,13715
1659520902.553067,13769
1659520902.592323,13805
1659520902.633797,13831
1659520902.675271,13852
1659520902.714185,13866
1659520902.753099,13877
1659520902.792013,13883
1659520902.834511,13892
1659520902.877009,13904
1659520902.920702,13903
1659520902.964395,13901
1659520903.008087,13884
1659520903.047001,13883
1659520903.085915,13874
1659520903.124829,13901
1659520903.166815,13896
1659520903.208802,13913
1659520903.247374,13941
1659520903.285947,13962
1659520903.324519,13986
1659520903.365481,14013
1659520903.406443,14048
1659520903.444333,14063
1659520903.482223,14072
1659520903.520113,13990
1659520903.558003,13863
1659520903.598965,13782
1659520903.639927,13735
1659520903.678841,13727
1659520903.717755,13748
1659520903.756669,13773
1659520903.801386,13804
1659520903.846103,13833
1659520903.89082,13859
1659520903.924101,13869
1659520903.957383,13901
1659520904.001417,13914
1659520904.045451,13926
1659520904.089486,13899
1659520904.122767,13875
1659520904.156049,13875
1659520904.199742,13838
1659520904.243435,13762
1659520904.287127,13700
1659520904.326383,13679
1659520904.365638,13641
1659520904.404893,13630
1659520904.446368,13611
1659520904.487841,13600
1659520904.526414,13604
1659520904.564987,13589
1659520904.603559,13586
1659520904.645033,13571
1659520904.686507,13553
1659520904.726445,13535
1659520904.766383,13540
1659520904.806321,13534
1659520904.844553,13553
1659520904.882784,13574
1659520904.921015,13576
1659520904.963001,13577
1659520905.004987,13587
1659520905.043901,13587
1659520905.082815,13582
1659520905.121729,13516
1659520905.163715,13469
1659520905.205701,13430
1659520905.244274,13409
1659520905.282846,13398
1659520905.321419,13397
1659520905.362893,13397
1659520905.404367,13385
1659520905.44294,13395
1659520905.481513,13393
1659520905.520085,13400
1659520905.562071,13409
1659520905.604057,13420
1659520905.642971,13430
1659520905.681885,13446
1659520905.720799,13468
1659520905.765516,13471
1659520905.810233,13485
1659520905.85495,13494
1659520905.895912,13493
1659520905.936874,13453
1659520905.976471,13407
1659520906.016067,13375
1659520906.055664,13361
1659520906.09765,13349
1659520906.139636,13364
1659520906.178209,13350
1659520906.216781,13357
1659520906.255354,13358
1659520906.294268,13364
1659520906.333182,13351
1659520906.372096,13345
1659520906.413058,13359
1659520906.45402,13376
1659520906.492251,13391
1659520906.530482,13405
1659520906.568714,13421
1659520906.607627,13438
1659520906.646541,13449
1659520906.685455,13446
1659520906.726929,13436
1659520906.768404,13396
1659520906.806976,13368
1659520906.845549,13366
1659520906.884121,13345
1659520906.925596,13355
1659520906.967069,13362
1659520907.005983,13377
1659520907.044897,13385
1659520907.083811,13401
1659520907.125798,13426
1659520907.167783,13430
1659520907.206697,13422
1659520907.245611,13418
1659520907.284525,13411
1659520907.325487,13410
1659520907.366449,13437
1659520907.410484,13452
1659520907.454518,13463
1659520907.498552,13483
1659520907.537125,13507
1659520907.575697,13511
1659520907.61427,13524
1659520907.656768,13489
1659520907.699266,13445
1659520907.737497,13442
1659520907.775729,13440
1659520907.81396,13445
1659520907.855434,13459
1659520907.896908,13476
1659520907.936163,13485
1659520907.975419,13508
1659520908.014674,13503
1659520908.054271,13503
1659520908.093867,13523
1659520908.133464,13517
1659520908.174426,13525
1659520908.215388,13529
1659520908.254643,13546
1659520908.293899,13564
1659520908.333154,13573
1659520908.374628,13587
1659520908.416102,13598
1659520908.455016,13616
1659520908.49393,13617
1659520908.532844,13633
1659520908.571758,13637
1659520908.610672,13613
1659520908.649586,13601
1659520908.69106,13598
1659520908.732534,13595
1659520908.773752,13602
1659520908.81497,13615
1659520908.856188,13624
1659520908.897406,13627
1659520908.936661,13633
1659520908.975917,13635
1659520909.015172,13645
1659520909.053403,13644
1659520909.091635,13659
1659520909.129866,13671
1659520909.17134,13689
1659520909.212814,13693
1659520909.252752,13701
1659520909.29269,13724
1659520909.332628,13721
1659520909.37359,13716
1659520909.414552,13679
1659520909.453466,13594
1659520909.49238,13546
1659520909.531294,13503
1659520909.572768,13495
1659520909.614242,13489
1659520909.658276,13496
1659520909.70231,13504
1659520909.746345,13487
1659520909.779114,13500
1659520909.811884,13505
1659520909.856601,13520
1659520909.901318,13535
1659520909.946034,13536
1659520909.984266,13558
1659520910.022497,13563
1659520910.060728,13570
1659520910.10169,13576
1659520910.142652,13589
1659520910.182249,13609
1659520910.221846,13645
1659520910.261442,13667
1659520910.302916,13685
1659520910.34439,13691
1659520910.382622,13683
1659520910.420853,13689
1659520910.459084,13676
1659520910.498339,13668
1659520910.537595,13679
1659520910.57685,13700
1659520910.618836,13720
1659520910.660822,13733
1659520910.699054,13762
1659520910.737285,13779
1659520910.775516,13797
1659520910.81699,13828
1659520910.858464,13829
1659520910.897037,13838
1659520910.935609,13869
1659520910.974182,13876
1659520911.012413,13885
1659520911.050644,13900
1659520911.088876,13889
1659520911.131374,13849
1659520911.173872,13842
1659520911.215858,13836
1659520911.257844,13844
1659520911.296758,13856
1659520911.335672,13870
1659520911.374586,13882
1659520911.419303,13892
1659520911.46402,13901
1659520911.508737,13909
1659520911.54253,13929
1659520911.576324,13950
1659520911.6207,13971
1659520911.665075,13979
1659520911.709451,13996
1659520911.74222,14002
1659520911.77499,14022
1659520911.819707,14024
1659520911.864424,14029
1659520911.909141,14033
1659520911.947372,13994
1659520911.985603,13973
1659520912.023834,13981
1659520912.06582,14000
1659520912.107807,13998
1659520912.146721,14012
1659520912.185635,14027
1659520912.224549,14020
1659520912.264998,14034
1659520912.305449,14038
1659520912.344362,14062
1659520912.383276,14064
1659520912.42219,14074
1659520912.461446,14097
1659520912.500701,14114
1659520912.539956,14124
1659520912.581942,14135
1659520912.623929,14162
1659520912.662501,14160
1659520912.701074,14162
1659520912.739646,14168
1659520912.78112,14138
1659520912.822594,14126
1659520912.861508,14131
1659520912.900422,14127
1659520912.939336,14135
1659520912.98081,14144
1659520913.022284,14143
1659520913.060516,14153
1659520913.098747,14160
1659520913.136978,14162
1659520913.178452,14168
1659520913.219926,14182
1659520913.258157,14191
1659520913.296389,14206
1659520913.33462,14214
1659520913.378996,14217
1659520913.423371,14229
1659520913.467747,14237
1659520913.509733,14245
1659520913.551719,14240
1659520913.590633,14262
1659520913.629547,14249
1659520913.668461,14224
1659520913.707375,14208
1659520913.746289,14206
1659520913.785203,14199
1659520913.827701,14199
1659520913.870199,14209
1659520913.909113,14208
1659520913.948027,14210
1659520913.986941,14209
1659520914.027903,14210
1659520914.068865,14222
1659520914.10812,14218
1659520914.147375,14224
1659520914.186631,14241
1659520914.22452,14239
1659520914.26241,14251
1659520914.3003,14257
1659520914.342286,14265
1659520914.384273,14275
1659520914.423528,14276
1659520914.462783,14272
1659520914.502038,14222
1659520914.543513,14182
1659520914.584986,14161
1659520914.6239,14141
1659520914.662814,14106
1659520914.701728,14091
1659520914.744226,14084
1659520914.786725,14073
1659520914.825639,14057
1659520914.864552,14050
1659520914.903466,14055
1659520914.947842,14046
1659520914.992218,14067
1659520915.036593,14066
1659520915.078579,14070
1659520915.120565,14092
1659520915.159138,14086
1659520915.197711,14094
1659520915.236283,14119
1659520915.274856,14110
1659520915.313428,14124
1659520915.352001,14128
1659520915.390915,14100
1659520915.429829,14052
1659520915.468743,14015
1659520915.510729,13986
1659520915.552715,13958
1659520915.590946,13945
1659520915.629177,13940
1659520915.667409,13924
1659520915.709395,13907
1659520915.751381,13883
1659520915.789953,13877
1659520915.828526,13873
1659520915.867099,13882
1659520915.909085,13890
1659520915.951071,13898
1659520915.989985,13916
1659520916.028899,13926
1659520916.067813,13942
1659520916.109287,13950
1659520916.150761,13968
1659520916.188992,13917
1659520916.227223,13871
1659520916.265455,13849
1659520916.30983,13835
1659520916.354206,13835
1659520916.398581,13831
1659520916.431863,13840
1659520916.465145,13844
1659520916.509179,13849
1659520916.553213,13849
1659520916.597247,13845
1659520916.636161,13862
1659520916.675075,13860
1659520916.713989,13871
1659520916.755463,13866
1659520916.796937,13866
1659520916.835851,13860
1659520916.874765,13868
1659520916.913679,13880
1659520916.955665,13847
1659520916.997651,13774
1659520917.036565,13734
1659520917.075479,13688
1659520917.114393,13659
1659520917.156379,13622
1659520917.198365,13602
1659520917.237621,13590
1659520917.276876,13561
1659520917.316131,13533
1659520917.355386,13516
1659520917.394642,13502
1659520917.433897,13494
1659520917.474859,13478
1659520917.515821,13462
1659520917.554052,13445
1659520917.592284,13441
1659520917.630515,13431
1659520917.673013,13400
1659520917.715511,13342
1659520917.754425,13247
1659520917.793339,13183
1659520917.832253,13143
1659520917.873727,13121
1659520917.915201,13108
1659520917.954456,13099
1659520917.993712,13113
1659520918.032967,13113
1659520918.075465,13105
1659520918.117963,13100
1659520918.161998,13095
1659520918.206032,13125
1659520918.250066,13169
1659520918.289321,13195
1659520918.328577,13239
1659520918.367832,13265
1659520918.409306,13270
1659520918.45078,13284
1659520918.489011,13278
1659520918.527242,13279
1659520918.565474,13292
1659520918.60746,13308
1659520918.649446,13309
1659520918.68836,13321
1659520918.727274,13322
1659520918.766188,13326
1659520918.804078,13349
1659520918.841968,13378
1659520918.879857,13436
1659520918.92082,13478
1659520918.961782,13524
1659520919.001037,13538
1659520919.040292,13535
1659520919.079547,13556
1659520919.117779,13583
1659520919.15601,13603
1659520919.194241,13585
1659520919.236739,13546
1659520919.279237,13518
1659520919.318151,13477
1659520919.357065,13438
1659520919.395979,13385
1659520919.436941,13339
1659520919.477903,13307
1659520919.516817,13288
1659520919.555731,13313
1659520919.594645,13325
1659520919.639362,13338
1659520919.684079,13316
1659520919.728796,13290
1659520919.77027,13269
1659520919.811744,13256
1659520919.850317,13205
1659520919.888889,13081
1659520919.927462,12917
1659520919.968936,12759
1659520920.01041,12640
1659520920.048641,12517
1659520920.086872,12428
1659520920.125104,12380
1659520920.164359,12339
1659520920.203614,12304
1659520920.24287,12286
1659520920.282125,12273
1659520920.32138,12269
1659520920.360636,12278
1659520920.401597,12281
1659520920.442559,12295
1659520920.481815,12316
1659520920.52107,12316
1659520920.560325,12272
1659520920.602823,12153
1659520920.645322,12009
1659520920.683894,11919
1659520920.722467,11859
1659520920.761039,11795
1659520920.802001,11766
1659520920.842964,11756
1659520920.881877,11727
1659520920.920791,11694
1659520920.959705,11691
1659520921.001692,11688
1659520921.043678,11686
1659520921.088053,11705
1659520921.132429,11718
1659520921.176804,11733
1659520921.210086,11745
1659520921.243368,11789
1659520921.288085,11813
1659520921.332801,11788
1659520921.377518,11763
1659520921.416091,11754
1659520921.454664,11786
1659520921.493236,11809
1659520921.535734,11844
1659520921.578232,11869
1659520921.616805,11862
1659520921.655378,11851
1659520921.69395,11851
1659520921.732864,11863
1659520921.771778,11875
1659520921.810692,11903
1659520921.851654,11913
1659520921.892616,11930
1659520921.931189,11938
1659520921.969761,11943
1659520922.008334,11970
1659520922.046565,11972
1659520922.084796,11888
1659520922.123028,11764
1659520922.165014,11670
1659520922.207,11584
1659520922.245914,11501
1659520922.284828,11463
1659520922.323742,11435
1659520922.364704,11426
1659520922.405666,11414
1659520922.444238,11394
1659520922.482811,11391
1659520922.521384,11382
1659520922.563882,11373
1659520922.60638,11378
1659520922.650414,11379
1659520922.694448,11402
1659520922.738482,11438
1659520922.771252,11488
1659520922.804022,11533
1659520922.848397,11577
1659520922.892773,11572
1659520922.937148,11484
1659520922.976062,11414
1659520923.014976,11374
1659520923.05389,11352
1659520923.095364,11335
1659520923.136838,11339
1659520923.176094,11349
1659520923.215349,11356
1659520923.254604,11354
1659520923.295566,11363
1659520923.336528,11403
1659520923.375101,11443
1659520923.413673,11477
1659520923.452246,11529
1659520923.492184,11554
1659520923.532122,11598
1659520923.57206,11653
1659520923.613534,11699
1659520923.655008,11750
1659520923.693581,11790
1659520923.732153,11815
1659520923.770726,11777
1659520923.813224,11747
1659520923.855722,11726
1659520923.894978,11733
1659520923.934233,11768
1659520923.973488,11788
1659520924.012061,11823
1659520924.050633,11852
1659520924.089206,11877
1659520924.13068,11912
1659520924.172154,11957
1659520924.213116,12002
1659520924.254078,12041
1659520924.292651,12079
1659520924.331223,12104
1659520924.369796,12125
1659520924.414513,12142
1659520924.45923,12166
1659520924.503947,12155
1659520924.536716,12105
1659520924.569486,12077
1659520924.61352,12048
1659520924.657554,12054
1659520924.701589,12075
1659520924.735382,12097
1659520924.769176,12120
1659520924.814234,12120
1659520924.859293,12139
1659520924.904351,12166
1659520924.942582,12194
1659520924.980813,12218
1659520925.019044,12245
1659520925.061031,12260
1659520925.103017,12268
1659520925.141589,12265
1659520925.180162,12264
1659520925.218735,12243
1659520925.256966,12164
1659520925.295197,12062
1659520925.333428,12004
1659520925.375414,11956
1659520925.4174,11933
1659520925.456314,11923
1659520925.495228,11930
1659520925.534142,11933
1659520925.574592,11924
1659520925.615042,11909
1659520925.653956,11904
1659520925.69287,11928
1659520925.731784,11937
1659520925.774282,11950
1659520925.81678,11969
1659520925.855353,11973
1659520925.893926,11984
1659520925.932498,11983
1659520925.97346,11993
1659520926.014422,11979
1659520926.053678,11872
1659520926.092933,11772
1659520926.132188,11703
1659520926.176222,11649
1659520926.220257,11603
1659520926.264291,11577
1659520926.298084,11567
1659520926.331878,11537
1659520926.376595,11538
1659520926.421312,11576
1659520926.466029,11622
1659520926.506991,11665
1659520926.547953,11709
1659520926.586525,11746
1659520926.625098,11765
1659520926.663671,11798
1659520926.702926,11803
1659520926.742181,11834
1659520926.781437,11879
1659520926.823423,11858
1659520926.865409,11732
1659520926.904323,11608
1659520926.943237,11528
1659520926.982151,11459
1659520927.024137,11440
1659520927.066123,11413
1659520927.105378,11401
1659520927.144634,11397
1659520927.183889,11376
1659520927.222803,11377
1659520927.261717,11391
1659520927.300631,11390
1659520927.341593,11382
1659520927.382555,11362
1659520927.42181,11334
1659520927.461065,11295
1659520927.500321,11259
1659520927.540771,11181
1659520927.581221,11008
1659520927.620135,10793
1659520927.659049,10612
1659520927.697963,10542
1659520927.739949,10553
1659520927.781935,10615
1659520927.820507,10680
1659520927.85908,10758
1659520927.897652,10845
1659520927.938615,10941
1659520927.979577,11039
1659520928.024293,11153
1659520928.06901,11237
1659520928.113727,11320
1659520928.152982,11383
1659520928.192238,11456
1659520928.231493,11476
1659520928.272967,11503
1659520928.314441,11438
1659520928.353355,11327
1659520928.392269,11235
1659520928.431183,11141
1659520928.472145,11065
1659520928.513107,11014
1659520928.55168,10989
1659520928.590252,10959
1659520928.628825,10923
1659520928.66808,10906
1659520928.707336,10907
1659520928.746591,10926
1659520928.787553,10941
1659520928.828515,10980
1659520928.866405,10999
1659520928.904295,11041
1659520928.942185,11096
1659520928.981781,11149
1659520929.021378,11187
1659520929.060975,11237
1659520929.102961,11401
1659520929.144947,11684
1659520929.183861,11959
1659520929.222775,12147
1659520929.261689,12299
1659520929.303675,12400
1659520929.345661,12421
1659520929.384575,12385
1659520929.423489,12400
1659520929.462403,12430
1659520929.504389,12438
1659520929.546375,12393
1659520929.591092,12370
1659520929.635809,12408
1659520929.680526,12422
1659520929.713295,12452
1659520929.746065,12505
1659520929.787539,12542
1659520929.829013,12578
1659520929.870487,12600
1659520929.911961,12578
1659520929.953435,12536
1659520929.994909,12520
1659520930.033823,12518
1659520930.072737,12534
1659520930.111651,12539
1659520930.153125,12543
1659520930.194599,12550
1659520930.233855,12563
1659520930.27311,12567
1659520930.312365,12577
1659520930.351279,12582
1659520930.390193,12599
1659520930.429107,12610
1659520930.470581,12571
1659520930.512055,12338
1659520930.551311,12045
1659520930.590566,11803
1659520930.629821,11562
1659520930.671295,11365
1659520930.712769,11213
1659520930.751001,11106
1659520930.789232,10989
1659520930.827463,10901
1659520930.868425,10810
1659520930.909387,10738
1659520930.953763,10680
1659520930.998138,10624
1659520931.042514,10576
1659520931.081428,10536
1659520931.120342,10497
1659520931.159256,10465
1659520931.20073,10445
1659520931.242204,10421
1659520931.281459,10318
1659520931.320714,10129
1659520931.35997,9929
1659520931.400932,9793
1659520931.441894,9695
1659520931.481149,9623
1659520931.520404,9606
1659520931.55966,9593
1659520931.598574,9576
1659520931.637488,9532
1659520931.676402,9517
1659520931.717875,9509
1659520931.75935,9512
1659520931.797581,9536
1659520931.835812,9580
1659520931.874043,9633
1659520931.916542,9673
1659520931.95904,9720
1659520931.997954,9778
1659520932.036868,9828
1659520932.075782,9825
1659520932.114013,9705
1659520932.152244,9602
1659520932.190475,9551
1659520932.231949,9519
1659520932.273423,9516
1659520932.312679,9544
1659520932.351934,9604
1659520932.391189,9669
1659520932.432663,9724
1659520932.474137,9796
1659520932.518854,9847
1659520932.563571,9900
1659520932.608288,9940
1659520932.642082,9987
1659520932.675875,10050
1659520932.71991,10126
1659520932.763944,10182
1659520932.807978,10243
1659520932.841772,10321
1659520932.875566,10329
1659520932.920624,10231
1659520932.965682,10162
1659520933.01074,10150
1659520933.048971,10136
1659520933.087203,10166
1659520933.125434,10212
1659520933.166396,10255
1659520933.207358,10305
1659520933.246613,10346
1659520933.285869,10394
1659520933.325124,10462
1659520933.366598,10499
1659520933.408072,10566
1659520933.446645,10629
1659520933.485217,10681
1659520933.52379,10739
1659520933.563386,10798
1659520933.602983,10856
1659520933.64258,10901
1659520933.683542,10960
1659520933.724504,10931
1659520933.763418,10835
1659520933.802332,10795
1659520933.841246,10767
1659520933.883744,10750
1659520933.926242,10746
1659520933.964132,10759
1659520934.002022,10781
1659520934.039912,10790
1659520934.080874,10813
1659520934.121836,10840
1659520934.160408,10876
1659520934.198981,10922
1659520934.237554,10963
1659520934.27954,11005
1659520934.321526,11060
1659520934.359757,11098
1659520934.397988,11145
1659520934.436219,11197
1659520934.481278,11234
1659520934.526336,11285
1659520934.571394,11294
1659520934.604164,11181
1659520934.636934,11093
1659520934.680968,11018
1659520934.725002,10969
1659520934.769036,10928
1659520934.811534,10905
1659520934.854033,10894
1659520934.892946,10869
1659520934.93186,10826
1659520934.970774,10795
1659520935.007896,10779
1659520935.045018,10772
1659520935.08214,10766
1659520935.119262,10768
1659520935.160736,10766
1659520935.20221,10783
1659520935.240782,10793
1659520935.279355,10811
1659520935.317928,10844
1659520935.359402,10891
1659520935.400876,10884
1659520935.43979,10789
1659520935.478704,10649
1659520935.517618,10549
1659520935.55858,10488
1659520935.599542,10424
1659520935.644259,10398
1659520935.688976,10392
1659520935.733692,10378
1659520935.772948,10355
1659520935.812203,10338
1659520935.851458,10352
1659520935.893445,10357
1659520935.935431,10374
1659520935.974003,10384
1659520936.012576,10391
1659520936.051148,10409
1659520936.093134,10417
1659520936.135121,10439
1659520936.173693,10456
1659520936.212266,10481
1659520936.250838,10484
1659520936.289411,10427
1659520936.327984,10278
1659520936.366556,10145
1659520936.408542,10072
1659520936.450528,10015
1659520936.489442,9984
1659520936.528356,9980
1659520936.56727,9977
1659520936.605501,9951
1659520936.643733,9930
1659520936.681964,9911
1659520936.723438,9922
1659520936.764912,9940
1659520936.804509,9958
1659520936.844105,9983
1659520936.883702,10019
1659520936.924664,10044
1659520936.965626,10076
1659520937.0071,10112
1659520937.048574,10154
1659520937.08783,10200
1659520937.127085,10245
1659520937.16634,10193
1659520937.210033,10060
1659520937.253726,9951
1659520937.297419,9884
1659520937.3307,9835
1659520937.363982,9817
1659520937.408358,9812
1659520937.452733,9832
1659520937.497109,9816
1659520937.535681,9802
1659520937.574254,9801
1659520937.612826,9810
1659520937.653276,9820
1659520937.693727,9827
1659520937.733323,9855
1659520937.77292,9859
1659520937.812516,9883
1659520937.853991,9906
1659520937.895465,9929
1659520937.933696,9957
1659520937.971927,9980
1659520938.010158,9999
1659520938.049755,9935
1659520938.089352,9803
1659520938.128948,9679
1659520938.170934,9621
1659520938.21292,9568
1659520938.251152,9547
1659520938.289383,9553
1659520938.327614,9571
1659520938.3696,9573
1659520938.411587,9593
1659520938.450159,9615
1659520938.488732,9663
1659520938.527304,9711
1659520938.568778,9756
1659520938.610252,9807
1659520938.649508,9852
1659520938.688763,9910
1659520938.728018,9961
1659520938.769492,10022
1659520938.810966,10066
1659520938.849198,10126
1659520938.887429,10190
1659520938.92566,10235
1659520938.970718,10196
1659520939.015777,10124
1659520939.060835,10118
1659520939.094629,10121
1659520939.128422,10150
1659520939.172457,10171
1659520939.216491,10193
1659520939.260525,10211
1659520939.293807,10210
1659520939.327088,10210
1659520939.372146,10236
1659520939.417205,10261
1659520939.462263,10287
1659520939.500153,10323
1659520939.538043,10354
1659520939.575933,10385
1659520939.618431,10415
1659520939.660929,10457
1659520939.699843,10488
1659520939.738757,10547
1659520939.777671,10544
1659520939.818121,10447
1659520939.858571,10316
1659520939.897143,10227
1659520939.935716,10167
1659520939.974288,10123
1659520940.013544,10104
1659520940.052799,10110
1659520940.092054,10103
1659520940.133528,10088
1659520940.175003,10096
1659520940.213917,10145
1659520940.252831,10202
1659520940.291744,10249
1659520940.33373,10294
1659520940.375717,10306
1659520940.414631,10332
1659520940.453545,10356
1659520940.492459,10367
1659520940.533933,10373
1659520940.575407,10379
1659520940.613979,10400
1659520940.652552,10371
1659520940.691124,10242
1659520940.732086,10073
1659520940.773049,9962
1659520940.817083,9885
1659520940.861117,9817
1659520940.905151,9782
1659520940.944065,9767
1659520940.982979,9760
1659520941.021893,9731
1659520941.063879,9716
1659520941.105865,9734
1659520941.144438,9759
1659520941.18301,9795
1659520941.221583,9807
1659520941.263569,9841
1659520941.305555,9869
1659520941.344469,9883
1659520941.383383,9910
1659520941.422297,9933
1659520941.461552,9957
1659520941.500808,9972
1659520941.540063,9974
1659520941.582049,9889
1659520941.624035,9741
1659520941.662949,9632
1659520941.701863,9564
1659520941.740777,9521
1659520941.781227,9527
1659520941.821677,9579
1659520941.860932,9648
1659520941.900187,9719
1659520941.939443,9781
1659520941.978698,9809
1659520942.017953,9828
1659520942.057209,9837
1659520942.097659,9853
1659520942.138109,9904
1659520942.17634,9966
1659520942.214571,10047
1659520942.252803,10098
1659520942.295813,10167
1659520942.338823,10231
1659520942.383198,10283
1659520942.427574,10340
1659520942.47195,10362
1659520942.504719,10288
1659520942.537489,10163
1659520942.582547,10092
1659520942.627605,10025
1659520942.672663,9974
1659520942.711577,9948
1659520942.750491,9932
1659520942.789405,9908
1659520942.831392,9880
1659520942.873378,9860
1659520942.912292,9862
1659520942.951205,9908
1659520942.990119,9934
1659520943.031081,9964
1659520943.072043,10024
1659520943.109933,10056
1659520943.147823,10082
1659520943.185713,10117
1659520943.224968,10156
1659520943.264224,10192
1659520943.303479,10237
1659520943.344953,10290
1659520943.386427,10312
1659520943.424659,10243
1659520943.46289,10140
1659520943.501121,10070
1659520943.540376,10048
1659520943.579632,10030
1659520943.618887,10048
1659520943.660361,10088
1659520943.701835,10099
1659520943.740408,10091
1659520943.77898,10082
1659520943.817553,10102
1659520943.860051,10130
1659520943.902549,10156
1659520943.943511,10190
1659520943.984473,10227
1659520944.022704,10267
1659520944.060936,10298
1659520944.099167,10337
1659520944.143884,10353
1659520944.188601,10376
1659520944.233318,10399
1659520944.267111,10430
1659520944.300905,10374
1659520944.344598,10254
1659520944.388291,10171
1659520944.431983,10120
1659520944.465777,10090
1659520944.499571,10076
1659520944.544629,10097
1659520944.589687,10109
1659520944.634746,10114
1659520944.673318,10117
1659520944.711891,10137
1659520944.750463,10177
1659520944.792962,10220
1659520944.83546,10266
1659520944.874715,10309
1659520944.91397,10344
1659520944.953226,10389
1659520944.994188,10429
1659520945.03515,10462
1659520945.073722,10514
1659520945.112295,10548
1659520945.150867,10498
1659520945.190464,10369
1659520945.230061,10258
1659520945.269657,10190
1659520945.31062,10136
1659520945.351582,10121
1659520945.390154,10120
1659520945.428727,10132
1659520945.467299,10115
1659520945.508773,10095
1659520945.550247,10094
1659520945.589503,10087
1659520945.628758,10116
1659520945.668013,10160
1659520945.709487,10206
1659520945.750962,10256
1659520945.789876,10303
1659520945.828789,10322
1659520945.867703,10326
1659520945.909178,10318
1659520945.950652,10299
1659520945.989907,10267
1659520946.029162,10155
1659520946.068417,9988
1659520946.113134,9847
1659520946.157851,9744
1659520946.202568,9644
1659520946.24353,9582
1659520946.284492,9574
1659520946.322723,9556
1659520946.360955,9547
1659520946.399186,9552
1659520946.437758,9577
1659520946.476331,9613
1659520946.514904,9641
1659520946.55689,9661
1659520946.598876,9667
1659520946.637449,9655
1659520946.676021,9658
1659520946.714594,9656
1659520946.756068,9675
1659520946.797542,9677
1659520946.836797,9683
1659520946.876052,9683
1659520946.915308,9583
1659520946.95388,9405
1659520946.992453,9269
1659520947.031026,9191
1659520947.073012,9108
1659520947.114998,9065
1659520947.154594,9054
1659520947.194191,9043
1659520947.233788,9026
1659520947.274238,9005
1659520947.314688,9008
1659520947.352919,9027
1659520947.39115,9059
1659520947.429382,9090
1659520947.472392,9138
1659520947.515402,9199
1659520947.553633,9255
1659520947.591864,9327
1659520947.630095,9393
1659520947.670546,9454
1659520947.710996,9526
1659520947.756054,9575
1659520947.801112,9537
1659520947.84617,9467
1659520947.885426,9425
1659520947.924681,9406
1659520947.963936,9406
1659520948.005922,9433
1659520948.047909,9499
1659520948.087164,9572
1659520948.126419,9654
1659520948.165674,9714
1659520948.20766,9785
1659520948.249646,9845
1659520948.287536,9900
1659520948.325426,9947
1659520948.363316,9982
1659520948.402571,10040
1659520948.441827,10088
1659520948.481082,10142
1659520948.523068,10209
1659520948.565054,10259
1659520948.603286,10276
1659520948.641517,10207
1659520948.679748,10160
1659520948.721222,10135
1659520948.762696,10121
1659520948.801269,10128
1659520948.839841,10155
1659520948.878414,10182
1659520948.917328,10192
1659520948.956242,10218
1659520948.995156,10246
1659520949.037142,10294
1659520949.079128,10341
1659520949.117701,10382
1659520949.156273,10441
1659520949.194846,10493
1659520949.235808,10555
1659520949.27677,10605
1659520949.321487,10647
1659520949.366204,10707
1659520949.410921,10771
1659520949.444714,10758
1659520949.478508,10670
1659520949.522201,10618
1659520949.565894,10584
1659520949.609586,10551
1659520949.648159,10523
1659520949.686732,10529
1659520949.725304,10547
1659520949.766266,10550
1659520949.807228,10562
1659520949.846142,10595
1659520949.885056,10634
1659520949.92397,10678
1659520949.964932,10736
1659520950.005894,10788
1659520950.04515,10836
1659520950.084405,10903
1659520950.12366,10940
1659520950.162233,10991
1659520950.200805,11057
1659520950.239378,11095
1659520950.281364,11149
1659520950.32335,11089
1659520950.362606,11000
1659520950.401861,10944
1659520950.441116,10892
1659520950.48259,10844
1659520950.524064,10809
1659520950.562637,10829
1659520950.601209,10815
1659520950.639782,10817
1659520950.68228,10837
1659520950.724778,10857
1659520950.763692,10900
1659520950.802606,10935
1659520950.84152,10996
1659520950.88197,11030
1659520950.92242,11082
1659520950.960993,11137
1659520950.999565,11177
1659520951.038138,11226
1659520951.082855,11276
1659520951.127572,11329
1659520951.172289,11351
1659520951.206082,11313
1659520951.239876,11229
1659520951.284593,11179
1659520951.32931,11136
1659520951.374027,11101
1659520951.412941,11092
1659520951.451855,11100
1659520951.490769,11115
1659520951.532243,11114
1659520951.573717,11133
1659520951.612289,11160
1659520951.650862,11187
1659520951.689435,11230
1659520951.728348,11268
1659520951.767262,11317
1659520951.806176,11363
1659520951.847651,11405
1659520951.889125,11451
1659520951.927697,11497
1659520951.96627,11552
1659520952.004842,11602
1659520952.046316,11640
1659520952.08779,11687
1659520952.126022,11616
1659520952.164253,11564
1659520952.202484,11559
1659520952.243958,11539
1659520952.285432,11538
1659520952.325029,11557
1659520952.364626,11576
1659520952.404222,11580
1659520952.445184,11609
1659520952.486146,11621
1659520952.524719,11640
1659520952.563292,11687
1659520952.601864,11718
1659520952.646581,11749
1659520952.691298,11773
1659520952.736015,11808
1659520952.769297,11831
1659520952.802578,11870
1659520952.846271,11898
1659520952.889964,11928
1659520952.933657,11964
1659520952.966938,11946
1659520953.00022,11857
1659520953.044254,11808
1659520953.088289,11773
1659520953.132323,11741
1659520953.171237,11727
1659520953.210151,11724
1659520953.249065,11713
1659520953.291051,11715
1659520953.333037,11729
1659520953.371609,11739
1659520953.410182,11784
1659520953.448755,11803
1659520953.487669,11826
1659520953.526582,11866
1659520953.565496,11899
1659520953.607995,11929
1659520953.650493,11956
1659520953.689407,11977
1659520953.728321,11979
1659520953.767235,11993
1659520953.808709,11979
1659520953.850183,11887
1659520953.889097,11794
1659520953.92801,11730
1659520953.966924,11668
1659520954.009423,11627
1659520954.051921,11596
1659520954.090152,11580
1659520954.128383,11549
1659520954.166615,11529
1659520954.208089,11536
1659520954.249563,11541
1659520954.288135,11565
1659520954.326708,11587
1659520954.36528,11622
1659520954.409656,11640
1659520954.454031,11674
1659520954.498407,11701
1659520954.540905,11740
1659520954.583403,11762
1659520954.622317,11785
1659520954.661231,11807
1659520954.700145,11716
1659520954.741107,11626
1659520954.782069,11572
1659520954.821325,11516
1659520954.86058,11487
1659520954.899835,11459
1659520954.938408,11446
1659520954.97698,11403
1659520955.015553,11379
1659520955.057027,11365
1659520955.098501,11360
1659520955.137074,11353
1659520955.175646,11350
1659520955.214219,11346
1659520955.252791,11322
1659520955.291364,11304
1659520955.329937,11292
1659520955.370899,11281
1659520955.411861,11273
1659520955.450433,11238
1659520955.489006,11125
1659520955.527579,11011
1659520955.569053,10900
1659520955.610527,10798
1659520955.649782,10743
1659520955.689037,10722
1659520955.728293,10719
1659520955.769255,10724
1659520955.810217,10730
1659520955.849131,10748
1659520955.888045,10794
1659520955.926959,10826
1659520955.969457,10849
1659520956.011955,10881
1659520956.053429,10906
1659520956.094903,10938
1659520956.136377,10965
1659520956.177851,11014
1659520956.217106,11049
1659520956.256362,11044
1659520956.295617,10985
1659520956.336579,10931
1659520956.377541,10908
1659520956.415772,10883
1659520956.454004,10877
1659520956.492235,10873
1659520956.53149,10873
1659520956.570745,10875
1659520956.610001,10878
1659520956.651475,10895
1659520956.692949,10907
1659520956.731521,10912
1659520956.770094,10957
1659520956.808667,10992
1659520956.851165,11056
1659520956.893663,11096
1659520956.938039,11142
1659520956.982414,11199
1659520957.02679,11234
1659520957.060071,11215
1659520957.093353,11170
1659520957.138411,11157
1659520957.18347,11133
1659520957.228528,11129
1659520957.261297,11125
1659520957.294067,11136
1659520957.338443,11153
1659520957.382818,11139
1659520957.427194,11143
1659520957.466108,11164
1659520957.505022,11196
1659520957.543936,11231
1659520957.586434,11277
1659520957.628932,11314
1659520957.666822,11349
1659520957.704711,11392
1659520957.742601,11436
1659520957.784587,11465
1659520957.826574,11425
1659520957.86617,11349
1659520957.905767,11303
1659520957.945364,11269
1659520957.983595,11236
1659520958.021826,11232
1659520958.060057,11230
1659520958.102556,11233
1659520958.145054,11230
1659520958.183967,11254
1659520958.222881,11275
1659520958.261795,11282
1659520958.302245,11305
1659520958.342695,11322
1659520958.381268,11345
1659520958.419841,11361
1659520958.458413,11407
1659520958.500399,11429
1659520958.542385,11452
1659520958.580617,11393
1659520958.618848,11286
1659520958.657079,11214
1659520958.701455,11143
1659520958.74583,11097
1659520958.790206,11074
1659520958.822975,11063
1659520958.855745,11074
1659520958.899779,11096
1659520958.943814,11135
1659520958.987848,11175
1659520959.021641,11224
1659520959.055435,11264
1659520959.100152,11307
1659520959.144869,11358
1659520959.189586,11387
1659520959.228158,11395
1659520959.266731,11416
1659520959.305304,11448
1659520959.34729,11479
1659520959.389276,11466
1659520959.428872,11407
1659520959.468469,11368
1659520959.508066,11354
1659520959.549028,11345
1659520959.58999,11347
1659520959.628221,11386
1659520959.666452,11416
1659520959.704684,11427
1659520959.743598,11443
1659520959.782511,11469
1659520959.821425,11499
1659520959.863411,11531
1659520959.905398,11564
1659520959.94397,11589
1659520959.982543,11629
1659520960.021115,11663
1659520960.063102,11684
1659520960.105088,11723
1659520960.144343,11752
1659520960.183598,11782
1659520960.222853,11764
1659520960.26484,11697
1659520960.306826,11660
1659520960.34574,11635
1659520960.384654,11618
1659520960.423568,11613
1659520960.465554,11623
1659520960.50754,11628
1659520960.546112,11620
1659520960.584685,11612
1659520960.623257,11624
1659520960.667633,11621
1659520960.712008,11624
1659520960.756384,11631
1659520960.79837,11636
1659520960.840356,11665
1659520960.878587,11683
1659520960.916819,11700
1659520960.95505,11719
1659520960.993623,11722
1659520961.032195,11701
1659520961.070768,11629
1659520961.112242,11545
1659520961.153716,11485
1659520961.19263,11456
1659520961.231544,11438
1659520961.270458,11439
1659520961.309031,11427
1659520961.347603,11420
1659520961.386176,11410
1659520961.430892,11384
1659520961.47561,11379
1659520961.520326,11388
1659520961.553608,11409
1659520961.58689,11428
1659520961.630924,11444
1659520961.674958,11467
1659520961.718992,11477
1659520961.757906,11503
1659520961.79682,11510
1659520961.835734,11499
1659520961.876184,11419
1659520961.916634,11314
1659520961.955889,11258
1659520961.995145,11221
1659520962.0344,11186
1659520962.073655,11163
1659520962.112911,11141
1659520962.152166,11130
1659520962.192616,11125
1659520962.233066,11138
1659520962.27198,11156
1659520962.310894,11174
1659520962.349808,11219
1659520962.392306,11247
1659520962.434804,11280
1659520962.473035,11309
1659520962.511267,11352
1659520962.549498,11364
1659520962.588412,11302
1659520962.627326,11221
1659520962.66624,11171
1659520962.708226,11138
1659520962.750212,11114
1659520962.788443,11098
1659520962.826674,11112
1659520962.864906,11109
1659520962.907404,11114
1659520962.949902,11140
1659520962.994619,11166
1659520963.039336,11202
1659520963.084053,11235
1659520963.11631,11268
1659520963.148568,11298
1659520963.192602,11341
1659520963.236636,11351
1659520963.28067,11350
1659520963.314976,11277
1659520963.349282,11208
1659520963.393999,11162
1659520963.438716,11105
1659520963.483433,11067
1659520963.522346,11036
1659520963.56126,11025
1659520963.600174,10996
1659520963.64216,10987
1659520963.684147,10992
1659520963.723061,11004
1659520963.761975,11032
1659520963.800889,11047
1659520963.842362,11075
1659520963.883837,11106
1659520963.92275,11133
1659520963.961664,11130
1659520964.000578,11039
1659520964.03881,10931
1659520964.077041,10848
1659520964.115272,10771
1659520964.156234,10721
1659520964.197196,10691
1659520964.235769,10677
1659520964.274341,10668
1659520964.312914,10650
1659520964.3549,10645
1659520964.396886,10654
1659520964.435459,10674
1659520964.474031,10697
1659520964.512604,10722
1659520964.554078,10753
1659520964.595552,10784
1659520964.634466,10813
1659520964.67338,10767
1659520964.712294,10642
1659520964.75428,10522
1659520964.796266,10435
1659520964.83518,10355
1659520964.874094,10310
1659520964.913008,10298
1659520964.957042,10301
1659520965.001076,10304
1659520965.045111,10303
1659520965.07788,10307
1659520965.11065,10330
1659520965.154343,10335
1659520965.198036,10347
1659520965.241729,10376
1659520965.280984,10406
1659520965.320239,10430
1659520965.359494,10454
1659520965.400969,10469
1659520965.442443,10356
1659520965.480674,10183
1659520965.518905,10032
1659520965.557136,9903
1659520965.599122,9797
1659520965.641109,9762
1659520965.680705,9754
1659520965.720302,9795
1659520965.759898,9794
1659520965.798471,9816
1659520965.837044,9853
1659520965.875616,9889
1659520965.917602,9936
1659520965.959589,9972
1659520965.998844,10018
1659520966.038099,10057
1659520966.077354,10098
1659520966.11934,10138
1659520966.161326,10182
1659520966.20024,10199
1659520966.239154,10126
1659520966.278068,9986
1659520966.319542,9870
1659520966.361017,9755
1659520966.398906,9655
1659520966.436796,9598
1659520966.474686,9562
1659520966.517184,9530
1659520966.559682,9491
1659520966.598596,9486
1659520966.63751,9495
1659520966.676424,9554
1659520966.720459,9612
1659520966.764493,9664
1659520966.808527,9722
1659520966.841809,9762
1659520966.87509,9813
1659520966.919807,9856
1659520966.964524,9908
1659520967.009241,9947
1659520967.050715,9888
1659520967.092189,9728
1659520967.130762,9600
1659520967.169334,9518
1659520967.207907,9434
1659520967.247162,9351
1659520967.286417,9318
1659520967.325673,9291
1659520967.366123,9271
1659520967.406573,9273
1659520967.445145,9299
1659520967.483718,9327
1659520967.522291,9372
1659520967.560863,9401
1659520967.599436,9409
1659520967.638008,9422
1659520967.679482,9432
1659520967.720957,9434
1659520967.759871,9466
1659520967.798784,9488
1659520967.837698,9502
1659520967.879684,9483
1659520967.921671,9354
1659520967.960243,9175
1659520967.998816,9048
1659520968.037388,8973
1659520968.079375,8922
1659520968.121361,8890
1659520968.160616,8923
1659520968.199871,8962
1659520968.239126,9016
1659520968.280088,9050
1659520968.321051,9090
1659520968.364743,9134
1659520968.408436,9185
1659520968.452129,9215
1659520968.486435,9267
1659520968.520741,9296
1659520968.565116,9328
1659520968.609492,9367
1659520968.653867,9403
1659520968.69244,9418
1659520968.731012,9352
1659520968.769585,9183
1659520968.811059,9025
1659520968.852533,8937
1659520968.891447,8851
1659520968.930361,8818
1659520968.969275,8824
1659520969.011261,8838
1659520969.053247,8845
1659520969.092502,8853
1659520969.131758,8873
1659520969.171013,8910
1659520969.209927,8965
1659520969.248841,9027
1659520969.287755,9090
1659520969.329229,9167
1659520969.370703,9242
1659520969.4103,9329
1659520969.449896,9407
1659520969.489493,9481
1659520969.530967,9546
1659520969.572441,9546
1659520969.611014,9400
1659520969.649586,9244
1659520969.688159,9129
1659520969.726732,9041
1659520969.765304,9003
1659520969.803877,9005
1659520969.846375,9025
1659520969.888873,9056
1659520969.932907,9071
1659520969.976941,9101
1659520970.020976,9149
1659520970.058353,9208
1659520970.095731,9282
1659520970.133109,9338
1659520970.170487,9402
1659520970.210084,9475
1659520970.24968,9527
1659520970.289277,9605
1659520970.333311,9668
1659520970.377345,9725
1659520970.42138,9778
1659520970.454661,9804
1659520970.487943,9738
1659520970.531977,9657
1659520970.576011,9610
1659520970.620046,9592
1659520970.653327,9608
1659520970.686609,9632
1659520970.730643,9681
1659520970.774677,9723
1659520970.818712,9758
1659520970.857625,9812
1659520970.896539,9879
1659520970.935453,9941
1659520970.973343,9997
1659520971.011233,10070
1659520971.049123,10133
1659520971.091109,10185
1659520971.133095,10254
1659520971.17235,10310
1659520971.211606,10369
1659520971.250861,10430
1659520971.289092,10493
1659520971.327324,10554
1659520971.365555,10566
1659520971.408565,10538
1659520971.451575,10517
1659520971.493561,10502
1659520971.535547,10494
1659520971.573437,10491
1659520971.611327,10520
1659520971.649217,10540
1659520971.693934,10579
1659520971.738651,10593
1659520971.783368,10621
1659520971.820746,10673
1659520971.858124,10718
1659520971.895501,10764
1659520971.932879,10814
1659520971.971793,10870
1659520972.010707,10929
1659520972.049621,10976
1659520972.094338,11031
1659520972.139055,11085
1659520972.183772,11143
1659520972.216542,11176
1659520972.249311,11181
1659520972.294028,11182
1659520972.338745,11191
1659520972.383462,11206
1659520972.42596,11226
1659520972.468458,11248
1659520972.507031,11272
1659520972.545603,11296
1659520972.584176,11322
1659520972.62309,11350
1659520972.662004,11384
1659520972.700918,11413
1659520972.743416,11442
1659520972.785914,11486
1659520972.824145,11513
1659520972.862376,11561
1659520972.900608,11585
1659520972.93918,11632
1659520972.977753,11669
1659520973.016325,11711
1659520973.0578,11753
1659520973.099274,11774
1659520973.138187,11768
1659520973.177101,11747
1659520973.216015,11739
1659520973.256978,11747
1659520973.29794,11748
1659520973.337195,11770
1659520973.37645,11802
1659520973.415705,11818
1659520973.456667,11844
1659520973.497629,11874
1659520973.536885,11904
1659520973.57614,11938
1659520973.615395,11982
1659520973.656869,12005
1659520973.698344,12046
1659520973.74306,12077
1659520973.787777,12125
1659520973.832494,12168
1659520973.870725,12194
1659520973.908957,12224
1659520973.947188,12223
1659520973.988662,12187
1659520974.030136,12148
1659520974.06905,12123
1659520974.107964,12098
1659520974.146878,12073
1659520974.187328,12078
1659520974.227778,12084
1659520974.266692,12088
1659520974.305606,12100
1659520974.34452,12120
1659520974.383434,12132
1659520974.422348,12160
1659520974.461262,12199
1659520974.503248,12213
1659520974.545234,12248
1659520974.584148,12267
1659520974.623062,12288
1659520974.661976,12326
1659520974.70345,12350
1659520974.744924,12370
1659520974.784179,12377
1659520974.823435,12333
1659520974.86269,12279
1659520974.901262,12240
1659520974.939835,12234
1659520974.978408,12214
1659520975.020906,12198
1659520975.063404,12198
1659520975.101976,12188
1659520975.140549,12190
1659520975.179121,12165
1659520975.220084,12168
1659520975.261046,12182
1659520975.305763,12185
1659520975.35048,12189
1659520975.395196,12191
1659520975.429502,12194
1659520975.463808,12187
1659520975.507501,12196
1659520975.551193,12179
1659520975.594886,12181
1659520975.634142,12196
1659520975.673397,12090
1659520975.712652,11917
1659520975.754126,11753
1659520975.7956,11604
1659520975.834514,11459
1659520975.873428,11330
1659520975.912342,11229
1659520975.954328,11135
1659520975.996315,11035
1659520976.03557,10965
1659520976.074825,10907
1659520976.11408,10881
1659520976.15197,10857
1659520976.18986,10845
1659520976.22775,10862
1659520976.269224,10873
1659520976.310698,10908
1659520976.349271,10940
1659520976.387843,10979
1659520976.426416,11013
1659520976.46789,11052
1659520976.509364,11005
1659520976.548278,10893
1659520976.587192,10799
1659520976.626106,10711
1659520976.664679,10651
1659520976.703251,10623
1659520976.741824,10609
1659520976.782786,10596
1659520976.823748,10593
1659520976.866246,10594
1659520976.908744,10629
1659520976.947658,10676
1659520976.986572,10718
1659520977.025486,10785
1659520977.069861,10848
1659520977.114237,10920
1659520977.158613,10994
1659520977.19087,11060
1659520977.223128,11130
1659520977.267845,11190
1659520977.312562,11245
1659520977.357279,11198
1659520977.390048,11101
1659520977.422818,11041
1659520977.466852,10952
1659520977.510886,10896
1659520977.55492,10857
1659520977.593834,10825
1659520977.632748,10797
1659520977.671662,10786
1659520977.713136,10798
1659520977.754611,10826
1659520977.793866,10860
1659520977.833121,10904
1659520977.872376,10953
1659520977.914362,10993
1659520977.956348,11035
1659520977.994921,11077
1659520978.033494,11102
1659520978.072066,11110
1659520978.111322,11031
1659520978.150577,10929
1659520978.189832,10846
1659520978.23233,10787
1659520978.274828,10741
1659520978.31306,10703
1659520978.351291,10695
1659520978.389522,10658
1659520978.430484,10638
1659520978.471446,10630
1659520978.51036,10632
1659520978.549274,10649
1659520978.588188,10676
1659520978.630174,10715
1659520978.67216,10739
1659520978.710733,10772
1659520978.749305,10808
1659520978.787878,10846
1659520978.82884,10878
1659520978.869802,10853
1659520978.909058,10761
1659520978.948313,10632
1659520978.987568,10434
1659520979.031602,10237
1659520979.075637,10091
1659520979.119671,9980
1659520979.162169,9904
1659520979.204667,9832
1659520979.24324,9783
1659520979.281812,9741
1659520979.320385,9722
1659520979.361859,9737
1659520979.403333,9805
1659520979.441905,9877
1659520979.480478,9928
1659520979.519051,9984
1659520979.557623,10044
1659520979.596196,10091
1659520979.634768,10132
1659520979.673341,10134
1659520979.711914,10085
1659520979.750486,10046
1659520979.792472,10033
1659520979.834459,10024
1659520979.873372,10029
1659520979.912286,10064
1659520979.9512,10080
1659520979.992162,10108
1659520980.033124,10137
1659520980.071356,10180
1659520980.109587,10226
1659520980.147818,10263
1659520980.190828,10310
1659520980.233839,10355
1659520980.272411,10410
1659520980.310984,10450
1659520980.349556,10499
1659520980.390518,10539
1659520980.43148,10554
1659520980.470736,10537
1659520980.509991,10525
1659520980.549246,10534
1659520980.593281,10555
1659520980.637315,10578
1659520980.681349,10616
1659520980.722823,10658
1659520980.764297,10713
1659520980.803211,10748
1659520980.842125,10794
1659520980.881039,10868
1659520980.919611,10912
1659520980.958184,10981
1659520980.996757,11044
1659520981.038231,11088
1659520981.079705,11131
1659520981.119643,11152
1659520981.159581,11190
1659520981.199519,11211
1659520981.241505,11176
1659520981.283491,11047
1659520981.321722,10919
1659520981.359953,10816
1659520981.398185,10691
1659520981.440683,10586
1659520981.483181,10524
1659520981.522436,10500
1659520981.561692,10473
1659520981.600947,10452
1659520981.639519,10442
1659520981.678092,10450
1659520981.716665,10485
1659520981.758139,10506
1659520981.799613,10524
1659520981.838185,10524
1659520981.876758,10505
1659520981.915331,10505
1659520981.956805,10543
1659520981.998279,10582
1659520982.037193,10587
1659520982.076107,10501
1659520982.115021,10343
1659520982.156495,10211
1659520982.197969,10121
1659520982.237907,10028
1659520982.277845,9980
1659520982.317783,9967
1659520982.357721,9961
1659520982.397659,9975
1659520982.442717,9984
1659520982.487775,10020
1659520982.532834,10054
1659520982.565091,10073
1659520982.597349,10088
1659520982.642066,10098
1659520982.686783,10156
1659520982.731499,10204
1659520982.770072,10292
1659520982.808645,10362
1659520982.847217,10426
1659520982.889203,10496
1659520982.931189,10483
1659520982.969421,10348
1659520983.007652,10186
1659520983.045883,10069
1659520983.087357,9970
1659520983.128831,9906
1659520983.167063,9885
1659520983.205294,9869
1659520983.243525,9870
1659520983.282439,9873
1659520983.321353,9901
1659520983.360267,9962
1659520983.402765,10002
1659520983.445263,10072
1659520983.484177,10130
1659520983.523091,10203
1659520983.562005,10272
1659520983.600578,10345
1659520983.63915,10405
1659520983.677723,10458
1659520983.719709,10488
1659520983.761695,10490
1659520983.803681,10516
1659520983.845667,10592
1659520983.88424,10673
1659520983.922812,10786
1659520983.961385,10893
1659520984.002859,11003
1659520984.044333,11088
1659520984.083247,11132
1659520984.122161,11131
1659520984.161075,11147
1659520984.204768,11193
1659520984.248461,11263
1659520984.292153,11336
1659520984.325947,11427
1659520984.359741,11514
1659520984.404458,11591
1659520984.449175,11665
1659520984.493891,11643
1659520984.535878,11574
1659520984.577864,11530
1659520984.616778,11506
1659520984.655692,11492
1659520984.694606,11502
1659520984.734202,11512
1659520984.773799,11531
1659520984.813396,11557
1659520984.85487,11579
1659520984.896344,11607
1659520984.935258,11638
1659520984.974172,11685
1659520985.013086,11723
1659520985.05456,11775
1659520985.096034,11810
1659520985.134606,11847
1659520985.173179,11887
1659520985.211751,11890
1659520985.250665,11737
1659520985.289579,11607
1659520985.328493,11525
1659520985.370479,11461
1659520985.412466,11431
1659520985.450697,11431
1659520985.488928,11436
1659520985.527159,11443
1659520985.568121,11446
1659520985.609083,11464
1659520985.649021,11507
1659520985.688959,11539
1659520985.728897,11567
1659520985.769859,11616
1659520985.810822,11673
1659520985.849053,11721
1659520985.887284,11783
1659520985.925515,11889
1659520985.967501,12010
1659520986.009487,12159
1659520986.053863,12285
1659520986.098238,12370
1659520986.142614,12401
1659520986.181187,12368
1659520986.219759,12356
1659520986.258332,12315
1659520986.299806,12291
1659520986.34128,12261
1659520986.380194,12203
1659520986.419108,12168
1659520986.458022,12136
1659520986.495912,12120
1659520986.533802,12117
1659520986.571692,12170
1659520986.614702,12275
1659520986.657712,12403
1659520986.696626,12462
1659520986.73554,12472
1659520986.774454,12507
1659520986.815416,12528
1659520986.856378,12549
1659520986.895974,12546
1659520986.935571,12553
1659520986.975168,12562
1659520987.017666,12575
1659520987.060164,12612
1659520987.098737,12638
1659520987.137309,12663
1659520987.175882,12702
1659520987.214796,12729
1659520987.25371,12763
1659520987.292624,12789
1659520987.334098,12827
1659520987.375572,12858
1659520987.413803,12866
1659520987.452034,12900
1659520987.490265,12918
1659520987.532252,12933
1659520987.574238,12903
1659520987.618955,12866
1659520987.663671,12840
1659520987.708388,12838
1659520987.746961,12843
1659520987.785533,12857
1659520987.824106,12874
1659520987.866092,12903
1659520987.908078,12928
1659520987.947334,12931
1659520987.986589,12941
1659520988.025844,12964
1659520988.067318,12977
1659520988.108792,12992
1659520988.147706,12997
1659520988.18662,12987
1659520988.225534,12990
1659520988.26479,13001
1659520988.304045,12991
1659520988.3433,12846
1659520988.38375,12631
1659520988.4242,12446
1659520988.462773,12290
1659520988.501345,12172
1659520988.539918,12075
1659520988.579173,12011
1659520988.618428,11949
1659520988.657684,11889
1659520988.699158,11874
1659520988.740632,11855
1659520988.778863,11867
1659520988.817095,11871
1659520988.855326,11883
1659520988.8968,11889
1659520988.938274,11904
1659520988.982649,11932
1659520989.027025,11957
1659520989.071401,11951
1659520989.105194,11833
1659520989.138988,11744
1659520989.183705,11703
1659520989.228422,11694
1659520989.273139,11689
1659520989.312052,11694
1659520989.350966,11733
1659520989.38988,11736
1659520989.430331,11736
1659520989.470781,11730
1659520989.510036,11732
1659520989.549291,11754
1659520989.588547,11794
1659520989.629508,11815
1659520989.67047,11853
1659520989.709043,11898
1659520989.747616,11936
1659520989.786188,11982
1659520989.824761,12003
1659520989.863333,11925
1659520989.901906,11869
1659520989.944404,11839
1659520989.986902,11855
1659520990.025475,11893
1659520990.064048,11939
1659520990.10262,11975
1659520990.141876,12006
1659520990.181131,12051
1659520990.220386,12085
1659520990.262372,12097
1659520990.304358,12109
1659520990.342931,12109
1659520990.381503,12102
1659520990.420076,12091
1659520990.462062,12097
1659520990.504048,12068
1659520990.549106,11916
1659520990.594165,11730
1659520990.639223,11598
1659520990.671481,11520
1659520990.703738,11449
1659520990.747772,11416
1659520990.791807,11384
1659520990.835841,11360
1659520990.875096,11358
1659520990.914351,11353
1659520990.953607,11374
1659520990.995081,11416
1659520991.036555,11465
1659520991.075127,11503
1659520991.1137,11559
1659520991.152273,11607
1659520991.194771,11651
1659520991.237269,11710
1659520991.275841,11749
1659520991.314414,11788
1659520991.352987,11823
1659520991.391901,11864
1659520991.430815,11919
1659520991.469728,11967
1659520991.512227,12034
1659520991.554725,12104
1659520991.592956,12165
1659520991.631187,12141
1659520991.669419,12088
1659520991.70765,12047
1659520991.745881,12000
1659520991.784112,11970
1659520991.825586,11971
1659520991.86706,11973
1659520991.905974,11979
1659520991.944888,12005
1659520991.983802,12061
1659520992.024764,12107
1659520992.065726,12149
1659520992.110102,12194
1659520992.154477,12230
1659520992.198853,12254
1659520992.231623,12275
1659520992.264392,12293
1659520992.308426,12304
1659520992.352461,12305
1659520992.396495,12335
1659520992.430289,12356
1659520992.464082,12367
1659520992.508799,12392
1659520992.553516,12423
1659520992.598233,12463
1659520992.636806,12500
1659520992.675378,12492
1659520992.713951,12485
1659520992.752865,12492
1659520992.791779,12475
1659520992.830693,12455
1659520992.869265,12452
1659520992.907838,12461
1659520992.94641,12442
1659520992.990786,12379
1659520993.035161,12277
1659520993.079537,12144
1659520993.113331,11999
1659520993.147124,11850
1659520993.191159,11711
1659520993.235193,11589
1659520993.279227,11475
1659520993.312509,11296
1659520993.34579,10976
1659520993.390507,10602
1659520993.435224,10286
1659520993.479941,10039
1659520993.518855,9845
1659520993.557769,9709
1659520993.596683,9646
1659520993.638669,9633
1659520993.680655,9638
1659520993.71991,9648
1659520993.759166,9635
1659520993.798421,9631
1659520993.839383,9648
1659520993.880345,9691
1659520993.918918,9760
1659520993.95749,9861
1659520993.996063,9898
1659520994.035318,9935
1659520994.074574,9941
1659520994.113829,9906
1659520994.154791,9889
1659520994.195753,9878
1659520994.234325,9906
1659520994.272898,9969
1659520994.311471,10007
1659520994.352945,10021
1659520994.394419,10057
1659520994.434357,10115
1659520994.474295,10158
1659520994.514233,10225
1659520994.555707,10296
1659520994.597181,10398
1659520994.635412,10497
1659520994.673643,10585
1659520994.711875,10654
1659520994.754373,10685
1659520994.796871,10673
1659520994.835785,10661
1659520994.874699,10676
1659520994.913613,10685
1659520994.957988,10681
1659520995.002364,10763
1659520995.046739,10849
1659520995.087189,10864
1659520995.12764,10823
1659520995.166553,10796
1659520995.205467,10797
1659520995.244381,10802
1659520995.284831,10821
1659520995.325281,10826
1659520995.364537,10826
1659520995.403792,10823
1659520995.443047,10784
1659520995.48162,10636
1659520995.520192,10364
1659520995.558765,10116
1659520995.599727,9891
1659520995.640689,9698
1659520995.680286,9552
1659520995.719882,9444
1659520995.759479,9363
1659520995.801465,9266
1659520995.843451,9187
1659520995.881683,9139
1659520995.919914,9115
1659520995.958145,9137
1659520995.997742,9159
1659520996.037338,9185
1659520996.076935,9219
1659520996.117897,9257
1659520996.158859,9195
1659520996.197432,9048
1659520996.236004,8882
1659520996.274577,8787
1659520996.317075,8720
1659520996.359573,8672
1659520996.398487,8638
1659520996.437401,8622
1659520996.476315,8607
1659520996.516765,8577
1659520996.557215,8587
1659520996.601932,8609
1659520996.646649,8648
1659520996.691366,8684
1659520996.725672,8719
1659520996.759977,8743
1659520996.804011,8778
1659520996.848046,8794
1659520996.89208,8791
1659520996.931335,8677
1659520996.97059,8528
1659520997.009846,8438
1659520997.051832,8384
1659520997.093818,8365
1659520997.132049,8364
1659520997.17028,8411
1659520997.208512,8437
1659520997.25101,8454
1659520997.293508,8483
1659520997.332422,8523
1659520997.371336,8569
1659520997.41025,8611
1659520997.44814,8672
1659520997.486029,8720
1659520997.523919,8770
1659520997.564881,8823
1659520997.605844,8865
1659520997.645099,8894
1659520997.684354,8806
1659520997.723609,8670
1659520997.765083,8549
1659520997.806557,8502
1659520997.845471,8481
1659520997.884385,8496
1659520997.923299,8549
1659520997.965029,8585
1659520998.006759,8605
1659520998.04849,8635
1659520998.09022,8671
1659520998.131182,8710
1659520998.172144,8745
1659520998.211058,8802
1659520998.249972,8855
1659520998.288886,8921
1659520998.327458,8991
1659520998.366031,9046
1659520998.404603,9023
1659520998.446589,8919
1659520998.488576,8827
1659520998.527148,8769
1659520998.565721,8723
1659520998.604293,8723
1659520998.645767,8734
1659520998.687242,8768
1659520998.726156,8761
1659520998.765069,8757
1659520998.803983,8789
1659520998.845458,8826
1659520998.886931,8878
1659520998.926187,8929
1659520998.965442,8982
1659520999.004697,9026
1659520999.046684,9096
1659520999.08867,9144
1659520999.127242,9156
1659520999.165815,9090
1659520999.204387,8958
1659520999.249104,8877
1659520999.293821,8824
1659520999.338538,8790
1659520999.372844,8784
1659520999.40715,8810
1659520999.450842,8827
1659520999.494535,8850
1659520999.538228,8872
1659520999.579702,8907
1659520999.621176,8948
1659520999.66009,8994
1659520999.699004,9045
1659520999.737918,9103
1659520999.776491,9158
1659520999.815063,9220
1659520999.853636,9272
1659520999.895622,9335
1659520999.937608,9310
1659520999.977205,9198
1659521000.016801,9120
1659521000.056398,9059
1659521000.09736,9028
1659521000.138322,9030
1659521000.177236,9056
1659521000.21615,9085
1659521000.255064,9123
1659521000.298074,9140
1659521000.341084,9164
1659521000.379657,9213
1659521000.418229,9262
1659521000.456802,9311
1659521000.495375,9365
1659521000.533947,9414
1659521000.57252,9462
1659521000.613994,9524
1659521000.655468,9568
1659521000.694041,9572
1659521000.732613,9484
1659521000.771186,9352
1659521000.812148,9265
1659521000.85311,9222
1659521000.891682,9199
1659521000.930255,9215
1659521000.968828,9236
1659521001.013203,9265
1659521001.057579,9285
1659521001.101954,9300
1659521001.142916,9344
1659521001.183878,9381
1659521001.223816,9429
1659521001.263754,9481
1659521001.303692,9520
1659521001.344655,9567
1659521001.385617,9612
1659521001.424189,9650
1659521001.462762,9634
1659521001.501334,9488
1659521001.540248,9364
1659521001.579162,9275
1659521001.618076,9215
1659521001.660062,9185
1659521001.702048,9206
1659521001.740621,9220
1659521001.779194,9246
1659521001.817766,9261
1659521001.85668,9263
1659521001.895594,9295
1659521001.934508,9310
1659521001.97547,9346
1659521002.016432,9390
1659521002.054663,9413
1659521002.092895,9440
1659521002.131126,9454
1659521002.173624,9474
1659521002.216122,9473
1659521002.255036,9372
1659521002.29395,9192
1659521002.332864,9054
1659521002.374338,8981
1659521002.415812,8921
1659521002.455067,8886
1659521002.494323,8892
1659521002.533578,8906
1659521002.575564,8911
1659521002.61755,8921
1659521002.662267,8936
1659521002.706984,8952
1659521002.751701,8992
1659521002.784471,9022
1659521002.81724,9059
1659521002.861957,9105
1659521002.906674,9132
1659521002.951391,9171
1659521002.989622,9208
1659521003.027853,9237
1659521003.066085,9186
1659521003.108583,9035
1659521003.151081,8903
1659521003.188459,8823
1659521003.225837,8783
1659521003.263214,8744
1659521003.300592,8742
1659521003.341554,8766
1659521003.382516,8772
1659521003.42143,8774
1659521003.460344,8784
1659521003.499258,8818
1659521003.540732,8847
1659521003.582206,8892
1659521003.621462,8935
1659521003.660717,8984
1659521003.699972,9035
1659521003.744348,9078
1659521003.788723,9120
1659521003.833099,9152
1659521003.865869,9078
1659521003.898638,8961
1659521003.942331,8873
1659521003.986024,8827
1659521004.029717,8793
1659521004.068289,8782
1659521004.106862,8808
1659521004.145435,8822
1659521004.187421,8841
1659521004.229407,8856
1659521004.267979,8883
1659521004.306552,8914
1659521004.345124,8941
1659521004.386599,8985
1659521004.428073,9007
1659521004.467669,9040
1659521004.507266,9084
1659521004.546863,9122
1659521004.585435,9103
1659521004.624008,8993
1659521004.66258,8879
1659521004.704055,8798
1659521004.745529,8751
1659521004.785125,8716
1659521004.824722,8713
1659521004.864319,8751
1659521004.904768,8787
1659521004.945219,8807
1659521004.983109,8822
1659521005.020998,8856
1659521005.058888,8897
1659521005.101898,8939
1659521005.144909,8990
1659521005.183481,9034
1659521005.222054,9084
1659521005.260626,9127
1659521005.301076,9173
1659521005.341527,9234
1659521005.380782,9223
1659521005.420037,9118
1659521005.459292,9000
1659521005.500937,8919
1659521005.542582,8864
1659521005.584227,8828
1659521005.625871,8817
1659521005.667516,8851
1659521005.709161,8904
1659521005.749099,8931
1659521005.789037,8962
1659521005.828975,9023
1659521005.867547,9071
1659521005.90612,9142
1659521005.944693,9206
1659521005.986679,9267
1659521006.028665,9325
1659521006.067579,9397
1659521006.106493,9449
1659521006.145407,9507
1659521006.187393,9575
1659521006.229379,9593
1659521006.26761,9541
1659521006.305841,9482
1659521006.344073,9460
1659521006.385547,9424
1659521006.427021,9403
1659521006.471055,9415
1659521006.515089,9433
1659521006.559123,9452
1659521006.592405,9451
1659521006.625687,9458
1659521006.670403,9478
1659521006.715121,9501
1659521006.759837,9544
1659521006.79841,9592
1659521006.836982,9631
1659521006.875555,9676
1659521006.916517,9729
1659521006.957479,9771
1659521006.996735,9820
1659521007.03599,9862
1659521007.075245,9802
1659521007.113476,9697
1659521007.151708,9621
1659521007.189939,9564
1659521007.231925,9524
1659521007.273911,9523
1659521007.312484,9535
1659521007.351056,9549
1659521007.389629,9553
1659521007.42786,9556
1659521007.466091,9571
1659521007.504323,9599
1659521007.545285,9629
1659521007.586247,9670
1659521007.625161,9694
1659521007.664075,9742
1659521007.702989,9776
1659521007.744975,9836
1659521007.786961,9875
1659521007.826216,9853
1659521007.865471,9791
1659521007.904727,9708
1659521007.949102,9682
1659521007.993478,9649
1659521008.037853,9650
1659521008.076767,9670
1659521008.115681,9691
1659521008.154595,9696
1659521008.195557,9711
1659521008.236519,9733
1659521008.276116,9752
1659521008.315712,9792
1659521008.355309,9823
1659521008.396271,9861
1659521008.437233,9902
1659521008.476147,9946
1659521008.515061,9996
1659521008.553975,10029
1659521008.592548,9992
1659521008.63112,9920
1659521008.669693,9872
1659521008.712191,9848
1659521008.754689,9833
1659521008.793262,9835
1659521008.831834,9856
1659521008.870407,9850
1659521008.911881,9860
1659521008.953355,9874
1659521008.992952,9906
1659521009.032548,9959
1659521009.072145,10007
1659521009.113619,10056
1659521009.155093,10095
1659521009.193324,10146
1659521009.231556,10184
1659521009.269787,10231
1659521009.312285,10198
1659521009.354783,10117
1659521009.398817,10049
1659521009.442852,10005
1659521009.486886,9986
1659521009.525458,9971
1659521009.564031,9984
1659521009.602603,10005
1659521009.64459,10029
1659521009.686576,10058
1659521009.72549,10095
1659521009.764404,10144
1659521009.803318,10207
1659521009.841208,10267
1659521009.879097,10332
1659521009.916987,10388
1659521009.958973,10441
1659521010.000959,10501
1659521010.039873,10553
1659521010.078787,10548
1659521010.117701,10468
1659521010.156274,10395
1659521010.194846,10330
1659521010.233419,10283
1659521010.278477,10234
1659521010.323536,10214
1659521010.368594,10218
1659521010.401875,10217
1659521010.435157,10217
1659521010.47885,10214
1659521010.522543,10222
1659521010.566236,10229
1659521010.599517,10248
1659521010.632799,10274
1659521010.676833,10297
1659521010.720867,10328
1659521010.764902,10360
1659521010.803474,10396
1659521010.842047,10405
1659521010.88062,10373
1659521010.922606,10270
1659521010.964592,10124
1659521011.003506,10023
1659521011.04242,9918
1659521011.081334,9847
1659521011.120247,9803
1659521011.159161,9783
1659521011.198075,9767
1659521011.240573,9750
1659521011.283072,9749
1659521011.321985,9746
1659521011.360899,9763
1659521011.399813,9792
1659521011.441288,9802
1659521011.482762,9832
1659521011.522017,9854
1659521011.561272,9874
1659521011.600528,9897
1659521011.6391,9908
1659521011.677673,9930
1659521011.716245,9859
1659521011.758231,9766
1659521011.800217,9682
1659521011.841691,9641
1659521011.883166,9641
1659521011.92208,9650
1659521011.960994,9693
1659521011.999907,9734
1659521012.041893,9752
1659521012.08388,9776
1659521012.122452,9819
1659521012.161025,9838
1659521012.199597,9867
1659521012.244656,9894
1659521012.289714,9919
1659521012.334772,9962
1659521012.367542,9990
1659521012.400311,10032
1659521012.442042,10070
1659521012.483772,10115
1659521012.525502,10108
1659521012.567232,10019
1659521012.606487,9939
1659521012.645742,9875
1659521012.684998,9836
1659521012.728691,9793
1659521012.772383,9778
1659521012.816076,9778
1659521012.84987,9785
1659521012.883664,9796
1659521012.927698,9801
1659521012.971732,9830
1659521013.015766,9853
1659521013.054339,9876
1659521013.092911,9908
1659521013.131484,9915
1659521013.172446,9945
1659521013.213408,9979
1659521013.251981,10005
1659521013.290553,10040
1659521013.329126,10058
1659521013.371112,9998
1659521013.413098,9887
1659521013.452012,9807
1659521013.490926,9753
1659521013.52984,9715
1659521013.569095,9712
1659521013.608351,9712
1659521013.647606,9728
1659521013.686178,9716
1659521013.724751,9729
1659521013.763324,9751
1659521013.804286,9790
1659521013.845248,9828
1659521013.884503,9855
1659521013.923758,9906
1659521013.963014,9944
1659521014.006706,9981
1659521014.050399,10019
1659521014.094092,10001
1659521014.13659,9908
1659521014.179089,9776
1659521014.218002,9683
1659521014.256916,9617
1659521014.29583,9571
1659521014.337304,9570
1659521014.378778,9563
1659521014.417351,9562
1659521014.455924,9541
1659521014.494496,9543
1659521014.536994,9562
1659521014.579493,9583
1659521014.618407,9624
1659521014.65732,9647
1659521014.696234,9684
1659521014.735148,9732
1659521014.774062,9766
1659521014.812976,9784
1659521014.855474,9710
1659521014.897972,9569
1659521014.936886,9445
1659521014.9758,9371
1659521015.014714,9294
1659521015.053287,9253
1659521015.09186,9268
1659521015.130432,9280
1659521015.171906,9299
1659521015.21338,9307
1659521015.251611,9337
1659521015.289843,9372
1659521015.328074,9428
1659521015.37006,9463
1659521015.412046,9514
1659521015.45096,9564
1659521015.489874,9617
1659521015.528788,9668
1659521015.570262,9719
1659521015.611736,9704
1659521015.65577,9585
1659521015.699805,9457
1659521015.743839,9367
1659521015.778144,9308
1659521015.81245,9274
1659521015.856826,9274
1659521015.901201,9295
1659521015.945577,9339
1659521015.984149,9340
1659521016.022722,9365
1659521016.061295,9412
1659521016.102769,9445
1659521016.144243,9501
1659521016.182815,9547
1659521016.221388,9606
1659521016.259961,9654
1659521016.301435,9717
1659521016.342909,9764
1659521016.381823,9813
1659521016.420737,9810
1659521016.459651,9697
1659521016.497882,9583
1659521016.536113,9508
1659521016.574344,9437
1659521016.615306,9403
1659521016.656268,9417
1659521016.695524,9429
1659521016.734779,9441
1659521016.774034,9455
1659521016.812948,9481
1659521016.851862,9506
1659521016.890776,9554
1659521016.932762,9574
1659521016.974748,9624
1659521017.016734,9669
1659521017.058721,9701
1659521017.100707,9739
1659521017.142693,9769
1659521017.183655,9800
1659521017.224617,9746
1659521017.262848,9611
1659521017.301079,9458
1659521017.339311,9355
1659521017.378225,9271
1659521017.417138,9215
1659521017.456052,9212
1659521017.498039,9234
1659521017.540025,9232
1659521017.578597,9226
1659521017.61717,9228
1659521017.655742,9228
1659521017.697728,9244
1659521017.739715,9260
1659521017.779311,9292
1659521017.818908,9321
1659521017.858505,9365
1659521017.899979,9397
1659521017.941453,9431
1659521017.980367,9478
1659521018.019281,9444
1659521018.058195,9303
1659521018.100181,9158
1659521018.142167,9050
1659521018.181081,8986
1659521018.219995,8933
1659521018.258909,8933
1659521018.300895,8958
1659521018.342881,9000
1659521018.381795,9009
1659521018.420709,9027
1659521018.459623,9067
1659521018.503315,9100
1659521018.547008,9156
1659521018.590701,9204
1659521018.631663,9255
1659521018.672625,9306
1659521018.711198,9356
1659521018.74977,9409
1659521018.788343,9453
1659521018.827257,9514
1659521018.866171,9568
1659521018.905085,9571
1659521018.943657,9455
1659521018.98223,9298
1659521019.020803,9213
1659521019.060399,9113
1659521019.099996,9034
1659521019.139593,8992
1659521019.180555,9009
1659521019.221517,9014
1659521019.260431,9004
1659521019.299345,9015
1659521019.338259,9018
1659521019.379989,9034
1659521019.421719,9042
1659521019.463449,9035
1659521019.505179,9069
1659521019.543069,9091
1659521019.580959,9128
1659521019.618849,9149
1659521019.660323,9183
1659521019.701797,9212
1659521019.740369,9247
1659521019.778942,9274
1659521019.817514,9179
1659521019.858989,8996
1659521019.900463,8855
1659521019.939718,8775
1659521019.978973,8713
1659521020.018229,8668
1659521020.059703,8674
1659521020.101177,8693
1659521020.145552,8699
1659521020.189928,8701
1659521020.234303,8726
1659521020.273559,8758
1659521020.312814,8791
1659521020.352069,8836
1659521020.394567,8875
1659521020.437066,8915
1659521020.474955,8964
1659521020.512845,9005
1659521020.550735,9062
1659521020.592209,9101
1659521020.633683,9155
1659521020.672597,9215
1659521020.711511,9221
1659521020.750425,9093
1659521020.789339,8959
1659521020.828253,8898
1659521020.867167,8854
1659521020.908641,8835
1659521020.950115,8847
1659521020.989371,8884
1659521021.028626,8912
1659521021.067881,8943
1659521021.108843,8961
1659521021.149805,8988
1659521021.18906,9034
1659521021.228316,9081
1659521021.267571,9126
1659521021.306826,9179
1659521021.346082,9227
1659521021.385337,9280
1659521021.426299,9336
1659521021.467261,9381
1659521021.505834,9433
1659521021.544406,9485
1659521021.582979,9467
1659521021.625477,9337
1659521021.667975,9219
1659521021.709108,9156
1659521021.750241,9122
1659521021.791373,9111
1659521021.832506,9118
1659521021.873639,9145
1659521021.914771,9166
1659521021.9543,9179
1659521021.993828,9208
1659521022.033357,9267
1659521022.072885,9304
1659521022.112413,9330
1659521022.150047,9379
1659521022.187681,9428
1659521022.225315,9481
1659521022.262949,9529
1659521022.307324,9573
1659521022.3517,9633
1659521022.396075,9679
1659521022.437037,9637
1659521022.478,9500
1659521022.517255,9385
1659521022.55651,9332
1659521022.595766,9299
1659521022.63468,9294
1659521022.673593,9303
1659521022.712507,9316
1659521022.753469,9332
1659521022.794431,9333
1659521022.833004,9364
1659521022.871577,9381
1659521022.910149,9404
1659521022.952135,9445
1659521022.994121,9491
1659521023.033035,9530
1659521023.071949,9571
1659521023.110863,9617
1659521023.149095,9661
1659521023.187326,9692
1659521023.225557,9663
1659521023.267543,9529
1659521023.309529,9402
1659521023.348443,9361
1659521023.387357,9335
1659521023.426271,9319
1659521023.468257,9322
1659521023.510243,9357
1659521023.54984,9365
1659521023.589437,9399
1659521023.629033,9430
1659521023.671019,9453
1659521023.713005,9489
1659521023.750895,9523
1659521023.788785,9573
1659521023.826675,9602
1659521023.869685,9629
1659521023.912695,9683
1659521023.95673,9717
1659521024.000764,9745
1659521024.044798,9682
1659521024.083371,9563
1659521024.121943,9463
1659521024.160516,9424
1659521024.201478,9396
1659521024.24244,9385
1659521024.282037,9411
1659521024.321633,9421
1659521024.36123,9432
1659521024.399461,9458
1659521024.437692,9488
1659521024.475924,9520
1659521024.518422,9554
1659521024.56092,9590
1659521024.600175,9630
1659521024.63943,9675
1659521024.678686,9730
1659521024.719648,9770
1659521024.76061,9836
1659521024.799865,9825
1659521024.83912,9724
1659521024.878376,9598
1659521024.920874,9531
1659521024.963372,9511
1659521025.001262,9494
1659521025.039152,9523
1659521025.077042,9545
1659521025.115956,9566
1659521025.15487,9566
1659521025.193784,9598
1659521025.234746,9636
1659521025.275707,9682
1659521025.314621,9722
1659521025.353535,9772
1659521025.392449,9819
1659521025.436825,9898
1659521025.4812,10032
1659521025.525576,10171
1659521025.567562,10258
1659521025.609548,10259
1659521025.647779,10208
1659521025.686011,10196
1659521025.724242,10211
1659521025.765716,10230
1659521025.80719,10276
1659521025.846787,10301
1659521025.886384,10306
1659521025.92598,10308
1659521025.964553,10312
1659521026.003125,10315
1659521026.041698,10331
1659521026.083172,10351
1659521026.124646,10357
1659521026.16356,10395
1659521026.202474,10437
1659521026.241388,10431
1659521026.279619,10330
1659521026.31785,10187
1659521026.356081,10145
1659521026.39858,10189
1659521026.441078,10308
1659521026.47965,10432
1659521026.518223,10557
1659521026.556796,10681
1659521026.59827,10785
1659521026.639744,10876
1659521026.678658,10917
1659521026.717572,10918
1659521026.756486,10887
1659521026.798984,10826
1659521026.841482,10729
1659521026.880737,10577
1659521026.919992,10381
1659521026.959248,10030
1659521027.000722,9498
1659521027.042196,8535
1659521027.086571,7366
1659521027.130947,6869
1659521027.175323,6887
1659521027.209628,7064
1659521027.243934,7397
1659521027.287627,7479
1659521027.33132,7245
1659521027.375013,6907
1659521027.413927,6748
1659521027.452841,6470
1659521027.491754,6331
1659521027.532717,6319
1659521027.573678,6263
1659521027.612592,6280
1659521027.651506,6546
1659521027.69042,7005
1659521027.732406,7483
1659521027.774393,7968
1659521027.813307,8688
1659521027.852221,9412
1659521027.891135,9025
1659521027.930048,8670
1659521027.968962,7807
1659521028.007876,6694
1659521028.04935,5991
1659521028.090824,6186
1659521028.13008,7112
1659521028.169335,6539
1659521028.20859,1297
1659521028.250064,375
1659521028.291538,354
1659521028.329428,359
1659521028.367318,356
1659521028.405208,361
1659521028.444463,363
1659521028.483719,359
1659521028.522974,359
1659521028.563424,371
1659521028.603874,363
1659521028.647908,356
1659521028.691942,357
1659521028.735977,359
1659521028.770282,356
1659521028.804588,352
1659521028.848964,356
1659521028.893339,344
1659521028.937715,367
1659521028.976287,359
1659521029.01486,359
1659521029.053432,361
1659521029.095419,358
1659521029.137405,357
1659521029.17666,350
1659521029.215915,355
1659521029.255171,354
1659521029.296133,363
1659521029.337095,358
1659521029.376009,349
1659521029.414923,358
1659521029.453836,349
1659521029.49275,352
1659521029.531664,359
1659521029.570578,350
1659521029.609151,356
1659521029.647724,351
1659521029.686296,356
1659521029.728794,353
1659521029.771292,357
1659521029.809524,354
1659521029.847755,353
1659521029.885986,368
1659521029.930362,355
1659521029.974737,351
1659521030.019113,356
1659521030.061611,356
1659521030.104109,352
1659521030.143023,350
1659521030.181937,351
1659521030.220851,353
1659521030.259765,353
1659521030.298679,354
1659521030.337593,352
1659521030.380091,360
1659521030.422589,360
1659521030.46082,362
1659521030.499052,357
1659521030.537283,350
1659521030.578245,344
1659521030.619207,348
1659521030.658121,354
1659521030.697035,350
1659521030.735949,360
1659521030.774863,356
1659521030.813776,352
1659521030.85269,351
1659521030.893653,349
1659521030.934615,354
1659521030.97387,355
1659521031.013125,354
1659521031.052381,348
1659521031.093855,355
1659521031.135329,347
1659521031.174242,347
1659521031.213156,349
1659521031.25207,355
1659521031.293545,351
1659521031.335019,357
1659521031.373933,348
1659521031.412847,359
1659521031.451761,346
1659521031.493235,347
1659521031.534709,355
1659521031.579084,352
1659521031.62346,353
1659521031.667835,349
1659521031.707091,356
1659521031.746346,345
1659521031.785601,355
1659521031.826051,342
1659521031.866501,339
1659521031.905074,349
1659521031.943646,340
1659521031.982219,335
1659521032.020792,333
1659521032.059364,343
1659521032.097937,344
1659521032.139923,352
1659521032.181909,335
1659521032.220823,328
1659521032.259737,334
1659521032.298651,335
1659521032.340125,336
1659521032.381599,352
1659521032.420854,341
1659521032.46011,340
1659521032.499365,345
1659521032.537937,342
1659521032.57651,351
1659521032.615083,354
1659521032.657581,353
1659521032.700079,345
1659521032.738993,367
1659521032.777907,356
1659521032.816821,361
1659521032.857783,371
1659521032.898745,365
1659521032.937659,371
1659521032.976573,375
1659521033.015487,391
1659521033.057985,398
1659521033.100483,420
1659521033.144176,471
