LocalTimestamp,PG
1659521036.953305,6947
1659521036.997681,7589
1659521037.042056,8127
1659521037.080629,8817
1659521037.119201,9400
1659521037.157774,9841
1659521037.200272,10043
1659521037.24277,10120
1659521037.281001,10247
1659521037.319233,10446
1659521037.357464,10666
1659521037.396037,10839
1659521037.434609,10984
1659521037.473182,11136
1659521037.513632,11289
1659521037.554082,11359
1659521037.593337,11412
1659521037.632592,11456
1659521037.671848,11499
1659521037.710079,11519
1659521037.74831,11569
1659521037.786541,11626
1659521037.82904,11639
1659521037.871538,11638
1659521037.910452,11606
1659521037.949366,11625
1659521037.98828,11633
1659521038.029242,11632
1659521038.070204,11633
1659521038.1098,11653
1659521038.149397,11697
1659521038.188993,11723
1659521038.23098,11738
1659521038.272966,11754
1659521038.310856,11763
1659521038.348746,11804
1659521038.386635,11849
1659521038.428622,11938
1659521038.470608,11994
1659521038.514983,12023
1659521038.559359,12022
1659521038.603734,12021
1659521038.637016,11942
1659521038.670298,11807
1659521038.714673,11803
1659521038.759049,11891
1659521038.803424,12012
1659521038.843021,12122
1659521038.882617,12134
1659521038.922214,12136
1659521038.963176,12153
1659521039.004138,12186
1659521039.043052,12260
1659521039.081966,12278
1659521039.12088,12229
1659521039.16389,12186
1659521039.2069,12119
1659521039.245473,12057
1659521039.284046,12047
1659521039.322618,12032
1659521039.361532,12079
1659521039.400446,12092
1659521039.43936,12071
1659521039.480834,12069
1659521039.522308,12058
1659521039.561222,12037
1659521039.600136,12014
1659521039.63905,11987
1659521039.677964,11987
1659521039.716878,11990
1659521039.755792,11985
1659521039.797266,11992
1659521039.83874,12032
1659521039.882774,12064
1659521039.926808,12096
1659521039.970843,12121
1659521040.009757,12155
1659521040.048671,12190
1659521040.087584,12240
1659521040.130083,12286
1659521040.172581,12314
1659521040.210812,12345
1659521040.249043,12375
1659521040.287274,12362
1659521040.328748,12342
1659521040.370223,12327
1659521040.408795,12324
1659521040.447368,12297
1659521040.48594,12285
1659521040.524172,12267
1659521040.562403,12232
1659521040.600634,12198
1659521040.64262,12182
1659521040.684606,12147
1659521040.72352,11992
1659521040.762434,11932
1659521040.801348,11945
1659521040.839579,11962
1659521040.877811,11968
1659521040.916042,11971
1659521040.957516,11989
1659521040.99899,11997
1659521041.038245,12013
1659521041.077501,12018
1659521041.116756,12036
1659521041.158742,12059
1659521041.200728,12077
1659521041.239642,12065
1659521041.278556,12068
1659521041.31747,12054
1659521041.359456,12022
1659521041.401442,11948
1659521041.445476,11903
1659521041.489511,11873
1659521041.533545,11843
1659521041.567338,11833
1659521041.601132,11816
1659521041.645508,11832
1659521041.689883,11855
1659521041.734259,11883
1659521041.772831,11904
1659521041.811404,11933
1659521041.849977,11940
1659521041.890939,11954
1659521041.931901,11989
1659521041.970815,12003
1659521042.009729,12038
1659521042.048643,12048
1659521042.090629,12049
1659521042.132615,12049
1659521042.170505,12049
1659521042.208395,12054
1659521042.246284,12040
1659521042.284174,12019
1659521042.328891,12005
1659521042.373608,12013
1659521042.418325,12030
1659521042.452119,12047
1659521042.485913,12077
1659521042.529947,12096
1659521042.573981,12122
1659521042.618015,12148
1659521042.656929,12160
1659521042.695843,12179
1659521042.734757,12183
1659521042.777255,12199
1659521042.819753,12205
1659521042.857984,12225
1659521042.896216,12252
1659521042.934447,12261
1659521042.973361,12271
1659521043.012275,12279
1659521043.051189,12276
1659521043.092151,12272
1659521043.133113,12246
1659521043.171344,12218
1659521043.209575,12195
1659521043.247807,12195
1659521043.289793,12209
1659521043.331779,12235
1659521043.371034,12256
1659521043.410289,12279
1659521043.449545,12315
1659521043.487776,12334
1659521043.526007,12354
1659521043.564238,12353
1659521043.606225,12364
1659521043.648211,12380
1659521043.690709,12372
1659521043.733207,12379
1659521043.771097,12375
1659521043.808987,12377
1659521043.846877,12375
1659521043.891252,12368
1659521043.935628,12359
1659521043.980003,12346
1659521044.012773,12326
1659521044.045542,12306
1659521044.089577,12293
1659521044.133611,12295
1659521044.177645,12304
1659521044.2169,12306
1659521044.256156,12319
1659521044.295411,12330
1659521044.337397,12335
1659521044.379383,12341
1659521044.417956,12345
1659521044.456528,12351
1659521044.495101,12356
1659521044.536063,12351
1659521044.577025,12354
1659521044.616963,12361
1659521044.656901,12365
1659521044.696839,12370
1659521044.735412,12368
1659521044.773984,12374
1659521044.812557,12381
1659521044.854031,12386
1659521044.895505,12361
1659521044.934419,12337
1659521044.973333,12326
1659521045.012247,12315
1659521045.054233,12329
1659521045.096219,12336
1659521045.135952,12360
1659521045.175685,12364
1659521045.215419,12366
1659521045.255152,12384
1659521045.294885,12411
1659521045.336359,12430
1659521045.377833,12437
1659521045.416747,12444
1659521045.455661,12449
1659521045.494575,12442
1659521045.536561,12447
1659521045.578547,12437
1659521045.617461,12437
1659521045.656375,12434
1659521045.695289,12452
1659521045.733862,12462
1659521045.772434,12471
1659521045.811007,12481
1659521045.852993,12444
1659521045.894979,12441
1659521045.936965,12428
1659521045.978951,12427
1659521046.017182,12440
1659521046.055414,12452
1659521046.093645,12450
1659521046.137679,12447
1659521046.181713,12458
1659521046.225748,12479
1659521046.259029,12498
1659521046.292311,12510
1659521046.336345,12507
1659521046.380379,12523
1659521046.424413,12519
1659521046.457183,12550
1659521046.489953,12576
1659521046.53467,12579
1659521046.579386,12574
1659521046.624104,12582
1659521046.662676,12582
1659521046.701249,12559
1659521046.739821,12541
1659521046.781807,12490
1659521046.823793,12450
1659521046.862707,12447
1659521046.901621,12445
1659521046.940535,12440
1659521046.982009,12461
1659521047.023484,12496
1659521047.062056,12505
1659521047.100629,12532
1659521047.139201,12543
1659521047.177774,12543
1659521047.216347,12570
1659521047.254919,12571
1659521047.297417,12564
1659521047.339915,12542
1659521047.377805,12531
1659521047.415695,12538
1659521047.453585,12549
1659521047.494547,12510
1659521047.535509,12494
1659521047.575106,12475
1659521047.614702,12419
1659521047.654299,12361
1659521047.695773,12340
1659521047.737247,12330
1659521047.776161,12340
1659521047.815075,12367
1659521047.853989,12408
1659521047.896487,12430
1659521047.938985,12452
1659521047.977558,12458
1659521048.01613,12452
1659521048.054703,12481
1659521048.09942,12482
1659521048.144137,12481
1659521048.188854,12505
1659521048.231352,12509
1659521048.27385,12478
1659521048.312423,12461
1659521048.350995,12471
1659521048.389568,12481
1659521048.42814,12537
1659521048.466713,12586
1659521048.505286,12633
1659521048.547272,12710
1659521048.589258,12869
1659521048.627489,13015
1659521048.66572,13090
1659521048.703952,13155
1659521048.745425,13217
1659521048.7869,13278
1659521048.826496,13281
1659521048.866093,13233
1659521048.905689,13187
1659521048.943921,13146
1659521048.982152,13126
1659521049.020383,13111
1659521049.061857,13134
1659521049.103332,13174
1659521049.142928,13192
1659521049.182525,13207
1659521049.222121,13205
1659521049.263596,13213
1659521049.305069,13212
1659521049.343301,13203
1659521049.381532,13198
1659521049.419763,13209
1659521049.461237,13234
1659521049.502712,13234
1659521049.541625,13232
1659521049.580539,13248
1659521049.619453,13252
1659521049.660415,13232
1659521049.701377,13219
1659521049.745753,13202
1659521049.790128,13198
1659521049.834504,13191
1659521049.873077,13193
1659521049.911649,13195
1659521049.950222,13224
1659521049.991184,13235
1659521050.032146,13241
1659521050.071743,13259
1659521050.111339,13261
1659521050.150936,13280
1659521050.19241,13304
1659521050.233884,13332
1659521050.272457,13346
1659521050.311029,13362
1659521050.349602,13341
1659521050.389949,13366
1659521050.430297,13366
1659521050.470645,13358
1659521050.510992,13356
1659521050.55134,13336
1659521050.589571,13346
1659521050.627802,13354
1659521050.666034,13373
1659521050.707508,13396
1659521050.748982,13408
1659521050.787555,13421
1659521050.826127,13402
1659521050.8647,13407
1659521050.903955,13414
1659521050.94321,13403
1659521050.982466,13403
1659521051.024451,13418
1659521051.066438,13434
1659521051.105693,13435
1659521051.144948,13437
1659521051.184204,13419
1659521051.225678,13410
1659521051.267152,13427
1659521051.309138,13434
1659521051.351124,13440
1659521051.390379,13406
1659521051.429635,13396
1659521051.46889,13396
1659521051.513265,13395
1659521051.557641,13397
1659521051.602016,13373
1659521051.634786,13367
1659521051.667556,13352
1659521051.711931,13348
1659521051.756307,13321
1659521051.800682,13293
1659521051.839255,13281
1659521051.877828,13257
1659521051.9164,13212
1659521051.958386,13166
1659521052.000372,13115
1659521052.038945,13095
1659521052.077518,13069
1659521052.11609,13080
1659521052.158076,13112
1659521052.200062,13171
1659521052.238635,13190
1659521052.277208,13237
1659521052.31578,13317
1659521052.354694,13394
1659521052.393608,13485
1659521052.432522,13557
1659521052.47502,13631
1659521052.517518,13696
1659521052.555749,13739
1659521052.593981,13736
1659521052.632212,13734
1659521052.673174,13732
1659521052.714136,13714
1659521052.753392,13696
1659521052.792647,13669
1659521052.831902,13669
1659521052.873376,13658
1659521052.91485,13674
1659521052.953423,13686
1659521052.991995,13697
1659521053.030568,13712
1659521053.072042,13692
1659521053.113516,13681
1659521053.151747,13655
1659521053.189979,13617
1659521053.22821,13594
1659521053.272585,13593
1659521053.316961,13566
1659521053.361336,13536
1659521053.395642,13535
1659521053.429948,13518
1659521053.474324,13497
1659521053.518699,13485
1659521053.563075,13479
1659521053.604549,13491
1659521053.646023,13490
1659521053.685278,13473
1659521053.724533,13450
1659521053.763789,13413
1659521053.802702,13364
1659521053.841616,13297
1659521053.88053,13181
1659521053.921493,13005
1659521053.962455,12867
1659521054.00171,12815
1659521054.040965,12733
1659521054.08022,12608
1659521054.121182,12479
1659521054.162144,12403
1659521054.2014,12367
1659521054.240655,12308
1659521054.27991,12343
1659521054.319166,12470
1659521054.358421,12547
1659521054.397676,12589
1659521054.439662,12585
1659521054.481648,12551
1659521054.520221,12581
1659521054.558794,12649
1659521054.597366,12764
1659521054.639864,12932
1659521054.682363,13104
1659521054.721277,13254
1659521054.76019,13353
1659521054.799104,13418
1659521054.840066,13403
1659521054.881028,13383
1659521054.925404,13368
1659521054.969779,13332
1659521055.014155,13281
1659521055.047949,13144
1659521055.081743,12919
1659521055.125435,12654
1659521055.169128,12578
1659521055.212821,12541
1659521055.251735,12508
1659521055.290649,12520
1659521055.329563,12516
1659521055.367794,12468
1659521055.406025,12448
1659521055.444257,12474
1659521055.485731,12579
1659521055.527205,12659
1659521055.566119,12683
1659521055.605033,12728
1659521055.643947,12739
1659521055.685421,12712
1659521055.726895,12645
1659521055.768369,12564
1659521055.809843,12445
1659521055.848757,12309
1659521055.887671,12107
1659521055.926585,11859
1659521055.965157,11598
1659521056.00373,11306
1659521056.042303,10997
1659521056.084801,10723
1659521056.127299,10514
1659521056.16553,10327
1659521056.203761,10181
1659521056.241992,10103
1659521056.283467,10054
1659521056.324941,9999
1659521056.363855,9938
1659521056.402769,9908
1659521056.441683,9863
1659521056.483157,9814
1659521056.524631,9787
1659521056.563545,9787
1659521056.602458,9782
1659521056.641372,9750
1659521056.683359,9706
1659521056.725345,9595
1659521056.763917,9410
1659521056.80249,9220
1659521056.841063,9068
1659521056.885779,9004
1659521056.930496,9007
1659521056.975213,9047
1659521057.009519,9116
1659521057.043825,9289
1659521057.087517,9641
1659521057.13121,10130
1659521057.174903,10575
1659521057.213817,10854
1659521057.252731,11016
1659521057.291645,11127
1659521057.333119,11220
1659521057.374593,11284
1659521057.412824,11338
1659521057.451056,11362
1659521057.489287,11379
1659521057.531273,11415
1659521057.573259,11429
1659521057.612856,11394
1659521057.652452,11297
1659521057.692049,11188
1659521057.73028,11076
1659521057.768512,10953
1659521057.806743,10844
1659521057.848217,10728
1659521057.889691,10651
1659521057.929629,10582
1659521057.969567,10516
1659521058.009505,10479
1659521058.050467,10492
1659521058.091429,10491
1659521058.130343,10453
1659521058.169257,10415
1659521058.208171,10371
1659521058.249645,10344
1659521058.291119,10311
1659521058.329692,10279
1659521058.368264,10260
1659521058.406837,10238
1659521058.447799,10229
1659521058.488761,10194
1659521058.527675,10098
1659521058.566589,9973
1659521058.605503,9814
1659521058.649537,9682
1659521058.693571,9585
1659521058.737605,9462
1659521058.778568,9351
1659521058.81953,9240
1659521058.859468,9146
1659521058.899405,9055
1659521058.939343,8968
1659521058.980305,8894
1659521059.021268,8836
1659521059.059499,8784
1659521059.09773,8729
1659521059.135961,8691
1659521059.175217,8643
1659521059.214472,8619
1659521059.253727,8586
1659521059.295713,8565
1659521059.337699,8543
1659521059.375931,8492
1659521059.414162,8402
1659521059.452393,8299
1659521059.493867,8202
1659521059.535341,8139
1659521059.573914,8061
1659521059.612487,7997
1659521059.651059,7930
1659521059.68929,7873
1659521059.727522,7831
1659521059.765753,7791
1659521059.808251,7758
1659521059.850749,7728
1659521059.889663,7718
1659521059.928577,7700
1659521059.967491,7690
1659521060.008965,7657
1659521060.050439,7566
1659521060.089694,7439
1659521060.12895,7316
1659521060.168205,7245
1659521060.210703,7274
1659521060.253201,7299
1659521060.297577,7304
1659521060.341952,7311
1659521060.386328,7305
1659521060.419097,7277
1659521060.451867,7229
1659521060.496584,7180
1659521060.541301,7128
1659521060.586018,7090
1659521060.624249,7103
1659521060.66248,7185
1659521060.700711,7289
1659521060.742698,7379
1659521060.784684,7435
1659521060.823598,7426
1659521060.862512,7440
1659521060.901426,7436
1659521060.9429,7349
1659521060.984374,7170
1659521061.025848,7041
1659521061.067322,7038
1659521061.106577,7017
1659521061.145833,6949
1659521061.185088,6858
1659521061.22366,6803
1659521061.262233,6736
1659521061.300806,6656
1659521061.33972,6628
1659521061.378633,6575
1659521061.417547,6538
1659521061.457998,6456
1659521061.498447,6325
1659521061.537361,6186
1659521061.576275,6138
1659521061.615189,6153
1659521061.656663,6165
1659521061.698138,6158
1659521061.73671,6149
1659521061.775283,6158
1659521061.813855,6152
1659521061.855329,6154
1659521061.896803,6144
1659521061.935035,6141
1659521061.973266,6127
1659521062.011497,6061
1659521062.052971,5975
1659521062.094445,5909
1659521062.134042,5865
1659521062.173639,5862
1659521062.213235,5867
1659521062.257269,5860
1659521062.301304,5861
1659521062.345338,5852
1659521062.378108,5841
1659521062.410877,5808
1659521062.455935,5766
1659521062.500994,5750
1659521062.546052,5735
1659521062.588038,5777
1659521062.630024,5860
1659521062.668255,5972
1659521062.706487,6046
1659521062.744718,6119
1659521062.783973,6234
1659521062.823228,6377
1659521062.862484,6509
1659521062.902934,6574
1659521062.943384,6613
1659521062.982639,6627
1659521063.021894,6617
1659521063.06115,6622
1659521063.103136,6617
1659521063.145122,6608
1659521063.183694,6619
1659521063.222267,6792
1659521063.26084,6987
1659521063.299754,7107
1659521063.338668,7202
1659521063.377582,7276
1659521063.42008,7360
1659521063.462578,7439
1659521063.50115,7459
1659521063.539723,7417
1659521063.578295,7354
1659521063.61977,7308
1659521063.661244,7289
1659521063.700158,7353
1659521063.739072,7366
1659521063.777986,7306
1659521063.820484,7210
1659521063.862982,7144
1659521063.901213,7104
1659521063.939444,7104
1659521063.977675,7128
1659521064.01915,7128
1659521064.060624,7098
1659521064.104999,7004
1659521064.149375,6899
1659521064.19375,6806
1659521064.232323,6723
1659521064.270895,6682
1659521064.309468,6638
1659521064.351966,6561
1659521064.394464,6503
1659521064.433378,6448
1659521064.472292,6383
1659521064.511206,6360
1659521064.552168,6359
1659521064.59313,6344
1659521064.632385,6299
1659521064.671641,6272
1659521064.710896,6217
1659521064.749127,6187
1659521064.787359,6157
1659521064.82559,6133
1659521064.867064,6124
1659521064.908538,6080
1659521064.947111,6054
1659521064.985683,6060
1659521065.024256,6107
1659521065.062829,6094
1659521065.101401,6077
1659521065.139974,6119
1659521065.180936,6267
1659521065.221898,6426
1659521065.26047,6543
1659521065.299043,6720
1659521065.337615,6863
1659521065.379602,6977
1659521065.421588,6940
1659521065.460843,6773
1659521065.500098,6523
1659521065.539354,6338
1659521065.580316,6256
1659521065.621278,6217
1659521065.666336,6219
1659521065.711394,6253
1659521065.756453,6303
1659521065.795025,6290
1659521065.833598,6217
1659521065.87217,6174
1659521065.914668,6166
1659521065.957166,6163
1659521065.99608,6147
1659521066.034994,6112
1659521066.073908,6106
1659521066.11487,6108
1659521066.155833,6150
1659521066.195975,6249
1659521066.236118,6343
1659521066.276261,6459
1659521066.316404,6563
1659521066.356546,6609
1659521066.397509,6555
1659521066.438471,6477
1659521066.477385,6410
1659521066.516299,6349
1659521066.555212,6335
1659521066.594126,6310
1659521066.63304,6291
1659521066.671954,6247
1659521066.714964,6179
1659521066.757975,6124
1659521066.796547,6109
1659521066.83512,6098
1659521066.873692,6090
1659521066.915166,6122
1659521066.95664,6109
1659521066.995896,6085
1659521067.035151,6075
1659521067.074406,6101
1659521067.11588,6130
1659521067.157355,6112
1659521067.195586,6088
1659521067.233817,6077
1659521067.272048,6080
1659521067.311304,6102
1659521067.350559,6090
1659521067.389814,6048
1659521067.430264,5990
1659521067.470714,6001
1659521067.509969,6017
1659521067.549225,6064
1659521067.58848,6081
1659521067.630466,6073
1659521067.672452,6093
1659521067.711025,6121
1659521067.749598,6192
1659521067.78817,6261
1659521067.829132,6342
1659521067.870094,6398
1659521067.915153,6422
1659521067.960211,6467
1659521068.005269,6503
1659521068.044183,6547
1659521068.083097,6671
1659521068.122011,6731
1659521068.162973,6681
1659521068.203935,6712
1659521068.24319,6776
1659521068.282445,6804
1659521068.321701,6791
1659521068.359932,6768
1659521068.398163,6736
1659521068.436394,6698
1659521068.477869,6646
1659521068.519343,6617
1659521068.558598,6622
1659521068.597853,6671
1659521068.637109,6747
1659521068.67534,6811
1659521068.713571,6808
1659521068.751802,6798
1659521068.793788,6808
1659521068.835774,6757
1659521068.87503,6665
1659521068.914285,6615
1659521068.95354,6575
1659521068.995527,6545
1659521069.037513,6554
1659521069.076085,6541
1659521069.114658,6530
1659521069.15323,6508
1659521069.195216,6482
1659521069.237203,6502
1659521069.281578,6544
1659521069.325954,6629
1659521069.370329,6727
1659521069.408902,6750
1659521069.447474,6771
1659521069.486047,6858
1659521069.528545,6963
1659521069.571043,7055
1659521069.609957,7153
1659521069.648871,7239
1659521069.687785,7261
1659521069.728235,7307
1659521069.768685,7286
1659521069.80794,7250
1659521069.847196,7301
1659521069.886451,7371
1659521069.925365,7465
1659521069.964279,7629
1659521070.003193,7775
1659521070.045179,7878
1659521070.087165,7984
1659521070.126079,8077
1659521070.164993,8174
1659521070.203907,8299
1659521070.245893,8383
1659521070.287879,8451
1659521070.32611,8500
1659521070.364342,8541
1659521070.402573,8584
1659521070.441828,8576
1659521070.481083,8551
1659521070.520339,8511
1659521070.561301,8511
1659521070.602263,8551
1659521070.640836,8590
1659521070.679408,8641
1659521070.717981,8650
1659521070.758431,8680
1659521070.798881,8712
1659521070.843598,8745
1659521070.888314,8775
1659521070.933032,8823
1659521070.966825,8854
1659521071.000619,8878
1659521071.044653,8910
1659521071.088687,8911
1659521071.132721,8939
1659521071.165491,8999
1659521071.198261,9013
1659521071.242978,8962
1659521071.287694,8889
1659521071.332412,8858
1659521071.371325,8826
1659521071.410239,8785
1659521071.449153,8689
1659521071.487726,8635
1659521071.526299,8623
1659521071.564871,8639
1659521071.603444,8674
1659521071.642016,8733
1659521071.680589,8765
1659521071.721039,8771
1659521071.761489,8814
1659521071.800744,8834
1659521071.839999,8797
1659521071.879255,8791
1659521071.92363,8810
1659521071.968006,8824
1659521072.012381,8868
1659521072.045151,8856
1659521072.077921,8821
1659521072.122979,8724
1659521072.168037,8603
1659521072.213095,8493
1659521072.246377,8409
1659521072.279659,8364
1659521072.324034,8349
1659521072.36841,8349
1659521072.412786,8360
1659521072.452041,8389
1659521072.491296,8460
1659521072.530551,8506
1659521072.57305,8532
1659521072.615548,8552
1659521072.653438,8603
1659521072.691327,8651
1659521072.729217,8702
1659521072.770691,8727
1659521072.812165,8725
1659521072.851079,8666
1659521072.889993,8463
1659521072.928907,8248
1659521072.967821,8106
1659521073.006735,7967
1659521073.045649,7849
1659521073.087123,7812
1659521073.128597,7829
1659521073.167511,7900
1659521073.206425,8098
1659521073.245339,8217
1659521073.286301,8290
1659521073.327263,8299
1659521073.36686,8338
1659521073.406456,8377
1659521073.446053,8405
1659521073.488039,8431
1659521073.530025,8479
1659521073.568598,8521
1659521073.607171,8515
1659521073.645743,8516
1659521073.686705,8510
1659521073.727667,8505
1659521073.772384,8503
1659521073.817101,8509
1659521073.861818,8509
1659521073.900391,8507
1659521073.938963,8521
1659521073.977536,8509
1659521074.018498,8533
1659521074.05946,8552
1659521074.098032,8562
1659521074.136605,8583
1659521074.175178,8606
1659521074.21375,8629
1659521074.252323,8651
1659521074.290895,8672
1659521074.332881,8703
1659521074.374868,8735
1659521074.414123,8759
1659521074.453378,8771
1659521074.492634,8809
1659521074.533596,8826
1659521074.574558,8849
1659521074.613472,8862
1659521074.652385,8888
1659521074.691299,8883
1659521074.729872,8849
1659521074.768445,8802
1659521074.807017,8760
1659521074.849003,8722
1659521074.89099,8693
1659521074.929562,8675
1659521074.968135,8671
1659521075.006707,8644
1659521075.048181,8614
1659521075.089655,8590
1659521075.128569,8573
1659521075.167483,8557
1659521075.206397,8533
1659521075.248383,8507
1659521075.29037,8480
1659521075.334745,8454
1659521075.379121,8441
1659521075.423496,8443
1659521075.45729,8444
1659521075.491083,8437
1659521075.535118,8445
1659521075.579152,8424
1659521075.623186,8384
1659521075.662441,8347
1659521075.701697,8313
1659521075.740952,8295
1659521075.782938,8288
1659521075.824924,8288
1659521075.863838,8291
1659521075.902752,8330
1659521075.941666,8349
1659521075.982628,8377
1659521076.02359,8406
1659521076.062504,8419
1659521076.101418,8416
1659521076.140332,8411
1659521076.178905,8399
1659521076.217477,8406
1659521076.25605,8423
1659521076.298036,8433
1659521076.340022,8458
1659521076.379277,8512
1659521076.418533,8547
1659521076.457788,8548
1659521076.496019,8543
1659521076.53425,8519
1659521076.572482,8495
1659521076.613444,8477
1659521076.654406,8447
1659521076.694753,8459
1659521076.735101,8474
1659521076.775449,8465
1659521076.815796,8452
1659521076.856144,8462
1659521076.897106,8461
1659521076.938068,8480
1659521076.976982,8495
1659521077.015896,8507
1659521077.05481,8541
1659521077.096028,8573
1659521077.137246,8590
1659521077.178464,8626
1659521077.219682,8699
1659521077.258255,8784
1659521077.296827,8854
1659521077.3354,8942
1659521077.377898,9069
1659521077.420396,9196
1659521077.458286,9247
1659521077.496176,9297
1659521077.534066,9333
1659521077.57554,9349
1659521077.617014,9309
1659521077.65661,9219
1659521077.696207,9160
1659521077.735804,9079
1659521077.77779,9004
1659521077.819776,8948
1659521077.85869,8907
1659521077.897604,8887
1659521077.936518,8861
1659521077.978504,8848
1659521078.02049,8810
1659521078.059062,8777
1659521078.097635,8762
1659521078.136208,8758
1659521078.180242,8743
1659521078.224276,8738
1659521078.26831,8747
1659521078.302616,8758
1659521078.336922,8784
1659521078.381297,8801
1659521078.425673,8777
1659521078.470048,8732
1659521078.508621,8679
1659521078.547194,8615
1659521078.585766,8536
1659521078.62724,8576
1659521078.668714,8681
1659521078.707628,8803
1659521078.746542,8950
1659521078.785456,9051
1659521078.827442,9118
1659521078.869428,9151
1659521078.908684,9140
1659521078.947939,9105
1659521078.987194,9061
1659521079.026108,9051
1659521079.065022,9030
1659521079.103936,9016
1659521079.14541,9012
1659521079.186884,9009
1659521079.226481,9028
1659521079.266078,9055
1659521079.305674,9085
1659521079.347148,9111
1659521079.388623,9141
1659521079.426854,9132
1659521079.465085,9111
1659521079.503316,9088
1659521079.544278,9049
1659521079.58524,9029
1659521079.624496,8992
1659521079.663751,8991
1659521079.703006,8994
1659521079.743968,9007
1659521079.78493,9017
1659521079.829306,8999
1659521079.873681,8997
1659521079.918057,8982
1659521079.956971,8984
1659521079.995885,8995
1659521080.034799,9011
1659521080.075761,9022
1659521080.116723,9053
1659521080.155978,9088
1659521080.195233,9132
1659521080.234489,9172
1659521080.276475,9222
1659521080.318461,9274
1659521080.356692,9294
1659521080.394923,9267
1659521080.433155,9228
1659521080.471727,9195
1659521080.5103,9202
1659521080.548872,9196
1659521080.590858,9205
1659521080.632845,9225
1659521080.671759,9231
1659521080.710673,9239
1659521080.749587,9255
1659521080.787476,9260
1659521080.825366,9256
1659521080.863256,9259
1659521080.905242,9266
1659521080.947228,9269
1659521080.986484,9277
1659521081.025739,9281
1659521081.064994,9286
1659521081.106468,9297
1659521081.147942,9339
1659521081.187198,9377
1659521081.226453,9401
1659521081.265708,9432
1659521081.307694,9460
1659521081.34968,9494
1659521081.393715,9480
1659521081.437749,9453
1659521081.481783,9433
1659521081.515577,9440
1659521081.549371,9464
1659521081.594087,9484
1659521081.638804,9509
1659521081.683521,9532
1659521081.715779,9556
1659521081.748036,9577
1659521081.792412,9583
1659521081.836787,9613
1659521081.881163,9640
1659521081.921306,9681
1659521081.961449,9696
1659521082.001591,9714
1659521082.041734,9750
1659521082.081877,9791
1659521082.120791,9855
1659521082.159705,9935
1659521082.198619,10006
1659521082.237874,10049
1659521082.27713,10093
1659521082.316385,10067
1659521082.357347,10049
1659521082.398309,10058
1659521082.437223,10059
1659521082.476137,10070
1659521082.515051,10070
1659521082.554306,10067
1659521082.593561,10043
1659521082.632817,10011
1659521082.673267,9976
1659521082.713717,9958
1659521082.752289,9945
1659521082.790862,9942
1659521082.829435,9951
1659521082.870397,9964
1659521082.911359,9976
1659521082.955393,9984
1659521082.999427,9996
1659521083.043461,9993
1659521083.076743,9986
1659521083.110024,9954
1659521083.155083,9949
1659521083.200141,9919
1659521083.245199,9876
1659521083.277457,9813
1659521083.309715,9764
1659521083.35409,9724
1659521083.398466,9663
1659521083.442841,9617
1659521083.482438,9550
1659521083.522034,9454
1659521083.561631,9344
1659521083.603105,9295
1659521083.644579,9275
1659521083.682811,9310
1659521083.721042,9395
1659521083.759273,9477
1659521083.798187,9599
1659521083.837101,9691
1659521083.876015,9733
1659521083.917489,9750
1659521083.958963,9757
1659521083.997194,9761
1659521084.035425,9749
1659521084.073657,9744
1659521084.115131,9698
1659521084.156605,9652
1659521084.195519,9576
1659521084.234433,9525
1659521084.273347,9502
1659521084.315333,9486
1659521084.357319,9453
1659521084.396574,9423
1659521084.43583,9396
1659521084.475085,9364
1659521084.519802,9342
1659521084.564519,9319
1659521084.609236,9317
1659521084.642517,9308
1659521084.675799,9288
1659521084.720516,9276
1659521084.765233,9245
1659521084.80995,9216
1659521084.848522,9165
1659521084.887095,9125
1659521084.925667,9098
1659521084.967654,9080
1659521085.00964,9056
1659521085.048553,8970
1659521085.087467,8898
1659521085.126381,8845
1659521085.165295,8764
1659521085.204209,8684
1659521085.243123,8647
1659521085.283573,8617
1659521085.324023,8570
1659521085.362937,8534
1659521085.401851,8511
1659521085.440765,8512
1659521085.482751,8526
1659521085.524737,8547
1659521085.563651,8576
1659521085.602565,8595
1659521085.641479,8620
1659521085.680052,8670
1659521085.718624,8707
1659521085.757197,8725
1659521085.799695,8720
1659521085.842193,8667
1659521085.884179,8618
1659521085.926165,8597
1659521085.964055,8557
1659521086.001945,8547
1659521086.039835,8529
1659521086.084211,8521
1659521086.128586,8500
1659521086.172962,8474
1659521086.205731,8427
1659521086.238501,8404
1659521086.282535,8397
1659521086.32657,8383
1659521086.370604,8377
1659521086.404397,8366
1659521086.438191,8347
1659521086.482567,8325
1659521086.526942,8311
1659521086.571318,8285
1659521086.609549,8279
1659521086.64778,8300
1659521086.686012,8290
1659521086.727998,8282
1659521086.769984,8262
1659521086.80958,8244
1659521086.849177,8230
1659521086.888774,8220
1659521086.927005,8214
1659521086.965236,8216
1659521087.003467,8201
1659521087.045453,8181
1659521087.08744,8175
1659521087.127173,8169
1659521087.166906,8165
1659521087.206639,8160
1659521087.246372,8170
1659521087.286105,8191
1659521087.327836,8228
1659521087.369566,8270
1659521087.411296,8300
1659521087.453026,8292
1659521087.495012,8241
1659521087.536998,8141
1659521087.575571,8059
1659521087.614143,7973
1659521087.652716,7898
1659521087.695214,7855
1659521087.737712,7817
1659521087.776626,7815
1659521087.81554,7832
1659521087.854454,7864
1659521087.893368,7879
1659521087.932282,7894
1659521087.971196,7885
1659521088.013694,7883
1659521088.056192,7889
1659521088.094764,7888
1659521088.133337,7899
1659521088.17191,7904
1659521088.210141,7909
1659521088.248372,7890
1659521088.286603,7846
1659521088.328078,7771
1659521088.369552,7711
1659521088.408807,7675
1659521088.448062,7640
1659521088.487318,7631
1659521088.52828,7637
1659521088.569242,7629
1659521088.607814,7624
1659521088.646387,7641
1659521088.684959,7670
1659521088.729676,7709
1659521088.774393,7761
1659521088.81911,7804
1659521088.860072,7854
1659521088.901034,7896
1659521088.940631,7927
1659521088.980227,7971
1659521089.019824,8009
1659521089.061298,8035
1659521089.102772,8045
1659521089.141345,8033
1659521089.179918,7994
1659521089.21849,7945
1659521089.257063,7929
1659521089.295635,7909
1659521089.334208,7911
1659521089.376706,7916
1659521089.419204,7927
1659521089.457435,7942
1659521089.495667,7956
1659521089.533898,7972
1659521089.57247,7984
1659521089.611043,8025
1659521089.649616,8049
1659521089.690578,8075
1659521089.73154,8099
1659521089.770454,8114
1659521089.809368,8138
1659521089.848282,8149
1659521089.889756,8175
1659521089.93123,8226
1659521089.970826,8302
1659521090.010423,8386
1659521090.05002,8446
1659521090.091494,8470
1659521090.132968,8487
1659521090.17154,8512
1659521090.210113,8530
1659521090.248686,8554
1659521090.293061,8593
1659521090.337437,8631
1659521090.381812,8663
1659521090.42431,8700
1659521090.466809,8726
1659521090.50504,8744
1659521090.543271,8753
1659521090.581502,8748
1659521090.622976,8729
1659521090.66445,8747
1659521090.703364,8763
1659521090.742278,8790
1659521090.781192,8825
1659521090.819765,8836
1659521090.858337,8854
1659521090.89691,8875
1659521090.939408,8894
1659521090.981906,8888
1659521091.021503,8874
1659521091.0611,8860
1659521091.100696,8856
1659521091.141658,8876
1659521091.18262,8903
1659521091.221876,8952
1659521091.261131,9023
1659521091.300386,9057
1659521091.339642,9048
1659521091.378897,8999
1659521091.418152,8964
1659521091.458602,8955
1659521091.499052,8944
1659521091.537966,8908
1659521091.57688,8885
1659521091.615794,8858
1659521091.657268,8842
1659521091.698742,8835
1659521091.742435,8830
1659521091.786128,8833
1659521091.829821,8820
1659521091.863614,8814
1659521091.897408,8769
1659521091.941784,8711
1659521091.986159,8668
1659521092.030535,8620
1659521092.062792,8593
1659521092.09505,8563
1659521092.139426,8536
1659521092.183801,8523
1659521092.228177,8503
1659521092.267773,8500
1659521092.30737,8491
1659521092.346967,8494
1659521092.3867,8497
1659521092.426433,8501
1659521092.466166,8507
1659521092.505899,8526
1659521092.545633,8551
1659521092.587363,8568
1659521092.629093,8582
1659521092.670823,8584
1659521092.712553,8592
1659521092.744298,8568
1659521092.776044,8498
1659521092.82042,8436
1659521092.864795,8364
1659521092.909171,8337
1659521092.947743,8298
1659521092.986316,8271
1659521093.024889,8262
1659521093.066363,8287
1659521093.107837,8329
1659521093.147092,8362
1659521093.186347,8391
1659521093.225603,8388
1659521093.267077,8396
1659521093.308551,8405
1659521093.347123,8399
1659521093.385696,8409
1659521093.424268,8406
1659521093.463865,8425
1659521093.503462,8452
1659521093.543058,8487
1659521093.585045,8551
1659521093.627031,8640
1659521093.665262,8698
1659521093.703493,8704
1659521093.741724,8742
1659521093.783198,8851
1659521093.824672,8988
1659521093.863928,9053
1659521093.903183,9111
1659521093.942438,9176
1659521093.983401,9222
1659521094.024363,9267
1659521094.062935,9303
1659521094.101508,9331
1659521094.14008,9361
1659521094.182066,9394
1659521094.224052,9409
1659521094.263308,9420
1659521094.302563,9438
1659521094.341818,9437
1659521094.386194,9440
1659521094.430569,9443
1659521094.474945,9451
1659521094.508227,9450
1659521094.541508,9438
1659521094.585884,9409
1659521094.63026,9359
1659521094.674635,9322
1659521094.708429,9290
1659521094.742223,9270
1659521094.786939,9266
1659521094.831656,9241
1659521094.876373,9233
1659521094.914604,9214
1659521094.952836,9174
1659521094.991067,9136
1659521095.032029,9090
1659521095.072991,9048
1659521095.111564,9051
1659521095.150136,9100
1659521095.188709,9147
1659521095.230695,9228
1659521095.272681,9323
1659521095.311254,9413
1659521095.349826,9525
1659521095.388399,9573
1659521095.427313,9576
1659521095.466227,9578
1659521095.505141,9597
1659521095.547127,9623
1659521095.589113,9642
1659521095.627344,9651
1659521095.665575,9663
1659521095.703807,9682
1659521095.745281,9700
1659521095.786755,9734
1659521095.826351,9773
1659521095.865948,9820
1659521095.905545,9851
1659521095.945995,9890
1659521095.986445,9951
1659521096.024676,9988
1659521096.062907,10044
1659521096.101138,10089
1659521096.145855,10122
1659521096.190572,10138
1659521096.235289,10137
1659521096.277275,10148
1659521096.319261,10160
1659521096.357492,10148
1659521096.395724,10084
1659521096.433955,9995
1659521096.475941,9943
1659521096.517927,9994
1659521096.556841,10098
1659521096.595755,10225
1659521096.634669,10318
1659521096.673583,10385
1659521096.712497,10521
1659521096.751411,10614
1659521096.794421,10678
1659521096.837431,10696
1659521096.876345,10715
1659521096.915259,10738
1659521096.954173,10715
1659521096.994623,10696
1659521097.035073,10747
1659521097.074328,10794
1659521097.113584,10804
1659521097.152839,10791
1659521097.191753,10769
1659521097.230667,10755
1659521097.269581,10782
1659521097.310543,10746
1659521097.351505,10756
1659521097.390419,10730
1659521097.429333,10680
1659521097.468247,10602
1659521097.509721,10512
1659521097.551195,10447
1659521097.593181,10403
1659521097.635167,10383
1659521097.677153,10369
1659521097.719139,10356
1659521097.761126,10342
1659521097.803112,10310
1659521097.840233,10271
1659521097.877355,10215
1659521097.914477,10170
1659521097.951599,10102
1659521097.993585,10016
1659521098.035571,9926
1659521098.074485,9828
1659521098.113399,9726
1659521098.152313,9624
1659521098.192763,9553
1659521098.233213,9511
1659521098.271786,9483
1659521098.310358,9480
1659521098.348931,9453
1659521098.391429,9435
1659521098.433927,9399
1659521098.477961,9355
1659521098.521996,9323
1659521098.56603,9289
1659521098.604261,9262
1659521098.642492,9246
1659521098.680723,9248
1659521098.72271,9225
1659521098.764696,9159
1659521098.803268,9049
1659521098.841841,8956
1659521098.880414,8878
1659521098.919669,8822
1659521098.958924,8762
1659521098.998179,8721
1659521099.040165,8726
1659521099.082151,8720
1659521099.121065,8725
1659521099.159979,8750
1659521099.198893,8776
1659521099.239343,8794
1659521099.279794,8823
1659521099.31939,8834
1659521099.358987,8866
1659521099.398583,8913
1659521099.437497,8942
1659521099.476411,8944
1659521099.515325,8936
1659521099.555775,8866
1659521099.596225,8829
1659521099.635139,8808
1659521099.674053,8782
1659521099.712967,8744
1659521099.755465,8733
1659521099.797963,8726
1659521099.836536,8726
1659521099.875108,8730
1659521099.913681,8720
1659521099.955155,8715
1659521099.996629,8709
1659521100.041346,8768
1659521100.086063,8897
1659521100.13078,9065
1659521100.165086,9240
1659521100.199391,9359
1659521100.243767,9414
1659521100.288142,9412
1659521100.332518,9393
1659521100.3658,9306
1659521100.399081,9171
1659521100.443116,8990
1659521100.48715,8737
1659521100.531184,8573
1659521100.569757,8464
1659521100.608329,8427
1659521100.646902,8426
1659521100.6894,8459
1659521100.731898,8482
1659521100.770471,8509
1659521100.809043,8551
1659521100.847616,8566
1659521100.886189,8587
1659521100.924761,8606
1659521100.963334,8603
1659521101.005832,8615
1659521101.04833,8617
1659521101.086902,8623
1659521101.125475,8606
1659521101.164048,8563
1659521101.205522,8475
1659521101.246996,8361
1659521101.286592,8263
1659521101.326189,8105
1659521101.365786,7919
1659521101.406748,7765
1659521101.44771,7627
1659521101.4856,7516
1659521101.52349,7444
1659521101.561379,7391
1659521101.603878,7334
1659521101.646376,7289
1659521101.684948,7229
1659521101.723521,7177
1659521101.762094,7148
1659521101.805786,7162
1659521101.849479,7168
1659521101.893172,7149
1659521101.926454,7111
1659521101.959735,7091
1659521102.004452,7127
1659521102.049169,7159
1659521102.093886,7151
1659521102.126656,7105
1659521102.159425,7032
1659521102.204484,6982
1659521102.249542,6942
1659521102.2946,6890
1659521102.333514,6855
1659521102.372428,6810
1659521102.411342,6790
1659521102.452304,6808
1659521102.493266,6851
1659521102.53218,6899
1659521102.571094,6962
1659521102.610008,7013
1659521102.652506,7052
1659521102.695004,7107
1659521102.733236,7124
1659521102.771467,7149
1659521102.809698,7173
1659521102.849636,7182
1659521102.889574,7179
1659521102.929512,7178
1659521102.96945,7208
1659521103.009388,7224
1659521103.048302,7272
1659521103.087216,7291
1659521103.12613,7286
1659521103.167604,7254
1659521103.209078,7216
1659521103.248333,7190
1659521103.287589,7167
1659521103.326844,7163
1659521103.371219,7148
1659521103.415595,7144
1659521103.45997,7146
1659521103.493764,7141
1659521103.527558,7140
1659521103.572616,7126
1659521103.617674,7112
1659521103.662733,7093
1659521103.700964,7063
1659521103.739195,7015
1659521103.777426,6975
1659521103.818388,6945
1659521103.85935,6919
1659521103.898264,6909
1659521103.937178,6900
1659521103.976092,6886
1659521104.014323,6897
1659521104.052555,6913
1659521104.090786,6944
1659521104.132772,6970
1659521104.174758,7033
1659521104.213672,7089
1659521104.252586,7152
1659521104.2915,7222
1659521104.333486,7282
1659521104.375472,7334
1659521104.414045,7354
1659521104.452617,7372
1659521104.49119,7393
1659521104.533176,7427
1659521104.575162,7475
1659521104.614418,7506
1659521104.653673,7515
1659521104.692928,7518
1659521104.733378,7533
1659521104.773828,7542
1659521104.812059,7568
1659521104.850291,7584
1659521104.888522,7613
1659521104.932898,7656
1659521104.977273,7698
1659521105.021649,7732
1659521105.05493,7761
1659521105.088212,7763
1659521105.132246,7749
1659521105.17628,7754
1659521105.220315,7772
1659521105.261277,7775
1659521105.302239,7792
1659521105.341153,7794
1659521105.380067,7771
1659521105.418981,7711
1659521105.457895,7634
1659521105.496808,7565
1659521105.535722,7509
1659521105.57822,7465
1659521105.620719,7411
1659521105.659291,7373
1659521105.697864,7330
1659521105.736436,7292
1659521105.77791,7267
1659521105.819385,7241
1659521105.85864,7261
1659521105.897895,7266
1659521105.93715,7262
1659521105.976064,7222
1659521106.014978,7158
1659521106.053892,7089
1659521106.094854,7048
1659521106.135816,7021
1659521106.175072,6983
1659521106.214327,6960
1659521106.253582,6929
1659521106.294544,6862
1659521106.335506,6831
1659521106.374762,6817
1659521106.414017,6826
1659521106.453272,6855
1659521106.495258,6911
1659521106.537245,6935
1659521106.575817,6959
1659521106.61439,7029
1659521106.652962,7121
1659521106.694436,7261
1659521106.73591,7412
1659521106.780969,7545
1659521106.826027,7662
1659521106.871085,7753
1659521106.904367,7787
1659521106.937649,7771
1659521106.981341,7780
1659521107.025034,7813
1659521107.068727,7863
1659521107.107982,7891
1659521107.147238,7948
1659521107.186493,7976
1659521107.226943,7972
1659521107.267393,7941
1659521107.305966,7909
1659521107.344538,7925
1659521107.383111,7969
1659521107.422025,8006
1659521107.460939,8024
1659521107.499853,8036
1659521107.541327,8094
1659521107.582801,8179
1659521107.621373,8264
1659521107.659946,8354
1659521107.698519,8405
1659521107.740505,8437
1659521107.782491,8452
1659521107.821405,8457
1659521107.860319,8464
1659521107.899233,8463
1659521107.937805,8454
1659521107.976378,8441
1659521108.01495,8453
1659521108.055912,8435
1659521108.096874,8435
1659521108.136812,8442
1659521108.17675,8447
1659521108.216688,8460
1659521108.256626,8458
1659521108.296564,8479
1659521108.337527,8499
1659521108.378489,8544
1659521108.417403,8581
1659521108.456316,8640
1659521108.49523,8662
1659521108.537216,8689
1659521108.579203,8702
1659521108.617775,8690
1659521108.656348,8661
1659521108.69492,8640
1659521108.739979,8636
1659521108.785037,8639
1659521108.830095,8649
1659521108.863377,8670
1659521108.896658,8705
1659521108.940693,8747
1659521108.984727,8776
1659521109.028761,8811
1659521109.071259,8866
1659521109.113757,8917
1659521109.152671,8983
1659521109.191585,9036
1659521109.230499,9074
1659521109.269072,9085
1659521109.307644,9091
1659521109.346217,9088
1659521109.387691,9086
1659521109.429165,9113
1659521109.467738,9135
1659521109.50631,9138
1659521109.544883,9133
1659521109.586869,9141
1659521109.628855,9169
1659521109.667428,9202
1659521109.706,9242
1659521109.744573,9280
1659521109.784169,9335
1659521109.823766,9379
1659521109.863363,9436
1659521109.904325,9521
1659521109.945287,9591
1659521109.984201,9675
1659521110.023115,9758
1659521110.062029,9851
1659521110.105039,9908
1659521110.148049,9973
1659521110.186622,10017
1659521110.225194,10053
1659521110.263767,10077
1659521110.304217,10071
1659521110.344667,10077
1659521110.389042,10077
1659521110.433418,10085
1659521110.477793,10107
1659521110.511587,10139
1659521110.545381,10166
1659521110.589415,10203
1659521110.633449,10251
1659521110.677484,10278
1659521110.716056,10297
1659521110.754629,10303
1659521110.793201,10322
1659521110.834675,10369
1659521110.876149,10377
1659521110.914381,10377
1659521110.952612,10404
1659521110.990843,10459
1659521111.033341,10501
1659521111.07584,10523
1659521111.114753,10518
1659521111.153667,10485
1659521111.192581,10424
1659521111.231154,10342
1659521111.269727,10269
1659521111.308299,10250
1659521111.350797,10233
1659521111.393295,10230
1659521111.432209,10248
1659521111.471123,10274
1659521111.510037,10313
1659521111.550487,10377
1659521111.590937,10425
1659521111.630193,10487
1659521111.669448,10551
1659521111.708703,10575
1659521111.747276,10592
1659521111.785848,10598
1659521111.824421,10620
1659521111.866407,10633
1659521111.908393,10628
1659521111.949867,10614
1659521111.991341,10578
1659521112.030596,10484
1659521112.069852,10350
1659521112.109107,10241
1659521112.153141,10174
1659521112.197176,10152
1659521112.24121,10166
1659521112.280806,10174
1659521112.320403,10173
1659521112.36,10168
1659521112.401986,10200
1659521112.443972,10171
1659521112.482886,10129
1659521112.5218,10088
1659521112.560714,10089
1659521112.599628,10112
1659521112.638542,10114
1659521112.677456,10128
1659521112.71893,10137
1659521112.760404,10199
1659521112.798635,10237
1659521112.836866,10253
1659521112.875098,10222
1659521112.917596,10140
1659521112.960094,10061
1659521112.998666,9972
1659521113.037239,9886
1659521113.075812,9814
1659521113.114384,9760
1659521113.152957,9712
1659521113.191529,9647
1659521113.233003,9588
1659521113.274477,9538
1659521113.313391,9491
1659521113.352305,9474
1659521113.391219,9468
1659521113.432949,9482
1659521113.474679,9498
1659521113.51641,9520
1659521113.55814,9582
1659521113.596371,9653
1659521113.634602,9720
1659521113.672833,9808
1659521113.715332,9877
1659521113.75783,9898
1659521113.796061,9888
1659521113.834292,9846
1659521113.872523,9824
1659521113.913486,9801
1659521113.954448,9773
1659521113.993361,9764
1659521114.032275,9767
1659521114.071189,9758
1659521114.115223,9732
1659521114.159258,9717
1659521114.203292,9709
1659521114.24579,9693
1659521114.288288,9709
1659521114.327202,9721
1659521114.366116,9745
1659521114.40503,9799
1659521114.446504,9842
1659521114.487978,9870
1659521114.526892,9899
1659521114.565806,9927
1659521114.60472,9940
1659521114.643975,9962
1659521114.683231,9935
1659521114.722486,9873
1659521114.76396,9823
1659521114.805434,9762
1659521114.843665,9717
1659521114.881896,9693
1659521114.920128,9655
1659521114.959383,9618
1659521114.998638,9551
1659521115.037894,9492
1659521115.078344,9445
1659521115.118794,9371
1659521115.158049,9307
1659521115.197304,9281
1659521115.23656,9304
1659521115.278546,9357
1659521115.320532,9425
1659521115.359104,9443
1659521115.397677,9466
1659521115.436249,9494
1659521115.477724,9518
1659521115.519198,9523
1659521115.559136,9495
1659521115.599074,9470
1659521115.639012,9419
1659521115.680486,9363
1659521115.72196,9307
1659521115.766335,9271
1659521115.810711,9238
1659521115.855087,9168
1659521115.888368,9107
1659521115.92165,9052
1659521115.966025,9035
1659521116.010401,9044
1659521116.054776,9114
1659521116.093349,9176
1659521116.131922,9223
1659521116.170494,9244
1659521116.21248,9253
1659521116.254467,9251
1659521116.292698,9267
1659521116.330929,9324
1659521116.36916,9370
1659521116.407733,9385
1659521116.446306,9384
1659521116.484878,9379
1659521116.527376,9369
1659521116.569874,9330
1659521116.608447,9261
1659521116.647019,9198
1659521116.685592,9130
1659521116.724165,9083
1659521116.762737,9076
1659521116.80131,9078
1659521116.843296,9088
1659521116.885282,9105
1659521116.923513,9119
1659521116.961745,9156
1659521116.999976,9181
1659521117.041962,9215
1659521117.083948,9256
1659521117.128324,9283
1659521117.172699,9298
1659521117.217075,9285
1659521117.249332,9280
1659521117.28159,9259
1659521117.325283,9236
1659521117.368976,9214
1659521117.412668,9182
1659521117.446462,9143
1659521117.480256,9097
1659521117.524973,9032
1659521117.56969,8962
1659521117.614407,8879
1659521117.652979,8808
1659521117.691552,8750
1659521117.730124,8728
1659521117.77211,8741
1659521117.814096,8776
1659521117.853352,8803
1659521117.892607,8798
1659521117.931862,8806
1659521117.973336,8804
1659521118.014811,8839
1659521118.053725,8866
1659521118.092638,8884
1659521118.131552,8898
1659521118.170125,8898
1659521118.208698,8882
1659521118.24727,8835
1659521118.288744,8796
1659521118.330218,8731
1659521118.368791,8661
1659521118.407364,8605
1659521118.445936,8536
1659521118.488434,8480
1659521118.530932,8457
1659521118.569505,8490
1659521118.608078,8534
1659521118.64665,8571
1659521118.686793,8610
1659521118.726936,8666
1659521118.767079,8765
1659521118.807221,8860
1659521118.847364,8944
1659521118.88935,9011
1659521118.931336,9064
1659521118.969909,9128
1659521119.008482,9169
1659521119.047054,9208
1659521119.088528,9235
1659521119.130002,9268
1659521119.168916,9282
1659521119.20783,9290
1659521119.246744,9312
1659521119.288218,9324
1659521119.329692,9346
1659521119.373727,9350
1659521119.417761,9334
1659521119.461795,9289
1659521119.500709,9260
1659521119.539623,9242
1659521119.578537,9249
1659521119.618987,9292
1659521119.659437,9299
1659521119.698351,9306
1659521119.737265,9313
1659521119.776179,9306
1659521119.818165,9328
1659521119.860151,9324
1659521119.899065,9319
1659521119.937979,9308
1659521119.976893,9302
1659521120.015465,9320
1659521120.054038,9344
1659521120.092611,9390
1659521120.135109,9417
1659521120.177607,9464
1659521120.216521,9488
1659521120.255435,9529
1659521120.294349,9563
1659521120.334799,9574
1659521120.375249,9575
1659521120.414504,9540
1659521120.453759,9524
1659521120.493015,9525
1659521120.530905,9524
1659521120.568794,9528
1659521120.606684,9518
1659521120.648158,9523
1659521120.689632,9527
1659521120.728888,9531
1659521120.768143,9553
1659521120.807398,9562
1659521120.848872,9575
1659521120.890347,9585
1659521120.934722,9606
1659521120.979098,9619
1659521121.023473,9631
1659521121.057779,9639
1659521121.092084,9643
1659521121.136801,9653
1659521121.181518,9650
1659521121.226235,9635
1659521121.259005,9593
1659521121.291775,9543
1659521121.336833,9494
1659521121.381891,9458
1659521121.426949,9443
1659521121.465522,9418
1659521121.504094,9411
1659521121.542667,9385
1659521121.584141,9385
1659521121.625615,9396
1659521121.664871,9400
1659521121.704126,9417
1659521121.743381,9416
1659521121.784855,9423
1659521121.826329,9420
1659521121.864561,9426
1659521121.902792,9431
1659521121.941023,9433
1659521121.980278,9452
1659521122.019534,9461
1659521122.058789,9469
1659521122.101287,9432
1659521122.143785,9375
1659521122.182358,9326
1659521122.22093,9274
1659521122.259503,9237
1659521122.300977,9205
1659521122.342451,9200
1659521122.381706,9170
1659521122.420962,9159
1659521122.460217,9140
1659521122.501691,9130
1659521122.543165,9131
1659521122.581738,9130
1659521122.62031,9148
1659521122.658883,9188
1659521122.700357,9267
1659521122.741831,9329
1659521122.780062,9381
1659521122.818294,9408
1659521122.856525,9433
1659521122.900559,9427
1659521122.944593,9356
1659521122.988627,9253
1659521123.021909,9132
1659521123.055191,9023
1659521123.099566,8924
1659521123.143942,8853
1659521123.188317,8755
1659521123.227231,8665
1659521123.266145,8635
1659521123.305059,8617
1659521123.347045,8617
1659521123.389031,8580
1659521123.427945,8531
1659521123.466859,8538
1659521123.505773,8543
1659521123.544687,8550
1659521123.583601,8541
1659521123.622515,8481
1659521123.663989,8442
1659521123.705463,8459
1659521123.744377,8470
1659521123.783291,8376
1659521123.822205,8235
1659521123.862655,8119
1659521123.903105,7977
1659521123.943453,7709
1659521123.9838,7509
1659521124.024148,7410
1659521124.064496,7420
1659521124.104843,7607
1659521124.143416,7822
1659521124.181988,7913
1659521124.220561,7977
1659521124.262035,8027
1659521124.303509,8062
1659521124.343447,8029
1659521124.383385,7978
1659521124.423323,7927
1659521124.464285,7875
1659521124.505247,7889
1659521124.544161,7959
1659521124.583075,8026
1659521124.621989,8037
1659521124.667047,7970
1659521124.712106,7831
1659521124.757164,7734
1659521124.797614,7685
1659521124.838064,7667
1659521124.877319,7655
1659521124.916574,7631
1659521124.95583,7618
1659521124.997304,7587
1659521125.038778,7580
1659521125.077351,7521
1659521125.115923,7480
1659521125.154496,7492
1659521125.192727,7566
1659521125.230958,7639
1659521125.269189,7688
1659521125.3122,7750
1659521125.35521,7809
1659521125.393782,7844
1659521125.432355,7837
1659521125.470927,7839
1659521125.509841,7861
1659521125.548755,7893
1659521125.587669,7922
1659521125.629656,7947
1659521125.671642,7919
1659521125.709873,7860
1659521125.748104,7779
1659521125.786335,7705
1659521125.828321,7604
1659521125.870307,7460
1659521125.909221,7317
1659521125.948135,7217
1659521125.987049,7141
1659521126.028011,7082
1659521126.068974,7066
1659521126.112666,7071
1659521126.156359,7127
1659521126.200052,7192
1659521126.239307,7260
1659521126.278563,7302
1659521126.317818,7352
1659521126.359292,7413
1659521126.400766,7484
1659521126.438997,7572
1659521126.477229,7650
1659521126.51546,7748
1659521126.557446,7803
1659521126.599432,7828
1659521126.638346,7790
1659521126.67726,7759
1659521126.716174,7736
1659521126.754746,7733
1659521126.793319,7746
1659521126.831892,7744
1659521126.87439,7717
1659521126.916888,7717
1659521126.955461,7742
1659521126.994033,7757
1659521127.032606,7716
1659521127.073056,7700
1659521127.113506,7683
1659521127.15242,7685
1659521127.191334,7693
1659521127.230247,7700
1659521127.269503,7734
1659521127.308758,7750
1659521127.348013,7783
1659521127.388975,7844
1659521127.429938,7842
1659521127.469193,7783
1659521127.508448,7673
1659521127.547704,7571
1659521127.589689,7580
1659521127.631676,7678
1659521127.676051,7729
1659521127.720427,7704
1659521127.764802,7646
1659521127.798596,7650
1659521127.83239,7666
1659521127.877448,7667
1659521127.922506,7658
1659521127.967564,7641
1659521128.000334,7636
1659521128.033104,7642
1659521128.077138,7666
1659521128.121172,7701
1659521128.165206,7697
1659521128.204803,7691
1659521128.2444,7674
1659521128.283996,7656
1659521128.324446,7704
1659521128.364896,7783
1659521128.403469,7849
1659521128.442041,7867
1659521128.480614,7875
1659521128.522088,7886
1659521128.563562,7918
1659521128.602476,7921
1659521128.64139,7894
1659521128.680304,7849
1659521128.719218,7803
1659521128.758132,7778
1659521128.797046,7780
1659521128.838008,7794
1659521128.87897,7814
1659521128.918225,7846
1659521128.957481,7903
1659521128.996736,7955
1659521129.034967,8006
1659521129.073198,8045
1659521129.11143,8085
1659521129.153928,8110
1659521129.196426,8112
1659521129.237644,8128
1659521129.278862,8145
1659521129.32008,8144
1659521129.361298,8164
1659521129.399871,8174
1659521129.438443,8184
1659521129.477016,8174
1659521129.516271,8200
1659521129.555526,8222
1659521129.594782,8254
1659521129.635232,8294
1659521129.675682,8294
1659521129.714254,8294
1659521129.752827,8316
1659521129.7914,8385
1659521129.83441,8421
1659521129.87742,8462
1659521129.918894,8482
1659521129.960368,8483
1659521129.998599,8463
1659521130.036831,8405
1659521130.075062,8297
1659521130.12012,8202
1659521130.165178,8119
1659521130.210237,8035
1659521130.24403,8015
1659521130.277824,8032
1659521130.321858,8063
1659521130.365892,8121
1659521130.409927,8149
1659521130.443208,8203
1659521130.47649,8237
1659521130.520865,8255
1659521130.565241,8225
1659521130.609617,8161
1659521130.647506,8098
1659521130.685396,8056
1659521130.723286,8021
1659521130.766296,7992
1659521130.809307,8004
1659521130.848221,7985
1659521130.887135,7922
1659521130.926049,7915
1659521130.964621,7922
1659521131.003194,7931
1659521131.041766,7944
1659521131.083752,7955
1659521131.125738,7954
1659521131.164994,7953
1659521131.204249,7942
1659521131.243504,7930
1659521131.284978,7923
1659521131.326452,7898
1659521131.365708,7874
1659521131.404963,7874
1659521131.444218,7859
1659521131.485693,7868
1659521131.527167,7873
1659521131.565398,7857
1659521131.603629,7832
1659521131.64186,7809
1659521131.683846,7807
1659521131.725832,7796
1659521131.764746,7828
1659521131.80366,7808
1659521131.842574,7769
1659521131.886267,7741
1659521131.92996,7696
1659521131.973653,7652
1659521132.006934,7609
1659521132.040216,7593
1659521132.084933,7577
1659521132.12965,7591
1659521132.174367,7574
1659521132.215841,7541
1659521132.257315,7543
1659521132.295888,7535
1659521132.33446,7533
1659521132.373033,7513
1659521132.412288,7469
1659521132.451543,7409
1659521132.490799,7344
1659521132.531249,7283
1659521132.571699,7243
1659521132.610271,7215
1659521132.648844,7185
1659521132.687417,7159
1659521132.729915,7100
1659521132.772413,7058
1659521132.810985,7020
1659521132.849558,6978
1659521132.888131,6968
1659521132.926362,6946
1659521132.964593,6927
1659521133.002824,6903
1659521133.044811,6873
1659521133.086797,6812
1659521133.126393,6776
1659521133.16599,6769
1659521133.205586,6753
1659521133.246548,6739
1659521133.287511,6744
1659521133.326766,6791
1659521133.366021,6837
1659521133.405277,6834
1659521133.447775,6767
1659521133.490273,6745
1659521133.529187,6874
1659521133.568101,7056
1659521133.607015,7198
1659521133.647977,7354
1659521133.688939,7506
1659521133.733314,7599
1659521133.77769,7702
1659521133.822065,7880
1659521133.860638,8108
1659521133.89921,8342
1659521133.937783,8563
1659521133.978745,8778
1659521134.019707,8982
1659521134.059645,9224
1659521134.099583,9499
1659521134.139521,9740
1659521134.180483,9898
1659521134.221445,9973
1659521134.260359,10020
1659521134.299273,10087
1659521134.338187,10202
1659521134.377784,10364
1659521134.41738,10468
1659521134.456977,10502
1659521134.498451,10535
1659521134.539925,10610
1659521134.581399,10725
1659521134.622873,10815
1659521134.664347,10899
1659521134.705822,10966
1659521134.744735,11047
1659521134.783649,11092
1659521134.822563,11136
1659521134.861136,11183
1659521134.899709,11191
1659521134.938281,11189
1659521134.979755,11193
1659521135.021229,11215
1659521135.060143,11250
1659521135.099057,11268
1659521135.137971,11251
1659521135.175861,11225
1659521135.213751,11207
1659521135.251641,11202
1659521135.294139,11209
1659521135.336637,11216
1659521135.375551,11222
1659521135.414465,11234
1659521135.453379,11244
1659521135.494341,11237
1659521135.535303,11244
1659521135.574558,11245
1659521135.613814,11244
1659521135.653069,11242
1659521135.695055,11237
1659521135.737041,11197
1659521135.775614,11151
1659521135.814186,11087
1659521135.852759,10968
1659521135.894233,10851
1659521135.935707,10780
1659521135.980424,10770
1659521136.025141,10737
1659521136.069858,10618
1659521136.107748,10392
1659521136.145638,10188
1659521136.183527,10062
1659521136.225513,9957
1659521136.2675,9895
1659521136.306414,9825
1659521136.345328,9757
1659521136.384242,9725
1659521136.425715,9678
1659521136.46719,9641
1659521136.506104,9596
1659521136.545017,9565
1659521136.583931,9514
1659521136.623187,9467
1659521136.662442,9426
1659521136.701697,9368
1659521136.743683,9315
1659521136.78567,9255
1659521136.824584,9204
1659521136.863497,9167
1659521136.902411,9122
1659521136.943886,9084
1659521136.985359,9010
1659521137.023932,8914
1659521137.062505,8854
1659521137.101077,8832
1659521137.13965,8818
1659521137.178222,8799
1659521137.216795,8806
1659521137.259293,8814
1659521137.301791,8842
1659521137.342753,8857
1659521137.383715,8861
1659521137.422629,8870
1659521137.461543,8886
1659521137.500457,8907
1659521137.542444,8920
1659521137.58443,8936
1659521137.623343,8952
1659521137.662257,8968
1659521137.701171,8994
1659521137.745547,9029
1659521137.789922,9070
1659521137.834298,9069
1659521137.86758,9058
1659521137.900861,9009
1659521137.944896,8961
1659521137.98893,8906
1659521138.032964,8847
1659521138.071195,8837
1659521138.109426,8822
1659521138.147658,8796
1659521138.189644,8762
1659521138.23163,8736
1659521138.270202,8718
1659521138.308775,8696
1659521138.347348,8697
1659521138.38592,8713
1659521138.424493,8750
1659521138.463065,8781
1659521138.504028,8801
1659521138.54499,8825
1659521138.584245,8857
1659521138.6235,8893
1659521138.662755,8894
1659521138.701328,8862
1659521138.739901,8813
1659521138.778473,8753
1659521138.819435,8705
1659521138.860397,8658
1659521138.902383,8537
1659521138.94437,8459
1659521138.983625,8420
1659521139.02288,8397
1659521139.062135,8385
1659521139.106511,8405
1659521139.150887,8422
1659521139.195262,8452
1659521139.228544,8502
1659521139.261825,8544
1659521139.306201,8596
1659521139.350576,8653
1659521139.394952,8718
1659521139.433183,8774
1659521139.471415,8844
1659521139.509646,8873
1659521139.552144,8872
1659521139.594642,8861
1659521139.633215,8840
1659521139.671787,8825
1659521139.71036,8801
1659521139.751834,8742
1659521139.793308,8666
1659521139.834782,8633
1659521139.876256,8648
1659521139.914146,8673
1659521139.952036,8738
1659521139.989926,8792
1659521140.027816,8855
1659521140.06929,8881
1659521140.110764,8917
1659521140.150361,8949
1659521140.189957,8972
1659521140.229554,8991
1659521140.267785,9018
1659521140.306016,9069
1659521140.344248,9087
1659521140.38521,9052
1659521140.426172,9050
1659521140.46867,9062
1659521140.511168,9109
1659521140.549741,9142
1659521140.588313,9177
1659521140.626886,9215
1659521140.670578,9249
1659521140.714271,9268
1659521140.757964,9280
1659521140.791758,9301
1659521140.825552,9312
1659521140.87061,9320
1659521140.915668,9315
1659521140.960726,9308
1659521140.993496,9304
1659521141.026266,9295
1659521141.070982,9288
1659521141.1157,9280
1659521141.160416,9260
1659521141.202403,9206
1659521141.244389,9164
1659521141.28262,9121
1659521141.320851,9034
1659521141.359082,8976
1659521141.397655,8895
1659521141.436228,8826
1659521141.4748,8755
1659521141.516786,8705
1659521141.558772,8703
1659521141.597003,8720
1659521141.635235,8752
1659521141.673466,8772
1659521141.712039,8807
1659521141.750611,8820
1659521141.789184,8831
1659521141.830658,8853
1659521141.872132,8868
1659521141.911046,8878
1659521141.94996,8869
1659521141.988874,8869
1659521142.030348,8859
1659521142.071822,8858
1659521142.110736,8862
1659521142.14965,8849
1659521142.188564,8845
1659521142.230038,8783
1659521142.271512,8741
1659521142.310767,8694
1659521142.350023,8659
1659521142.389278,8645
1659521142.431264,8644
1659521142.47325,8645
1659521142.512164,8653
1659521142.551078,8677
1659521142.589992,8706
1659521142.634026,8726
1659521142.67806,8758
1659521142.722095,8789
1659521142.763569,8841
1659521142.805043,8865
1659521142.844298,8900
1659521142.883553,8928
1659521142.922809,8951
1659521142.963771,8967
1659521143.004733,8993
1659521143.043988,9011
1659521143.083243,9014
1659521143.122499,9021
1659521143.161754,8997
1659521143.201009,8978
1659521143.240264,8961
1659521143.28225,8951
1659521143.324237,8939
1659521143.363151,8935
1659521143.402065,8884
1659521143.440979,8844
1659521143.482965,8875
1659521143.524951,8928
1659521143.563523,8974
1659521143.602096,9002
1659521143.640668,9000
1659521143.679241,9005
1659521143.717814,9006
1659521143.756386,9006
1659521143.799396,9026
1659521143.842407,9026
1659521143.880296,9016
1659521143.918186,9024
1659521143.956076,9042
1659521143.996526,9006
1659521144.036976,8939
1659521144.081693,8911
1659521144.12641,8908
1659521144.171127,8921
1659521144.204921,8914
1659521144.238714,8950
1659521144.28309,8998
1659521144.327466,9053
1659521144.371841,9120
1659521144.405123,9195
1659521144.438404,9243
1659521144.48278,9276
1659521144.527155,9310
1659521144.571531,9314
1659521144.609762,9326
1659521144.647994,9339
1659521144.686225,9370
1659521144.728723,9389
1659521144.771221,9405
1659521144.809794,9411
1659521144.848366,9378
1659521144.886939,9353
1659521144.927389,9319
1659521144.967839,9298
1659521145.008391,9270
1659521145.048944,9230
1659521145.089496,9192
1659521145.130049,9184
1659521145.170601,9159
1659521145.211051,9134
1659521145.251501,9129
1659521145.290756,9116
1659521145.330012,9098
1659521145.369267,9091
1659521145.411765,9091
1659521145.454263,9091
1659521145.492494,9100
1659521145.530726,9107
1659521145.568957,9098
1659521145.607871,9078
1659521145.646785,8982
1659521145.685699,8791
1659521145.727685,8620
1659521145.769671,8497
1659521145.807902,8458
1659521145.846133,8492
1659521145.884365,8555
1659521145.926863,8613
1659521145.969361,8659
1659521146.008275,8706
1659521146.047189,8760
1659521146.086103,8826
1659521146.124675,8886
1659521146.163248,8932
1659521146.201821,8957
1659521146.242783,8968
1659521146.283745,8973
1659521146.326243,8958
1659521146.368741,8953
1659521146.407655,8950
1659521146.446569,8944
1659521146.485483,8896
1659521146.5302,8834
1659521146.574917,8793
1659521146.619633,8758
1659521146.652915,8745
1659521146.686197,8765
1659521146.730914,8777
1659521146.775631,8801
1659521146.820348,8803
1659521146.853629,8831
1659521146.886911,8861
1659521146.931286,8901
1659521146.975662,8952
1659521147.020037,9000
1659521147.058269,9071
1659521147.0965,9135
1659521147.134731,9197
1659521147.175693,9232
1659521147.216655,9281
1659521147.255228,9332
1659521147.293801,9367
1659521147.332373,9381
1659521147.374359,9373
1659521147.416345,9341
1659521147.454918,9283
1659521147.49349,9276
1659521147.532063,9226
1659521147.574049,9190
1659521147.616035,9178
1659521147.658021,9175
1659521147.700007,9178
1659521147.733289,9176
1659521147.766571,9178
1659521147.810605,9174
1659521147.854639,9187
1659521147.898674,9226
1659521147.936905,9286
1659521147.975136,9360
1659521148.013367,9381
1659521148.055353,9422
1659521148.097339,9454
1659521148.135912,9472
1659521148.174484,9472
1659521148.213057,9478
1659521148.254019,9415
1659521148.294981,9332
1659521148.333895,9206
1659521148.372809,9043
1659521148.411723,8900
1659521148.449954,8723
1659521148.488186,8593
1659521148.526417,8473
1659521148.568403,8339
1659521148.610389,8186
1659521148.649986,8051
1659521148.689582,7957
1659521148.729179,7898
1659521148.770141,7871
1659521148.811103,7864
1659521148.850017,7894
1659521148.888931,7994
1659521148.927845,8098
1659521148.970855,8212
1659521149.013865,8384
1659521149.052438,8523
1659521149.09101,8623
1659521149.129583,8692
1659521149.170545,8747
1659521149.211507,8799
1659521149.250762,8855
1659521149.290018,8938
1659521149.329273,9016
1659521149.373307,9097
1659521149.417341,9161
1659521149.461376,9224
1659521149.503362,9289
1659521149.545348,9345
1659521149.584603,9401
1659521149.623858,9451
1659521149.663114,9497
1659521149.701345,9543
1659521149.739576,9591
1659521149.777807,9612
1659521149.818769,9644
1659521149.859731,9679
1659521149.89967,9704
1659521149.939608,9719
1659521149.979546,9725
1659521150.020508,9708
1659521150.06147,9661
1659521150.100042,9612
1659521150.138615,9585
1659521150.177187,9555
1659521150.217125,9562
1659521150.257063,9554
1659521150.297001,9549
1659521150.336939,9541
1659521150.376877,9524
1659521150.415109,9507
1659521150.45334,9505
1659521150.491571,9527
1659521150.533045,9533
1659521150.574519,9529
1659521150.612751,9497
1659521150.650982,9450
1659521150.689213,9373
1659521150.731199,9322
1659521150.773185,9315
1659521150.817902,9331
1659521150.862619,9350
1659521150.907336,9334
1659521150.94625,9296
1659521150.985164,9241
1659521151.024078,9225
1659521151.06504,9256
1659521151.106002,9310
1659521151.145257,9377
1659521151.184512,9452
1659521151.223768,9539
1659521151.265754,9625
1659521151.30774,9740
1659521151.34563,9829
1659521151.38352,9906
1659521151.42141,9948
1659521151.460324,9967
1659521151.499238,9988
1659521151.538152,9988
1659521151.579626,9992
1659521151.6211,9981
1659521151.659331,9987
1659521151.697562,9971
1659521151.735793,9948
1659521151.774707,9894
1659521151.813621,9829
1659521151.852535,9781
1659521151.894521,9733
1659521151.936507,9696
1659521151.975763,9662
1659521152.015018,9641
1659521152.054273,9623
1659521152.095747,9612
1659521152.137222,9604
1659521152.176477,9590
1659521152.215732,9611
1659521152.254987,9611
1659521152.296973,9638
1659521152.338959,9651
1659521152.383677,9672
1659521152.428393,9686
1659521152.47311,9676
1659521152.50588,9667
1659521152.53865,9664
1659521152.582684,9653
1659521152.626718,9630
1659521152.670752,9572
1659521152.704546,9520
1659521152.738339,9464
1659521152.782715,9441
1659521152.827091,9419
1659521152.871466,9398
1659521152.910039,9386
1659521152.948611,9356
1659521152.987184,9341
1659521153.028658,9337
1659521153.070132,9336
1659521153.109046,9343
1659521153.14796,9348
1659521153.186874,9363
1659521153.229372,9379
1659521153.27187,9409
1659521153.310443,9422
1659521153.349015,9440
1659521153.387588,9475
1659521153.426502,9499
1659521153.465416,9513
1659521153.50433,9491
1659521153.545804,9458
1659521153.587278,9412
1659521153.625851,9385
1659521153.664423,9360
1659521153.702996,9336
1659521153.743958,9333
1659521153.78492,9337
1659521153.823834,9341
1659521153.862748,9347
1659521153.901662,9361
1659521153.945354,9378
1659521153.989048,9392
1659521154.03274,9406
1659521154.066534,9419
1659521154.100328,9447
1659521154.145045,9455
1659521154.189761,9470
1659521154.234478,9496
1659521154.267248,9501
1659521154.300018,9518
1659521154.344393,9530
1659521154.388769,9491
1659521154.433144,9415
1659521154.472741,9341
1659521154.512338,9289
1659521154.551934,9222
1659521154.593408,9174
1659521154.634882,9150
1659521154.673455,9125
1659521154.712028,9101
1659521154.7506,9077
1659521154.792586,9082
1659521154.834572,9105
1659521154.872804,9136
1659521154.911035,9163
1659521154.949266,9192
1659521154.98818,9226
1659521155.027094,9262
1659521155.066008,9306
1659521155.108506,9323
1659521155.151004,9339
1659521155.189235,9318
1659521155.227467,9300
1659521155.265698,9264
1659521155.307684,9158
1659521155.34967,9029
1659521155.388926,8904
1659521155.428181,8843
1659521155.467436,8801
1659521155.507374,8803
1659521155.547312,8787
1659521155.58725,8769
1659521155.627188,8770
1659521155.667126,8764
1659521155.712184,8757
1659521155.757242,8769
1659521155.802301,8798
1659521155.834558,8811
1659521155.866816,8857
1659521155.91085,8880
1659521155.954885,8925
1659521155.998919,9014
1659521156.041417,9091
1659521156.083915,9178
1659521156.122488,9245
1659521156.16106,9309
1659521156.199633,9345
1659521156.237864,9358
1659521156.276095,9324
1659521156.314327,9257
1659521156.356313,9192
1659521156.398299,9128
1659521156.436871,9076
1659521156.475444,9033
1659521156.514016,9008
1659521156.553272,8962
1659521156.592527,8937
1659521156.631782,8907
1659521156.673256,8880
1659521156.714731,8853
1659521156.753644,8818
1659521156.792558,8723
1659521156.831472,8616
1659521156.872434,8578
1659521156.913396,8598
1659521156.952652,8625
1659521156.991907,8621
1659521157.031162,8598
1659521157.072124,8586
1659521157.113086,8587
1659521157.151659,8597
1659521157.190232,8638
1659521157.228804,8675
1659521157.269254,8679
1659521157.309704,8665
1659521157.349642,8644
1659521157.38958,8633
1659521157.429518,8606
1659521157.473552,8608
1659521157.517587,8645
1659521157.561621,8674
1659521157.603095,8707
1659521157.644569,8736
1659521157.683483,8775
1659521157.722397,8817
1659521157.761311,8862
1659521157.803297,8863
1659521157.845283,8860
1659521157.884197,8868
1659521157.923111,8866
1659521157.962025,8853
1659521158.000939,8863
1659521158.039853,8877
1659521158.078767,8864
1659521158.120241,8861
1659521158.161715,8891
1659521158.199946,8936
1659521158.238177,8975
1659521158.276409,8982
1659521158.315664,8948
1659521158.354919,8899
1659521158.394174,8848
1659521158.436673,8827
1659521158.479171,8841
1659521158.517061,8862
1659521158.55495,8892
1659521158.59284,8933
1659521158.635339,8967
1659521158.677837,9003
1659521158.716751,9045
1659521158.755665,9058
1659521158.794579,9082
1659521158.836053,9093
1659521158.877527,9107
1659521158.916782,9096
1659521158.956037,9070
1659521158.995292,9027
1659521159.037279,9014
1659521159.079265,9031
1659521159.122957,9070
1659521159.166651,9112
1659521159.210343,9153
1659521159.244137,9200
1659521159.277931,9227
1659521159.322306,9224
1659521159.366682,9210
1659521159.411057,9190
1659521159.448947,9199
1659521159.486837,9204
1659521159.524727,9220
1659521159.565689,9240
1659521159.606651,9255
1659521159.645906,9277
1659521159.685162,9286
1659521159.724417,9285
1659521159.762648,9293
1659521159.800879,9302
1659521159.839111,9323
1659521159.881609,9324
1659521159.924107,9333
1659521159.963021,9352
1659521160.001935,9379
1659521160.040849,9390
1659521160.082323,9415
1659521160.123797,9432
1659521160.162028,9381
1659521160.200259,9338
1659521160.238491,9269
1659521160.278087,9188
1659521160.317684,9151
1659521160.357281,9143
1659521160.397731,9101
1659521160.438181,9045
1659521160.479143,8996
1659521160.520105,8974
1659521160.559019,8948
1659521160.597933,8928
1659521160.636847,8903
1659521160.681222,8862
1659521160.725598,8854
1659521160.769973,8846
1659521160.807607,8828
1659521160.845241,8825
1659521160.882875,8797
1659521160.920509,8780
1659521160.959423,8798
1659521160.998337,8862
1659521161.037251,8903
1659521161.081968,8949
1659521161.126684,8995
1659521161.171401,9008
1659521161.205195,8994
1659521161.238989,8969
1659521161.283706,8938
1659521161.328423,8878
1659521161.373139,8833
1659521161.413589,8806
1659521161.45404,8763
1659521161.492954,8746
1659521161.531868,8744
1659521161.570781,8742
1659521161.610037,8733
1659521161.649292,8761
1659521161.688547,8780
1659521161.729509,8806
1659521161.770471,8833
1659521161.809044,8869
1659521161.847616,8892
1659521161.886189,8914
1659521161.928175,8950
1659521161.970161,8990
1659521162.009075,9028
1659521162.047989,9056
1659521162.086903,9051
1659521162.125817,9064
1659521162.164731,9079
1659521162.203645,9061
1659521162.245631,9017
1659521162.287617,8958
1659521162.326531,8916
1659521162.365445,8894
1659521162.404359,8886
1659521162.446345,8871
1659521162.488331,8873
1659521162.527245,8881
1659521162.566159,8879
1659521162.605073,8907
1659521162.646035,8938
1659521162.686997,8969
1659521162.73069,8989
1659521162.774383,9019
1659521162.818076,9050
1659521162.856648,9088
1659521162.895221,9113
1659521162.933794,9136
1659521162.97578,9160
1659521163.017766,9179
1659521163.056338,9196
1659521163.094911,9221
1659521163.133483,9221
1659521163.174958,9213
1659521163.216432,9175
1659521163.255687,9132
1659521163.294942,9107
1659521163.334198,9099
1659521163.372429,9090
1659521163.41066,9095
1659521163.448891,9095
1659521163.488147,9093
1659521163.527402,9108
1659521163.566657,9124
1659521163.608643,9159
1659521163.650629,9186
1659521163.688519,9167
1659521163.726409,9162
1659521163.764299,9167
1659521163.806285,9188
1659521163.848271,9213
1659521163.886844,9255
1659521163.925416,9274
1659521163.963989,9319
1659521164.005463,9352
1659521164.046937,9382
1659521164.086534,9403
1659521164.126131,9395
1659521164.165727,9379
1659521164.207713,9359
1659521164.249699,9354
1659521164.294075,9336
1659521164.33845,9316
1659521164.382826,9317
1659521164.41662,9297
1659521164.450413,9266
1659521164.495472,9237
1659521164.54053,9207
1659521164.585588,9194
1659521164.623478,9184
1659521164.661368,9177
1659521164.699258,9176
1659521164.74022,9213
1659521164.781182,9244
1659521164.820437,9271
1659521164.859693,9283
1659521164.898948,9302
1659521164.937862,9355
1659521164.976776,9393
1659521165.01569,9431
1659521165.057164,9451
1659521165.098638,9458
1659521165.137552,9411
1659521165.176466,9373
1659521165.21538,9329
1659521165.256342,9295
1659521165.297304,9285
1659521165.336559,9246
1659521165.375814,9242
1659521165.41507,9249
1659521165.454325,9264
1659521165.49358,9271
1659521165.532835,9283
1659521165.573798,9262
1659521165.61476,9246
1659521165.656234,9283
1659521165.697708,9303
1659521165.737304,9323
1659521165.776901,9345
1659521165.816498,9366
1659521165.860532,9339
1659521165.904566,9286
1659521165.9486,9196
1659521165.980858,9093
1659521166.013116,9023
1659521166.053054,8903
1659521166.092992,8769
1659521166.13293,8639
1659521166.172868,8519
1659521166.212806,8435
1659521166.25684,8383
1659521166.300874,8352
1659521166.344908,8318
1659521166.384163,8303
1659521166.423419,8314
1659521166.462674,8327
1659521166.504148,8353
1659521166.545622,8393
1659521166.584195,8454
1659521166.622767,8510
1659521166.66134,8554
1659521166.703838,8597
1659521166.746336,8625
1659521166.78525,8597
1659521166.824164,8562
1659521166.863078,8577
1659521166.901651,8619
1659521166.940223,8687
1659521166.978796,8747
1659521167.02027,8761
1659521167.061744,8737
1659521167.100658,8696
1659521167.139572,8683
1659521167.178486,8682
1659521167.220472,8684
1659521167.262458,8707
1659521167.300689,8716
1659521167.338921,8706
1659521167.377152,8681
1659521167.419138,8712
1659521167.461124,8726
1659521167.500379,8773
1659521167.539635,8844
1659521167.57889,8900
1659521167.620876,8931
1659521167.662862,8944
1659521167.702117,8961
1659521167.741373,8986
1659521167.780628,9029
1659521167.825004,9068
1659521167.869379,9108
1659521167.913755,9164
1659521167.955229,9197
1659521167.996703,9205
1659521168.035617,9168
1659521168.074531,9144
1659521168.113445,9107
1659521168.155431,9093
1659521168.197417,9077
1659521168.235989,9068
1659521168.274562,9087
1659521168.313135,9071
1659521168.352049,9036
1659521168.390963,8994
1659521168.429877,8975
1659521168.470839,8982
1659521168.511801,9000
1659521168.550032,9030
1659521168.588263,9045
1659521168.626494,9082
1659521168.668993,9103
1659521168.711491,9130
1659521168.750405,9151
1659521168.789318,9175
1659521168.828232,9220
1659521168.866464,9249
1659521168.904695,9287
1659521168.942926,9312
1659521168.984912,9319
1659521169.026898,9292
1659521169.066154,9264
1659521169.105409,9233
1659521169.144664,9200
1659521169.185114,9206
1659521169.225564,9216
1659521169.264478,9221
1659521169.303392,9220
1659521169.342306,9161
1659521169.383268,9036
1659521169.42423,8917
1659521169.468264,8840
1659521169.512299,8768
1659521169.556333,8686
1659521169.595588,8601
1659521169.634843,8555
1659521169.674099,8551
1659521169.716085,8571
1659521169.758071,8611
1659521169.796302,8698
1659521169.834533,8782
1659521169.872765,8904
1659521169.914239,8986
1659521169.955713,9061
1659521169.995651,9093
1659521170.035589,9118
1659521170.075527,9120
1659521170.114099,9121
1659521170.152672,9139
1659521170.191245,9171
1659521170.232719,9224
1659521170.274193,9295
1659521170.313107,9373
1659521170.352021,9454
1659521170.390934,9531
1659521170.432409,9589
1659521170.473883,9612
1659521170.512455,9627
1659521170.551028,9619
1659521170.589601,9592
1659521170.628515,9562
1659521170.667428,9552
1659521170.706342,9538
1659521170.747816,9546
1659521170.78929,9558
1659521170.828204,9580
1659521170.867118,9596
1659521170.906032,9591
1659521170.94853,9564
1659521170.991029,9519
1659521171.032503,9466
1659521171.073977,9449
1659521171.112891,9430
1659521171.151805,9418
1659521171.190719,9398
1659521171.235094,9368
1659521171.27947,9334
1659521171.323845,9313
1659521171.360967,9308
1659521171.398089,9296
1659521171.435211,9312
1659521171.472333,9335
1659521171.510905,9345
1659521171.549478,9334
1659521171.58805,9331
1659521171.632426,9344
1659521171.676801,9372
1659521171.721177,9383
1659521171.759408,9400
1659521171.79764,9425
1659521171.835871,9448
1659521171.877857,9478
1659521171.919843,9538
1659521171.958757,9621
1659521171.997671,9730
1659521172.036585,9857
1659521172.078059,9938
1659521172.119533,9989
1659521172.158447,10004
1659521172.197361,10007
1659521172.236275,10046
1659521172.275189,10115
1659521172.314103,10173
1659521172.353017,10235
1659521172.395003,10305
1659521172.436989,10351
1659521172.474879,10382
1659521172.512769,10407
1659521172.550659,10423
1659521172.592133,10437
1659521172.633607,10454
1659521172.672179,10456
1659521172.710752,10457
1659521172.749325,10461
1659521172.790799,10432
1659521172.832273,10410
1659521172.871528,10386
1659521172.910783,10387
1659521172.950039,10391
1659521172.994414,10395
1659521173.03879,10389
1659521173.083165,10383
1659521173.115423,10398
1659521173.147681,10401
1659521173.192739,10413
1659521173.237797,10439
1659521173.282855,10441
1659521173.325353,10491
1659521173.367851,10527
1659521173.406765,10563
1659521173.445679,10607
1659521173.484593,10661
1659521173.523507,10700
1659521173.562421,10722
1659521173.601335,10683
1659521173.642809,10632
1659521173.684283,10614
1659521173.722856,10590
1659521173.761429,10581
1659521173.800001,10592
1659521173.841475,10595
1659521173.882949,10598
1659521173.921863,10585
1659521173.960777,10584
1659521173.999691,10596
1659521174.038264,10610
1659521174.076836,10634
1659521174.115409,10649
1659521174.157907,10674
1659521174.200405,10675
1659521174.239661,10686
1659521174.278916,10702
1659521174.318171,10713
1659521174.359133,10725
1659521174.400095,10731
1659521174.43935,10672
1659521174.478606,10590
1659521174.517861,10533
1659521174.560359,10472
1659521174.602857,10431
1659521174.646891,10393
1659521174.690926,10367
1659521174.73496,10335
1659521174.767217,10318
1659521174.799475,10310
1659521174.844192,10296
1659521174.888909,10311
1659521174.933626,10306
1659521174.971516,10305
1659521175.009406,10313
1659521175.047296,10317
1659521175.089282,10307
1659521175.131268,10282
1659521175.16984,10254
1659521175.208413,10228
1659521175.246985,10161
1659521175.28846,10037
1659521175.329934,9897
1659521175.368506,9779
1659521175.407079,9678
1659521175.445651,9629
1659521175.484907,9606
1659521175.524162,9613
1659521175.563417,9621
1659521175.604891,9614
1659521175.646365,9632
1659521175.685279,9664
1659521175.724193,9719
1659521175.763107,9765
1659521175.804581,9789
1659521175.846056,9813
1659521175.884628,9824
1659521175.923201,9848
1659521175.961773,9856
1659521176.000346,9858
1659521176.038918,9860
1659521176.077491,9821
1659521176.119989,9748
1659521176.162487,9643
1659521176.203449,9555
1659521176.244411,9480
1659521176.283325,9430
1659521176.322239,9413
1659521176.361153,9403
1659521176.40587,9408
1659521176.450587,9403
1659521176.495304,9424
1659521176.52961,9458
1659521176.563915,9478
1659521176.603648,9512
1659521176.643382,9561
1659521176.683115,9617
1659521176.722848,9672
1659521176.762581,9740
1659521176.806957,9794
1659521176.851332,9828
1659521176.895708,9866
1659521176.938206,9883
1659521176.980704,9854
1659521177.019277,9790
1659521177.057849,9735
1659521177.096422,9683
1659521177.135336,9631
1659521177.17425,9593
1659521177.213164,9554
1659521177.254126,9525
1659521177.295088,9487
1659521177.334002,9466
1659521177.372916,9446
1659521177.41183,9435
1659521177.454328,9411
1659521177.496826,9379
1659521177.536081,9351
1659521177.575337,9335
1659521177.614592,9344
1659521177.652823,9411
1659521177.691054,9503
1659521177.729286,9603
1659521177.771784,9650
1659521177.814282,9644
1659521177.853196,9618
1659521177.89211,9607
1659521177.931024,9624
1659521177.971474,9651
1659521178.011924,9689
1659521178.050838,9728
1659521178.089752,9765
1659521178.128666,9779
1659521178.169628,9797
1659521178.21059,9833
1659521178.249162,9846
1659521178.287735,9875
1659521178.326308,9894
1659521178.367782,9925
1659521178.409256,9969
1659521178.453631,9994
1659521178.498007,10031
1659521178.542382,10067
1659521178.580614,10103
1659521178.618845,10091
1659521178.657076,10053
1659521178.699062,10032
1659521178.741048,10019
1659521178.780645,10002
1659521178.820241,10008
1659521178.859838,9990
1659521178.9008,10002
1659521178.941762,9993
1659521178.980676,10007
1659521179.01959,10012
1659521179.058504,10035
1659521179.097077,10049
1659521179.135649,10071
1659521179.174222,10083
1659521179.216208,10094
1659521179.258194,10109
1659521179.296767,10107
1659521179.335339,10113
1659521179.373912,10125
1659521179.412826,10138
1659521179.45174,10124
1659521179.490654,10058
1659521179.531104,9998
1659521179.571554,9912
1659521179.610809,9876
1659521179.650064,9823
1659521179.68932,9776
1659521179.731818,9742
1659521179.774316,9660
1659521179.81323,9572
1659521179.852144,9499
1659521179.891058,9432
1659521179.932532,9396
1659521179.974006,9413
1659521180.019064,9453
1659521180.064122,9491
1659521180.109181,9533
1659521180.142462,9555
1659521180.175744,9551
1659521180.220119,9559
1659521180.264495,9558
1659521180.308871,9559
1659521180.34164,9548
1659521180.37441,9486
1659521180.418444,9399
1659521180.462478,9309
1659521180.506513,9235
1659521180.544744,9183
1659521180.582975,9166
1659521180.621206,9152
1659521180.663704,9145
1659521180.706203,9152
1659521180.744775,9155
1659521180.783348,9173
1659521180.82192,9186
1659521180.860834,9207
1659521180.899748,9220
1659521180.938662,9245
1659521180.980136,9261
1659521181.02161,9280
1659521181.060524,9296
1659521181.099438,9318
1659521181.138352,9345
1659521181.179826,9364
1659521181.2213,9376
1659521181.260214,9352
1659521181.299128,9336
1659521181.338042,9333
1659521181.376956,9309
1659521181.41587,9293
1659521181.454784,9267
1659521181.495234,9254
1659521181.535684,9248
1659521181.579718,9254
1659521181.623752,9293
1659521181.667787,9286
1659521181.702092,9286
1659521181.736398,9277
1659521181.780091,9280
1659521181.823784,9288
1659521181.867477,9287
1659521181.907415,9281
1659521181.947353,9278
1659521181.987291,9302
1659521182.027229,9301
1659521182.067167,9306
1659521182.10096,9298
1659521182.134754,9244
1659521182.178788,9205
1659521182.222822,9178
1659521182.266857,9163
1659521182.308843,9155
1659521182.350829,9155
1659521182.389743,9163
1659521182.428657,9163
1659521182.467571,9183
1659521182.506485,9191
1659521182.545398,9203
1659521182.584312,9237
1659521182.625787,9273
1659521182.667261,9304
1659521182.706175,9363
1659521182.745089,9455
1659521182.784003,9551
1659521182.822234,9656
1659521182.860465,9718
1659521182.898696,9761
1659521182.941706,9815
1659521182.984716,9821
1659521183.026191,9808
1659521183.067665,9785
1659521183.109139,9799
1659521183.150613,9847
1659521183.192599,9908
1659521183.234585,9973
1659521183.274182,10013
1659521183.313778,10038
1659521183.353375,10041
1659521183.394849,10068
1659521183.436323,10097
1659521183.474213,10122
1659521183.512103,10149
1659521183.549993,10190
1659521183.589248,10230
1659521183.628503,10251
1659521183.667759,10268
1659521183.709745,10263
1659521183.751731,10279
1659521183.789962,10294
1659521183.828193,10315
1659521183.866425,10325
1659521183.907899,10321
1659521183.949373,10297
1659521183.988287,10275
1659521184.027201,10262
1659521184.066115,10251
1659521184.105029,10250
1659521184.143943,10255
1659521184.182857,10267
1659521184.224843,10270
1659521184.266829,10280
1659521184.305401,10281
1659521184.343974,10294
1659521184.382546,10287
1659521184.424021,10302
1659521184.465495,10318
1659521184.50987,10334
1659521184.554246,10348
1659521184.598621,10354
1659521184.631903,10366
1659521184.665184,10365
1659521184.708877,10387
1659521184.75257,10371
1659521184.796263,10332
1659521184.829033,10284
1659521184.861802,10198
1659521184.906178,10124
1659521184.950553,10055
1659521184.994929,10004
1659521185.033843,9965
1659521185.072757,9952
1659521185.111671,9936
1659521185.153145,9919
1659521185.194619,9924
1659521185.232253,9921
1659521185.269887,9920
1659521185.307521,9934
1659521185.345155,9952
1659521185.389872,9970
1659521185.434588,9969
1659521185.479305,9948
1659521185.512587,9906
1659521185.545869,9868
1659521185.590585,9856
1659521185.635303,9850
1659521185.680019,9836
1659521185.718592,9756
1659521185.757164,9647
1659521185.795737,9539
1659521185.838235,9444
1659521185.880733,9394
1659521185.919306,9351
1659521185.957879,9312
1659521185.996451,9259
1659521186.037413,9237
1659521186.078375,9234
1659521186.117289,9243
1659521186.156203,9281
1659521186.195117,9286
1659521186.234714,9271
1659521186.27431,9245
1659521186.313907,9204
1659521186.354869,9156
1659521186.395831,9153
1659521186.434745,9146
1659521186.473659,9146
1659521186.512573,9137
1659521186.554559,9056
1659521186.596545,8920
1659521186.635801,8791
1659521186.675056,8686
1659521186.714311,8644
1659521186.755785,8618
1659521186.797259,8619
1659521186.836173,8614
1659521186.875087,8641
1659521186.914001,8657
1659521186.954963,8665
1659521186.995925,8705
1659521187.034498,8724
1659521187.07307,8756
1659521187.111643,8800
1659521187.151376,8882
1659521187.191109,8971
1659521187.230843,9040
1659521187.270576,9118
1659521187.310309,9188
1659521187.351271,9251
1659521187.392233,9295
1659521187.43183,9330
1659521187.471426,9346
1659521187.511023,9340
1659521187.553009,9333
1659521187.594995,9315
1659521187.639029,9302
1659521187.683064,9298
1659521187.727098,9299
1659521187.760379,9316
1659521187.793661,9332
1659521187.838037,9352
1659521187.882412,9349
1659521187.926788,9344
1659521187.96536,9305
1659521188.003933,9264
1659521188.042506,9220
1659521188.083467,9171
1659521188.12443,9128
1659521188.163685,9047
1659521188.20294,8924
1659521188.242196,8830
1659521188.280085,8773
1659521188.317975,8723
1659521188.355865,8661
1659521188.397851,8589
1659521188.439837,8508
1659521188.478751,8445
1659521188.517665,8386
1659521188.556579,8302
1659521188.598053,8223
1659521188.639527,8162
1659521188.678441,8126
1659521188.717355,8126
1659521188.756269,8146
1659521188.795525,8214
1659521188.83478,8336
1659521188.874035,8472
1659521188.915509,8563
1659521188.956983,8642
1659521188.998969,8727
1659521189.040956,8804
1659521189.07987,8876
1659521189.118783,8942
1659521189.157697,8989
1659521189.200196,9022
1659521189.242694,9074
1659521189.280925,9105
1659521189.319156,9109
1659521189.357387,9106
1659521189.402104,9104
1659521189.446821,9105
1659521189.491538,9068
1659521189.523796,9038
1659521189.556053,9046
1659521189.600429,9085
1659521189.644804,9124
1659521189.68918,9165
1659521189.728435,9210
1659521189.76769,9264
1659521189.806946,9308
1659521189.848932,9363
1659521189.890918,9407
1659521189.929491,9462
1659521189.968063,9493
1659521190.006636,9530
1659521190.048622,9560
1659521190.090608,9606
1659521190.128839,9620
1659521190.16707,9626
1659521190.205302,9599
1659521190.243874,9569
1659521190.282447,9565
1659521190.321019,9542
1659521190.363006,9532
1659521190.404992,9529
1659521190.443223,9527
1659521190.481454,9525
1659521190.519686,9535
1659521190.560647,9535
1659521190.601609,9534
1659521190.640523,9533
1659521190.679437,9550
1659521190.718351,9554
1659521190.760338,9568
1659521190.802324,9576
1659521190.841579,9588
1659521190.880834,9608
1659521190.920089,9620
1659521190.961051,9627
1659521191.002014,9605
1659521191.041269,9577
1659521191.080524,9523
1659521191.119779,9480
1659521191.163814,9419
1659521191.207848,9367
1659521191.251882,9358
1659521191.293868,9293
1659521191.335854,9182
1659521191.374427,9082
1659521191.412999,8950
1659521191.451572,8833
1659521191.493046,8778
1659521191.53452,8737
1659521191.572752,8672
1659521191.610983,8626
1659521191.649214,8595
1659521191.688811,8559
1659521191.728407,8559
1659521191.768004,8532
1659521191.809478,8493
1659521191.850952,8448
1659521191.889525,8363
1659521191.928097,8276
1659521191.96667,8208
1659521192.006266,8193
1659521192.045863,8185
1659521192.08546,8228
1659521192.129494,8392
1659521192.173528,8570
1659521192.217562,8710
1659521192.256476,8817
1659521192.29539,8919
1659521192.334304,9021
1659521192.374447,9100
1659521192.41459,9170
1659521192.454733,9222
1659521192.494875,9277
1659521192.535018,9311
1659521192.57325,9306
1659521192.611481,9305
1659521192.649712,9342
1659521192.691698,9358
1659521192.733684,9350
1659521192.771915,9333
1659521192.810147,9314
1659521192.848378,9310
1659521192.887633,9314
1659521192.926888,9338
1659521192.966144,9357
1659521193.00813,9369
1659521193.050116,9380
1659521193.088347,9378
1659521193.126579,9383
1659521193.16481,9385
1659521193.206284,9380
1659521193.247758,9386
1659521193.287354,9378
1659521193.326951,9370
1659521193.366548,9360
1659521193.408022,9359
1659521193.449496,9357
1659521193.487727,9355
1659521193.525959,9356
1659521193.56419,9339
1659521193.605664,9295
1659521193.647138,9217
1659521193.691172,9163
1659521193.735206,9130
1659521193.779241,9089
1659521193.817813,9053
1659521193.856386,9027
1659521193.894958,9028
1659521193.936432,9014
1659521193.977906,8992
1659521194.01682,8933
1659521194.055734,8918
1659521194.094648,8922
1659521194.133221,8947
1659521194.171793,8984
1659521194.210366,8995
1659521194.252864,8989
1659521194.295362,9023
1659521194.336836,9059
1659521194.37831,9097
1659521194.419785,9139
1659521194.461259,9206
1659521194.500173,9260
1659521194.539087,9273
1659521194.578001,9289
1659521194.620499,9282
1659521194.662997,9308
1659521194.701228,9366
1659521194.739459,9437
1659521194.77769,9510
1659521194.816604,9582
1659521194.855518,9637
1659521194.894432,9663
1659521194.935906,9686
1659521194.977381,9676
1659521195.016636,9665
1659521195.055891,9609
1659521195.095146,9469
1659521195.136108,9324
1659521195.17707,9178
1659521195.216326,9035
1659521195.255581,8887
1659521195.294836,8787
1659521195.33375,8730
1659521195.372664,8718
1659521195.411578,8732
1659521195.453564,8740
1659521195.49555,8798
1659521195.534464,8887
1659521195.573378,8988
1659521195.612292,9078
1659521195.65479,9137
1659521195.697289,9164
1659521195.73552,9166
1659521195.773751,9167
1659521195.811982,9149
1659521195.853968,9148
1659521195.895954,9131
1659521195.94033,9110
1659521195.984705,9092
1659521196.029081,9032
1659521196.061851,8980
1659521196.09462,8943
1659521196.138654,8892
1659521196.182689,8825
1659521196.226723,8741
1659521196.265637,8694
1659521196.304551,8657
1659521196.343465,8630
1659521196.385451,8623
1659521196.427437,8604
1659521196.466351,8576
1659521196.505265,8469
1659521196.544179,8356
1659521196.585653,8241
1659521196.627127,8156
1659521196.666382,8083
1659521196.705637,8045
1659521196.744893,8037
1659521196.782783,7959
1659521196.820673,7927
1659521196.858562,7920
1659521196.901573,7950
1659521196.944583,8015
1659521196.982814,8179
1659521197.021045,8357
1659521197.059277,8504
1659521197.097508,8646
1659521197.135739,8780
1659521197.17397,8886
1659521197.215956,8920
1659521197.257942,8924
1659521197.296515,8936
1659521197.335088,8947
1659521197.37366,8923
1659521197.415134,8917
1659521197.456609,8911
1659521197.499107,8880
1659521197.541605,8887
1659521197.583249,8883
1659521197.624894,8816
1659521197.666539,8786
1659521197.708184,8819
1659521197.749828,8902
1659521197.791473,9001
1659521197.825779,9053
1659521197.860085,9095
1659521197.90446,9151
1659521197.948836,9208
1659521197.993211,9258
1659521198.031101,9284
1659521198.068991,9311
1659521198.106881,9307
1659521198.148867,9268
1659521198.190853,9184
1659521198.229426,9105
1659521198.267998,9096
1659521198.306571,9084
1659521198.345826,9078
1659521198.385082,9044
1659521198.424337,8961
1659521198.465811,8902
1659521198.507285,8857
1659521198.54654,8864
1659521198.585796,8920
1659521198.625051,8946
1659521198.666013,8927
1659521198.706975,8878
1659521198.746572,8826
1659521198.786168,8816
1659521198.825765,8864
1659521198.865995,8853
1659521198.906226,8792
1659521198.946457,8725
1659521198.986687,8690
1659521199.026918,8654
1659521199.067148,8633
1659521199.107379,8652
1659521199.149024,8684
1659521199.190669,8717
1659521199.232313,8695
1659521199.273958,8567
1659521199.315603,8500
1659521199.357248,8464
1659521199.394369,8502
1659521199.431491,8607
1659521199.468613,8771
1659521199.505735,8918
1659521199.544649,9046
1659521199.583563,9182
1659521199.622477,9301
1659521199.666511,9368
1659521199.710545,9415
1659521199.754579,9458
1659521199.793835,9501
1659521199.83309,9554
1659521199.872345,9590
1659521199.913307,9599
1659521199.954269,9592
1659521199.993183,9545
1659521200.032097,9523
1659521200.071011,9482
1659521200.113509,9454
1659521200.156008,9435
1659521200.19458,9409
1659521200.233153,9409
1659521200.271725,9405
1659521200.309957,9404
1659521200.348188,9396
1659521200.386419,9366
1659521200.427381,9352
1659521200.468343,9378
1659521200.507257,9424
1659521200.546171,9472
1659521200.585085,9509
1659521200.626559,9551
1659521200.668033,9573
1659521200.706947,9587
1659521200.745861,9586
1659521200.784775,9544
1659521200.827273,9452
1659521200.869771,9278
1659521200.908344,9100
1659521200.946916,8962
1659521200.985489,8897
1659521201.027475,8845
1659521201.069461,8816
1659521201.114178,8802
1659521201.158895,8785
1659521201.203612,8768
1659521201.242184,8767
1659521201.280757,8798
1659521201.31933,8842
1659521201.360292,8895
1659521201.401254,8953
1659521201.440509,9012
1659521201.479764,9063
1659521201.51902,9114
1659521201.560494,9167
1659521201.601968,9200
1659521201.64054,9218
1659521201.679113,9218
1659521201.717686,9197
1659521201.756941,9158
1659521201.796196,9114
1659521201.835452,9084
1659521201.876414,9060
1659521201.917376,9063
1659521201.955948,9040
1659521201.994521,9029
1659521202.033093,8996
1659521202.076103,8943
1659521202.119114,8889
1659521202.157686,8856
1659521202.196259,8821
1659521202.234832,8771
1659521202.273745,8754
1659521202.312659,8721
1659521202.351573,8689
1659521202.393047,8659
1659521202.434521,8626
1659521202.473435,8571
1659521202.512349,8505
1659521202.551263,8434
1659521202.591713,8385
1659521202.632163,8345
1659521202.67688,8318
1659521202.721597,8315
1659521202.766314,8317
1659521202.804545,8321
1659521202.842777,8352
1659521202.881008,8385
1659521202.918386,8380
1659521202.955764,8368
1659521202.993141,8337
1659521203.030519,8316
1659521203.075236,8281
1659521203.119953,8271
1659521203.16467,8263
1659521203.202901,8242
1659521203.241132,8262
1659521203.279364,8244
1659521203.32135,8209
1659521203.363336,8169
1659521203.402591,8144
1659521203.441847,8124
1659521203.481102,8115
1659521203.519333,8140
1659521203.557564,8177
1659521203.595796,8209
1659521203.63727,8223
1659521203.678744,8216
1659521203.717316,8233
1659521203.755889,8244
1659521203.794461,8266
1659521203.832693,8236
1659521203.870924,8208
1659521203.909155,8197
1659521203.951653,8190
1659521203.994151,8185
1659521204.033065,8186
1659521204.071979,8195
1659521204.110893,8195
1659521204.152879,8218
1659521204.194865,8165
1659521204.239582,8080
1659521204.284299,8013
1659521204.329016,7935
1659521204.36281,7886
1659521204.396604,7850
1659521204.440979,7804
1659521204.485355,7774
1659521204.52973,7814
1659521204.568985,7847
1659521204.608241,7905
1659521204.647496,7987
1659521204.68897,8047
1659521204.730444,8096
1659521204.768676,8138
1659521204.806907,8148
1659521204.845138,8171
1659521204.887124,8281
1659521204.92911,8451
1659521204.968024,8636
1659521205.006938,8784
1659521205.045852,8900
1659521205.084083,8956
1659521205.122314,8932
1659521205.160546,8833
1659521205.20202,8739
1659521205.243494,8644
1659521205.282749,8543
1659521205.322005,8465
1659521205.36126,8408
1659521205.403246,8380
1659521205.445232,8365
1659521205.483805,8366
1659521205.522377,8372
1659521205.56095,8375
1659521205.602424,8405
1659521205.643898,8443
1659521205.682812,8476
1659521205.721726,8470
1659521205.76064,8498
1659521205.802114,8563
1659521205.843588,8638
1659521205.881819,8743
1659521205.92005,8853
1659521205.958282,8949
1659521206.002657,8999
1659521206.047033,8985
1659521206.091408,8928
1659521206.123666,8868
1659521206.155924,8818
1659521206.200299,8776
1659521206.244675,8740
1659521206.28905,8712
1659521206.328647,8669
1659521206.368243,8441
1659521206.40784,8259
1659521206.448802,8215
1659521206.489764,8199
1659521206.528678,8149
1659521206.567592,8104
1659521206.606506,8064
1659521206.649004,8048
1659521206.691502,8047
1659521206.730416,8032
1659521206.76933,8014
1659521206.808244,8013
1659521206.847158,8023
1659521206.886072,8054
1659521206.924986,8106
1659521206.96646,8154
1659521207.007934,8202
1659521207.045824,8227
1659521207.083714,8254
1659521207.121604,8282
1659521207.16359,8300
1659521207.205576,8372
1659521207.244831,8522
1659521207.284087,8688
1659521207.323342,8818
1659521207.364816,8915
1659521207.40629,8993
1659521207.445204,9049
1659521207.484118,9113
1659521207.523032,9152
1659521207.56553,9186
1659521207.608028,9232
1659521207.646942,9264
1659521207.685856,9300
1659521207.72477,9323
1659521207.766244,9362
1659521207.807718,9388
1659521207.846973,9414
1659521207.886229,9428
1659521207.925484,9437
1659521207.96986,9427
1659521208.014235,9409
1659521208.058611,9401
1659521208.100085,9390
1659521208.141559,9389
1659521208.181702,9387
1659521208.221844,9383
1659521208.261987,9390
1659521208.30213,9402
1659521208.342273,9426
1659521208.380163,9433
1659521208.418053,9446
1659521208.455943,9475
1659521208.498441,9498
1659521208.540939,9513
1659521208.579853,9528
1659521208.618767,9541
1659521208.657681,9547
1659521208.698643,9565
1659521208.739605,9572
1659521208.778519,9575
1659521208.817433,9579
1659521208.856347,9552
1659521208.895261,9506
1659521208.934175,9456
1659521208.973089,9426
1659521209.014563,9405
1659521209.056037,9399
1659521209.094609,9369
1659521209.133182,9339
1659521209.171754,9321
1659521209.210327,9247
1659521209.2489,9129
1659521209.287472,9023
1659521209.328434,8918
1659521209.369396,8839
1659521209.411382,8797
1659521209.453369,8767
1659521209.491941,8775
1659521209.530514,8856
1659521209.569086,8937
1659521209.61056,8971
1659521209.652035,9020
1659521209.690948,9043
1659521209.729862,9050
1659521209.768776,9025
1659521209.813493,8995
1659521209.85821,8984
1659521209.902927,8978
1659521209.936721,9005
1659521209.970515,9060
1659521210.014549,9129
1659521210.058583,9214
1659521210.102617,9288
1659521210.135387,9352
1659521210.168156,9401
1659521210.212532,9431
1659521210.256907,9449
1659521210.301283,9467
1659521210.339856,9496
1659521210.378428,9516
1659521210.417001,9545
1659521210.459499,9571
1659521210.501997,9592
1659521210.540911,9590
1659521210.579825,9616
1659521210.618739,9606
1659521210.657653,9549
1659521210.696567,9489
1659521210.735481,9427
1659521210.776955,9378
1659521210.818429,9336
1659521210.858367,9318
1659521210.898305,9297
1659521210.938243,9296
1659521210.979205,9290
1659521211.020167,9293
1659521211.059081,9305
1659521211.097995,9298
1659521211.136909,9303
1659521211.179407,9315
1659521211.221905,9322
1659521211.260478,9341
1659521211.29905,9344
1659521211.337623,9356
1659521211.378073,9361
1659521211.418523,9370
1659521211.457778,9390
1659521211.497033,9392
1659521211.536289,9374
1659521211.576739,9309
1659521211.617189,9260
1659521211.661223,9224
1659521211.705257,9206
1659521211.749291,9197
1659521211.788547,9213
1659521211.827802,9206
1659521211.867057,9215
1659521211.908531,9232
1659521211.950006,9249
1659521211.988237,9245
1659521212.026468,9212
1659521212.064699,9156
1659521212.104296,9116
1659521212.143893,9096
1659521212.183489,9084
1659521212.224963,9064
1659521212.266437,9081
1659521212.30501,9122
1659521212.343582,9188
1659521212.382155,9246
1659521212.423629,9261
1659521212.465103,9297
1659521212.503676,9362
1659521212.542248,9460
1659521212.580821,9583
1659521212.619052,9738
1659521212.657284,9950
1659521212.695515,10099
1659521212.738013,10121
1659521212.780511,9833
1659521212.818742,8600
