LocalTimestamp,PG
1659432191.349141,12145
1659432191.393221,12470
1659432191.437302,12761
1659432191.481383,12997
1659432191.515212,13175
1659432191.549042,13281
1659432191.593122,13327
1659432191.637203,13281
1659432191.681284,13233
1659432191.719898,13235
1659432191.758511,13276
1659432191.797124,13363
1659432191.839155,13433
1659432191.881185,13527
1659432191.92014,13600
1659432191.959095,13690
1659432191.99805,13750
1659432192.038543,13822
1659432192.079036,13925
1659432192.117991,13996
1659432192.156946,14045
1659432192.195901,14078
1659432192.234857,14103
1659432192.273812,14131
1659432192.312767,14160
1659432192.354285,14158
1659432192.395802,14020
1659432192.434758,13698
1659432192.473713,13192
1659432192.512668,12753
1659432192.554186,12332
1659432192.595704,11398
1659432192.633634,11595
1659432192.671564,10564
1659432192.709494,10270
1659432192.748107,10107
1659432192.786721,9994
1659432192.825334,9933
1659432192.867364,9926
1659432192.909395,9949
1659432192.9504,9988
1659432192.991405,10046
1659432193.029677,10146
1659432193.067949,10292
1659432193.10622,11984
1659432193.151326,13018
1659432193.196432,12962
1659432193.241538,11823
1659432193.274343,11254
1659432193.307147,11039
1659432193.351569,10975
1659432193.395992,10919
1659432193.440414,10818
1659432193.479711,10917
1659432193.519008,10282
1659432193.558305,9140
1659432193.599823,9035
1659432193.64134,9125
1659432193.680296,9251
1659432193.719251,9404
1659432193.758206,9547
1659432193.800749,9705
1659432193.843292,9888
1659432193.881564,10061
1659432193.919835,10247
1659432193.958107,10290
1659432193.997882,10223
1659432194.037657,10135
1659432194.077433,10111
1659432194.117208,10134
1659432194.156983,10177
1659432194.199013,10232
1659432194.241044,10388
1659432194.279316,10586
1659432194.317587,10734
1659432194.355859,10855
1659432194.395156,10906
1659432194.434453,10824
1659432194.473749,10755
1659432194.515267,10750
1659432194.556785,10785
1659432194.596424,10824
1659432194.636062,10863
1659432194.675701,10874
1659432194.717219,10888
1659432194.758737,10820
1659432194.798375,10648
1659432194.838014,10520
1659432194.877652,10455
1659432194.918145,10431
1659432194.958638,10411
1659432195.00306,10370
1659432195.047483,10318
1659432195.091905,10278
1659432195.125735,10264
1659432195.159564,10274
1659432195.203645,10303
1659432195.247726,10337
1659432195.291806,10387
1659432195.330078,10440
1659432195.36835,10504
1659432195.406621,10572
1659432195.448652,10647
1659432195.490683,10720
1659432195.529638,10790
1659432195.568593,10777
1659432195.607548,10658
1659432195.649066,10563
1659432195.690584,10509
1659432195.729197,10483
1659432195.767811,10483
1659432195.806424,10507
1659432195.845721,10510
1659432195.885017,10521
1659432195.924314,10529
1659432195.965832,10572
1659432196.00735,10620
1659432196.046305,10664
1659432196.08526,10719
1659432196.124215,10764
1659432196.165221,10804
1659432196.206226,10852
1659432196.246001,10917
1659432196.285777,10953
1659432196.325552,10944
1659432196.365327,10802
1659432196.405102,10669
1659432196.444057,10627
1659432196.483012,10642
1659432196.521967,10694
1659432196.562973,10741
1659432196.603978,10770
1659432196.643275,10770
1659432196.682572,10804
1659432196.721869,10845
1659432196.763899,10893
1659432196.80593,10941
1659432196.844201,11000
1659432196.882473,11042
1659432196.920745,11098
1659432196.96175,11143
1659432197.002755,11177
1659432197.047861,11230
1659432197.092967,11212
1659432197.138073,11054
1659432197.176345,10855
1659432197.214617,10746
1659432197.252888,10701
1659432197.294919,10696
1659432197.336949,10705
1659432197.376246,10711
1659432197.415543,10717
1659432197.454839,10711
1659432197.495845,10756
1659432197.53685,10805
1659432197.575122,10865
1659432197.613394,10947
1659432197.651665,11033
1659432197.691304,11110
1659432197.730942,11170
1659432197.770581,11232
1659432197.812611,11298
1659432197.854642,11358
1659432197.893597,11335
1659432197.932552,11208
1659432197.971507,11100
1659432198.013538,11095
1659432198.055568,11130
1659432198.094182,11173
1659432198.132795,11248
1659432198.171408,11282
1659432198.20968,11307
1659432198.247952,11298
1659432198.286223,11320
1659432198.328766,11354
1659432198.37131,11381
1659432198.40924,11389
1659432198.447169,11401
1659432198.485099,11394
1659432198.526105,11376
1659432198.56711,11356
1659432198.611533,11322
1659432198.655955,11314
1659432198.700377,11232
1659432198.733694,10955
1659432198.767011,10574
1659432198.811092,10275
1659432198.855173,10099
1659432198.899254,9990
1659432198.93855,9887
1659432198.977847,9792
1659432199.017144,9713
1659432199.058662,9613
1659432199.10018,9522
1659432199.138793,9454
1659432199.177407,9412
1659432199.21602,9389
1659432199.25805,9408
1659432199.300081,9433
1659432199.338694,9475
1659432199.377308,9526
1659432199.415921,9584
1659432199.454193,9633
1659432199.492465,9690
1659432199.530736,9708
1659432199.571742,9586
1659432199.612747,9372
1659432199.652044,9248
1659432199.69134,9222
1659432199.730637,9260
1659432199.769251,9305
1659432199.807864,9356
1659432199.846478,9344
1659432199.887483,9328
1659432199.928488,9352
1659432199.970519,9413
1659432200.012549,9489
1659432200.051846,9577
1659432200.091143,9669
1659432200.13044,9761
1659432200.174862,9849
1659432200.219285,9926
1659432200.263707,10013
1659432200.297024,10111
1659432200.330341,10186
1659432200.375105,10204
1659432200.419869,10102
1659432200.464633,9934
1659432200.498463,9864
1659432200.532292,9838
1659432200.576715,9849
1659432200.621137,9870
1659432200.66556,9866
1659432200.704173,9850
1659432200.742786,9842
1659432200.7814,9876
1659432200.822405,9926
1659432200.86341,9991
1659432200.902366,10037
1659432200.941321,10111
1659432200.980276,10190
1659432201.022306,10258
1659432201.064337,10326
1659432201.10295,10399
1659432201.141564,10474
1659432201.180177,10497
1659432201.219474,10412
1659432201.258771,10264
1659432201.298068,10207
1659432201.339585,10214
1659432201.381103,10234
1659432201.419375,10270
1659432201.457647,10309
1659432201.495918,10307
1659432201.537949,10309
1659432201.579979,10330
1659432201.62201,10368
1659432201.66404,10417
1659432201.702312,10445
1659432201.740584,10494
1659432201.778855,10567
1659432201.820373,10632
1659432201.861891,10683
1659432201.901188,10741
1659432201.940485,10785
1659432201.979782,10806
1659432202.020274,10713
1659432202.060767,10476
1659432202.099381,10287
1659432202.137994,10226
1659432202.176607,10219
1659432202.219151,10222
1659432202.261693,10254
1659432202.300307,10255
1659432202.33892,10229
1659432202.377534,10203
1659432202.421614,10194
1659432202.465695,10231
1659432202.509776,10266
1659432202.543093,10325
1659432202.57641,10390
1659432202.620491,10464
1659432202.664571,10510
1659432202.708652,10552
1659432202.746582,10593
1659432202.784512,10633
1659432202.822442,10633
1659432202.865498,10458
1659432202.908553,10227
1659432202.947167,10073
1659432202.98578,9998
1659432203.024393,9999
1659432203.064886,10035
1659432203.105379,10064
1659432203.145017,10053
1659432203.184656,10074
1659432203.224294,10048
1659432203.266325,10039
1659432203.308356,10054
1659432203.347311,10113
1659432203.386266,10186
1659432203.425221,10263
1659432203.464518,10336
1659432203.503814,10398
1659432203.543111,10459
1659432203.585142,10517
1659432203.627172,10527
1659432203.665444,10395
1659432203.703716,10229
1659432203.741987,10141
1659432203.78453,10138
1659432203.827073,10134
1659432203.865687,10159
1659432203.9043,10165
1659432203.942914,10153
1659432203.984432,10140
1659432204.025949,10134
1659432204.064221,10160
1659432204.102493,10200
1659432204.140764,10248
1659432204.182795,10289
1659432204.224825,10339
1659432204.268906,10378
1659432204.312987,10417
1659432204.357068,10460
1659432204.396023,10493
1659432204.434978,10509
1659432204.473933,10399
1659432204.515964,10245
1659432204.557994,10140
1659432204.596607,10112
1659432204.635221,10105
1659432204.673834,10115
1659432204.715865,10102
1659432204.757895,10075
1659432204.797192,10062
1659432204.836489,10084
1659432204.875786,10126
1659432204.914057,10172
1659432204.952329,10236
1659432204.990601,10272
1659432205.031606,10317
1659432205.072611,10346
1659432205.111567,10366
1659432205.150522,10384
1659432205.189477,10406
1659432205.228432,10457
1659432205.267387,10449
1659432205.306342,10312
1659432205.346835,10109
1659432205.387327,9991
1659432205.426283,9940
1659432205.465238,9936
1659432205.504193,9936
1659432205.546736,9941
1659432205.589279,9950
1659432205.633018,9954
1659432205.676757,9990
1659432205.720496,10050
1659432205.753813,10100
1659432205.78713,10128
1659432205.831552,10155
1659432205.875975,10167
1659432205.920397,10190
1659432205.954227,10224
1659432205.988056,10267
1659432206.032479,10325
1659432206.076901,10386
1659432206.121324,10407
1659432206.160279,10267
1659432206.199234,10094
1659432206.238189,9977
1659432206.279194,9953
1659432206.320199,9956
1659432206.358471,9962
1659432206.396743,9950
1659432206.435015,9925
1659432206.47807,9915
1659432206.521126,9927
1659432206.559739,9966
1659432206.598353,10007
1659432206.636966,10059
1659432206.675921,10109
1659432206.714876,10158
1659432206.753831,10204
1659432206.796118,10242
1659432206.838405,10283
1659432206.880692,10333
1659432206.922978,10371
1659432206.96125,10296
1659432206.999522,10133
1659432207.037793,9999
1659432207.077432,9953
1659432207.11707,9960
1659432207.156709,9993
1659432207.197714,10004
1659432207.23872,9985
1659432207.277333,9951
1659432207.315947,9953
1659432207.35456,9992
1659432207.39659,10024
1659432207.438621,10066
1659432207.477234,10089
1659432207.515848,10127
1659432207.554461,10177
1659432207.594954,10232
1659432207.635447,10279
1659432207.674743,10342
1659432207.71404,10412
1659432207.753337,10372
1659432207.795368,10230
1659432207.837398,10084
1659432207.881479,10022
1659432207.92556,10031
1659432207.96964,10054
1659432208.008937,10074
1659432208.048234,10086
1659432208.087531,10066
1659432208.129049,10074
1659432208.170567,10109
1659432208.208497,10140
1659432208.246427,10181
1659432208.284357,10234
1659432208.32297,10271
1659432208.361583,10295
1659432208.400197,10342
1659432208.442227,10375
1659432208.484258,10423
1659432208.522529,10457
1659432208.560801,10452
1659432208.599073,10306
1659432208.637344,10104
1659432208.675616,9995
1659432208.713888,9972
1659432208.755918,9985
1659432208.797949,10015
1659432208.836904,10056
1659432208.875859,10046
1659432208.914814,10048
1659432208.956332,10076
1659432208.99785,10106
1659432209.036805,10142
1659432209.07576,10174
1659432209.114715,10217
1659432209.156746,10254
1659432209.198776,10305
1659432209.242857,10350
1659432209.286938,10403
1659432209.331018,10458
1659432209.364848,10479
1659432209.398677,10377
1659432209.442758,10212
1659432209.486839,10103
1659432209.53092,10082
1659432209.563724,10103
1659432209.596528,10141
1659432209.641293,10159
1659432209.686057,10162
1659432209.730821,10158
1659432209.770118,10191
1659432209.809414,10218
1659432209.848711,10255
1659432209.887325,10299
1659432209.925938,10331
1659432209.964551,10373
1659432210.006069,10421
1659432210.047587,10471
1659432210.086542,10520
1659432210.125498,10588
1659432210.164453,10601
1659432210.206483,10502
1659432210.248514,10334
1659432210.287469,10217
1659432210.326424,10178
1659432210.365379,10199
1659432210.404676,10227
1659432210.443973,10228
1659432210.483269,10207
1659432210.523762,10184
1659432210.564255,10185
1659432210.606285,10196
1659432210.648316,10234
1659432210.687613,10265
1659432210.72691,10305
1659432210.766206,10332
1659432210.809945,10334
1659432210.853684,10322
1659432210.897424,10311
1659432210.929715,10315
1659432210.962007,10290
1659432211.007113,10150
1659432211.052219,9891
1659432211.097325,9718
1659432211.130641,9633
1659432211.163958,9594
1659432211.208381,9568
1659432211.252803,9539
1659432211.297226,9500
1659432211.336523,9467
1659432211.375819,9452
1659432211.415116,9476
1659432211.453388,9537
1659432211.49166,9581
1659432211.529931,9655
1659432211.570424,9724
1659432211.610917,9773
1659432211.649872,9845
1659432211.688827,9907
1659432211.727782,9983
1659432211.7693,10036
1659432211.810818,10013
1659432211.849432,9871
1659432211.888045,9757
1659432211.926658,9729
1659432211.965271,9752
1659432212.003885,9767
1659432212.042498,9764
1659432212.084016,9745
1659432212.125534,9678
1659432212.167052,9638
1659432212.20857,9650
1659432212.248209,9682
1659432212.287847,9715
1659432212.327486,9724
1659432212.369004,9743
1659432212.410522,9735
1659432212.449477,9744
1659432212.488432,9752
1659432212.527387,9764
1659432212.56993,9787
1659432212.612473,9725
1659432212.651086,9555
1659432212.6897,9400
1659432212.728313,9335
1659432212.768806,9316
1659432212.809299,9326
1659432212.854063,9313
1659432212.898827,9296
1659432212.943591,9273
1659432212.982205,9257
1659432213.020818,9266
1659432213.059431,9290
1659432213.100949,9311
1659432213.142467,9375
1659432213.181764,9432
1659432213.221061,9477
1659432213.260358,9527
1659432213.302388,9567
1659432213.344419,9621
1659432213.38269,9654
1659432213.420962,9587
1659432213.459234,9402
1659432213.498872,9250
1659432213.538511,9192
1659432213.578149,9164
1659432213.62018,9172
1659432213.66221,9179
1659432213.700824,9148
1659432213.739437,9117
1659432213.77805,9098
1659432213.819056,9116
1659432213.860061,9174
1659432213.8997,9256
1659432213.939338,9338
1659432213.978977,9424
1659432214.017248,9475
1659432214.05552,9525
1659432214.093792,9546
1659432214.134797,9576
1659432214.175802,9619
1659432214.21732,9601
1659432214.258838,9437
1659432214.297793,9249
1659432214.336749,9167
1659432214.375704,9149
1659432214.419785,9168
1659432214.463865,9204
1659432214.507946,9224
1659432214.541263,9217
1659432214.57458,9202
1659432214.619002,9222
1659432214.663425,9279
1659432214.707847,9357
1659432214.741677,9398
1659432214.775506,9465
1659432214.82027,9520
1659432214.865034,9592
1659432214.909799,9681
1659432214.948412,9772
1659432214.987025,9848
1659432215.025639,9901
1659432215.066132,9882
1659432215.106624,9721
1659432215.145579,9564
1659432215.184535,9509
1659432215.22349,9535
1659432215.26552,9596
1659432215.307551,9635
1659432215.346164,9656
1659432215.384777,9648
1659432215.423391,9665
1659432215.462346,9700
1659432215.501301,9762
1659432215.540256,9821
1659432215.582287,9874
1659432215.624317,9929
1659432215.66293,9962
1659432215.701544,9999
1659432215.740157,10034
1659432215.782188,10085
1659432215.824218,10145
1659432215.863515,10167
1659432215.902812,10056
1659432215.942109,9871
1659432215.982601,9740
1659432216.023094,9698
1659432216.061366,9687
1659432216.099638,9665
1659432216.137909,9651
1659432216.180965,9670
1659432216.22402,9691
1659432216.262634,9697
1659432216.301247,9749
1659432216.339861,9838
1659432216.383941,9976
1659432216.428022,10119
1659432216.472103,10259
1659432216.514133,10378
1659432216.556164,10448
1659432216.595119,10501
1659432216.634074,10565
1659432216.673029,10631
1659432216.71506,10616
1659432216.75709,10495
1659432216.796387,10335
1659432216.835684,10240
1659432216.874981,10216
1659432216.913594,10222
1659432216.952208,10250
1659432216.990821,10275
1659432217.031314,10309
1659432217.071806,10350
1659432217.111103,10429
1659432217.1504,10528
1659432217.189697,10614
1659432217.22831,10674
1659432217.266924,10699
1659432217.305537,10717
1659432217.346542,10745
1659432217.387548,10796
1659432217.428553,10847
1659432217.469558,10918
1659432217.50783,10952
1659432217.546102,10848
1659432217.584373,10638
1659432217.625891,10447
1659432217.667409,10341
1659432217.706364,10278
1659432217.74532,10260
1659432217.784275,10266
1659432217.825793,10256
1659432217.867311,10241
1659432217.905924,10229
1659432217.944537,10199
1659432217.983151,10179
1659432218.025181,10172
1659432218.067212,10193
1659432218.106508,10244
1659432218.145805,10300
1659432218.185102,10362
1659432218.225595,10430
1659432218.266088,10525
1659432218.304701,10610
1659432218.343314,10585
1659432218.381928,10422
1659432218.42635,10243
1659432218.470773,10139
1659432218.515195,10045
1659432218.557226,9954
1659432218.599256,9848
1659432218.63787,9743
1659432218.676483,9637
1659432218.715096,9543
1659432218.757127,9493
1659432218.799157,9482
1659432218.837771,9509
1659432218.876384,9514
1659432218.914998,9520
1659432218.954294,9508
1659432218.993591,9503
1659432219.032888,9500
1659432219.074919,9542
1659432219.116949,9584
1659432219.155562,9615
1659432219.194176,9522
1659432219.232789,9350
1659432219.271403,9283
1659432219.310016,9281
1659432219.348629,9288
1659432219.391172,9288
1659432219.433716,9291
1659432219.472329,9269
1659432219.510942,9247
1659432219.549556,9238
1659432219.590561,9250
1659432219.631566,9306
1659432219.67018,9366
1659432219.708793,9435
1659432219.747406,9516
1659432219.78995,9629
1659432219.832493,9736
1659432219.871106,9827
1659432219.909719,9892
1659432219.948333,9923
1659432219.989851,9852
1659432220.031369,9605
1659432220.076133,9386
1659432220.120897,9266
1659432220.165661,9194
1659432220.199491,9175
1659432220.23332,9171
1659432220.277401,9163
1659432220.321482,9145
1659432220.365562,9181
1659432220.404517,9187
1659432220.443473,9202
1659432220.482428,9220
1659432220.523433,9221
1659432220.564438,9214
1659432220.603052,9208
1659432220.641665,9192
1659432220.680279,9215
1659432220.718892,9255
1659432220.757505,9275
1659432220.796119,9175
1659432220.838149,8998
1659432220.88018,8902
1659432220.91811,8888
1659432220.95604,8908
1659432220.99397,8933
1659432221.036513,8953
1659432221.079056,8963
1659432221.117669,9041
1659432221.156283,9183
1659432221.194896,9334
1659432221.233509,9499
1659432221.272123,9647
1659432221.310736,9775
1659432221.353792,9865
1659432221.396847,9924
1659432221.438365,9970
1659432221.479883,10001
1659432221.517813,10046
1659432221.555743,10014
1659432221.593673,9822
1659432221.638096,9575
1659432221.682518,9454
1659432221.726941,9389
1659432221.765554,9351
1659432221.804167,9369
1659432221.842781,9408
1659432221.884811,9441
1659432221.926842,9455
1659432221.965797,9501
1659432222.004752,9552
1659432222.043707,9636
1659432222.085737,9743
1659432222.127768,9850
1659432222.16604,9961
1659432222.204311,10065
1659432222.242583,10152
1659432222.282563,10214
1659432222.322544,10285
1659432222.362524,10304
1659432222.404042,10199
1659432222.44556,10065
1659432222.484515,9993
1659432222.52347,9971
1659432222.562425,9963
1659432222.604455,10022
1659432222.646486,10064
1659432222.688516,10106
1659432222.730547,10138
1659432222.768819,10211
1659432222.80709,10276
1659432222.845362,10385
1659432222.884317,10498
1659432222.923272,10567
1659432222.962227,10611
1659432223.003745,10730
1659432223.045263,10861
1659432223.084218,10947
1659432223.123173,11001
1659432223.162128,11047
1659432223.206551,10964
1659432223.250973,10697
1659432223.295396,10452
1659432223.3282,10313
1659432223.361004,10246
1659432223.405085,10209
1659432223.449166,10165
1659432223.493247,10092
1659432223.535277,10017
1659432223.577308,10020
1659432223.616263,10056
1659432223.655218,10098
1659432223.694173,10121
1659432223.732786,10141
1659432223.7714,10159
1659432223.810013,10156
1659432223.851018,10164
1659432223.892024,10182
1659432223.930979,10220
1659432223.969934,10212
1659432224.008889,10075
1659432224.047161,9877
1659432224.085433,9782
1659432224.123704,9756
1659432224.165735,9746
1659432224.207765,9696
1659432224.246379,9596
1659432224.284992,9482
1659432224.323605,9381
1659432224.365636,9322
1659432224.407666,9301
1659432224.44628,9296
1659432224.484893,9296
1659432224.523506,9290
1659432224.56605,9279
1659432224.608593,9258
1659432224.647889,9289
1659432224.687186,9325
1659432224.726483,9382
1659432224.767488,9351
1659432224.808494,9150
1659432224.846766,8931
1659432224.885037,8824
1659432224.923309,8806
1659432224.96739,8826
1659432225.01147,8872
1659432225.055551,8903
1659432225.097582,8952
1659432225.139612,9012
1659432225.178567,9078
1659432225.217522,9160
1659432225.256477,9247
1659432225.297483,9326
1659432225.338488,9407
1659432225.377785,9474
1659432225.417082,9551
1659432225.456378,9637
1659432225.495334,9733
1659432225.534289,9817
1659432225.573244,9817
1659432225.616299,9677
1659432225.659355,9559
1659432225.697968,9533
1659432225.736582,9536
1659432225.775195,9555
1659432225.816713,9576
1659432225.858231,9551
1659432225.897528,9553
1659432225.936825,9613
1659432225.976122,9709
1659432226.014735,9828
1659432226.053348,9924
1659432226.091962,9982
1659432226.132455,10008
1659432226.172947,10021
1659432226.212244,10048
1659432226.251541,10078
1659432226.290838,10128
1659432226.331331,10108
1659432226.371823,9970
1659432226.416246,9809
1659432226.460668,9713
1659432226.505091,9651
1659432226.53892,9619
1659432226.57275,9600
1659432226.617172,9570
1659432226.661595,9545
1659432226.706017,9553
1659432226.738309,9559
1659432226.770601,9560
1659432226.815706,9620
1659432226.860812,9755
1659432226.905918,9889
1659432226.944873,9989
1659432226.983829,10073
1659432227.022784,10116
1659432227.063276,10126
1659432227.103769,10126
1659432227.142724,9976
1659432227.181679,9702
1659432227.220634,9518
1659432227.26164,9467
1659432227.302645,9466
1659432227.341259,9491
1659432227.379872,9524
1659432227.418485,9520
1659432227.457099,9508
1659432227.495712,9494
1659432227.534325,9503
1659432227.575331,9513
1659432227.616336,9521
1659432227.65495,9507
1659432227.693563,9526
1659432227.732176,9550
1659432227.771132,9571
1659432227.810086,9610
1659432227.849042,9643
1659432227.890816,9610
1659432227.93259,9376
1659432227.974364,9120
1659432228.016139,8992
1659432228.058169,8946
1659432228.100199,8940
1659432228.139838,8955
1659432228.179476,8957
1659432228.219115,8940
1659432228.257728,8953
1659432228.296342,8964
1659432228.334955,8987
1659432228.375961,9036
1659432228.416966,9081
1659432228.455921,9128
1659432228.494876,9183
1659432228.533831,9224
1659432228.575862,9265
1659432228.617892,9328
1659432228.662315,9356
1659432228.706737,9244
1659432228.75116,8992
1659432228.784477,8808
1659432228.817793,8731
1659432228.862216,8719
1659432228.906638,8724
1659432228.951061,8734
1659432228.984378,8737
1659432229.017694,8711
1659432229.062459,8726
1659432229.107223,8768
1659432229.151987,8828
1659432229.188892,8895
1659432229.225797,8949
1659432229.262702,8995
1659432229.299607,9046
1659432229.343687,9093
1659432229.387768,9141
1659432229.431849,9204
1659432229.471487,9259
1659432229.511126,9244
1659432229.550764,9047
1659432229.591257,8782
1659432229.63175,8654
1659432229.670363,8622
1659432229.708977,8620
1659432229.74759,8635
1659432229.786545,8655
1659432229.8255,8644
1659432229.864455,8640
1659432229.906486,8648
1659432229.948516,8673
1659432229.987471,8717
1659432230.026427,8774
1659432230.065382,8816
1659432230.104337,8854
1659432230.143292,8902
1659432230.182247,8948
1659432230.223765,9000
1659432230.265283,9037
1659432230.303213,9100
1659432230.341143,9148
1659432230.379073,9011
1659432230.421616,8739
1659432230.464159,8578
1659432230.502772,8529
1659432230.541386,8517
1659432230.579999,8538
1659432230.620492,8543
1659432230.660985,8531
1659432230.705407,8509
1659432230.74983,8518
1659432230.794252,8548
1659432230.828081,8590
1659432230.861911,8639
1659432230.90565,8689
1659432230.949389,8735
1659432230.993128,8776
1659432231.032425,8830
1659432231.071722,8878
1659432231.111018,8940
1659432231.153049,8994
1659432231.19508,9064
1659432231.234035,9061
1659432231.27299,8878
1659432231.311945,8646
1659432231.353975,8557
1659432231.396006,8557
1659432231.435644,8561
1659432231.475283,8597
1659432231.514921,8593
1659432231.552851,8567
1659432231.590781,8544
1659432231.628711,8545
1659432231.670229,8562
1659432231.711747,8598
1659432231.750702,8631
1659432231.789657,8667
1659432231.828612,8705
1659432231.870643,8710
1659432231.912673,8728
1659432231.951287,8744
1659432231.9899,8788
1659432232.028513,8835
1659432232.06781,8843
1659432232.107107,8666
1659432232.146404,8402
1659432232.187409,8264
1659432232.228415,8210
1659432232.270958,8221
1659432232.313501,8253
1659432232.352456,8259
1659432232.391411,8267
1659432232.430366,8290
1659432232.474789,8355
1659432232.519211,8458
1659432232.563633,8574
1659432232.595925,8648
1659432232.628217,8746
1659432232.672981,8875
1659432232.717745,8991
1659432232.76251,9095
1659432232.795314,9199
1659432232.828118,9287
1659432232.872199,9375
1659432232.91628,9445
1659432232.960361,9374
1659432232.998974,9164
1659432233.037587,9018
1659432233.076201,9001
1659432233.117718,9000
1659432233.159236,9026
1659432233.200754,9052
1659432233.242272,9067
1659432233.281227,9086
1659432233.320183,9122
1659432233.359138,9188
1659432233.400656,9254
1659432233.442173,9337
1659432233.480787,9408
1659432233.5194,9490
1659432233.558014,9577
1659432233.600044,9660
1659432233.642075,9726
1659432233.681371,9755
1659432233.720668,9795
1659432233.759965,9806
1659432233.798237,9699
1659432233.836509,9501
1659432233.87478,9367
1659432233.915786,9372
1659432233.956791,9427
1659432233.996088,9481
1659432234.035384,9501
1659432234.074681,9496
1659432234.116199,9449
1659432234.157717,9442
1659432234.195989,9455
1659432234.234261,9492
1659432234.272532,9552
1659432234.314563,9606
1659432234.356593,9645
1659432234.396232,9673
1659432234.43587,9727
1659432234.475509,9806
1659432234.516514,9891
1659432234.557519,9928
1659432234.596816,9818
1659432234.636113,9607
1659432234.67541,9445
1659432234.720174,9382
1659432234.764938,9411
1659432234.809702,9466
1659432234.843019,9494
1659432234.876336,9510
1659432234.920417,9524
1659432234.964498,9575
1659432235.008579,9655
1659432235.049584,9740
1659432235.090589,9811
1659432235.129203,9856
1659432235.167816,9911
1659432235.206429,9982
1659432235.245043,10051
1659432235.283656,10127
1659432235.322269,10189
1659432235.364813,10226
1659432235.407356,10078
1659432235.445969,9829
1659432235.484582,9685
1659432235.523196,9643
1659432235.562493,9632
1659432235.601789,9626
1659432235.641086,9582
1659432235.682604,9504
1659432235.724122,9389
1659432235.762394,9305
1659432235.800665,9252
1659432235.838937,9228
1659432235.880968,9200
1659432235.922998,9215
1659432235.961953,9220
1659432236.000908,9234
1659432236.039863,9273
1659432236.080356,9312
1659432236.120849,9366
1659432236.159462,9288
1659432236.198076,9065
1659432236.236689,8913
1659432236.279232,8910
1659432236.321775,8952
1659432236.359705,9004
1659432236.397635,9050
1659432236.435565,9048
1659432236.479646,9027
1659432236.523727,9010
1659432236.567807,9031
1659432236.610351,9098
1659432236.652894,9166
1659432236.691165,9233
1659432236.729437,9294
1659432236.767709,9354
1659432236.809227,9420
1659432236.850744,9486
1659432236.890383,9506
1659432236.930022,9381
1659432236.96966,9144
1659432237.007932,9038
1659432237.046203,9072
1659432237.084475,9110
1659432237.123089,9152
1659432237.161702,9191
1659432237.200315,9254
1659432237.241833,9346
1659432237.283351,9460
1659432237.322306,9532
1659432237.361261,9572
1659432237.400216,9609
1659432237.441734,9690
1659432237.483252,9795
1659432237.522207,9911
1659432237.561162,10028
1659432237.600118,10131
1659432237.641635,10187
1659432237.683153,10141
1659432237.722109,10073
1659432237.761064,10009
1659432237.800019,10041
1659432237.845125,10109
1659432237.89023,10165
1659432237.935336,10176
1659432237.976854,10122
1659432238.018372,10056
1659432238.057328,9993
1659432238.096282,9951
1659432238.135238,9921
1659432238.176243,9903
1659432238.217248,9889
1659432238.256545,9892
1659432238.295842,9900
1659432238.335139,9922
1659432238.371787,9952
1659432238.408436,9950
1659432238.445084,9821
1659432238.481733,9621
1659432238.526497,9503
1659432238.571261,9470
1659432238.616025,9475
1659432238.654981,9510
1659432238.693936,9515
1659432238.732891,9512
1659432238.771846,9490
1659432238.810801,9527
1659432238.849756,9568
1659432238.891787,9642
1659432238.933817,9711
1659432238.97243,9755
1659432239.011044,9798
1659432239.049657,9845
1659432239.088612,9897
1659432239.127568,9869
1659432239.166523,9693
1659432239.208553,9476
1659432239.250584,9395
1659432239.291589,9419
1659432239.332594,9471
1659432239.370866,9528
1659432239.409138,9566
1659432239.447409,9577
1659432239.491832,9609
1659432239.536254,9653
1659432239.580677,9689
1659432239.614506,9740
1659432239.648335,9785
1659432239.692075,9835
1659432239.735814,9868
1659432239.779553,9904
1659432239.81287,9946
1659432239.846186,9888
1659432239.890951,9754
1659432239.935715,9695
1659432239.980479,9684
1659432240.019092,9675
1659432240.057706,9708
1659432240.096319,9731
1659432240.138862,9725
1659432240.181405,9702
1659432240.220702,9695
1659432240.259999,9702
1659432240.299296,9714
1659432240.340301,9749
1659432240.381306,9786
1659432240.420262,9834
1659432240.459217,9887
1659432240.498172,9918
1659432240.537127,9787
1659432240.576082,9514
1659432240.615037,9301
1659432240.656555,9180
1659432240.698073,9147
1659432240.737028,9161
1659432240.775983,9144
1659432240.814938,9023
1659432240.855944,8876
1659432240.896949,8787
1659432240.935221,8765
1659432240.973492,8790
1659432241.011764,8810
1659432241.053794,8839
1659432241.095825,8872
1659432241.135463,8923
1659432241.175102,8925
1659432241.214741,8794
1659432241.256258,8461
1659432241.297776,8183
1659432241.336731,8036
1659432241.375687,7938
1659432241.414642,7842
1659432241.459406,7824
1659432241.50417,7818
1659432241.548934,7799
1659432241.590452,7797
1659432241.63197,7832
1659432241.670242,7892
1659432241.708513,7983
1659432241.746785,8095
1659432241.788816,8228
1659432241.830846,8366
1659432241.869118,8469
1659432241.907389,8588
1659432241.945661,8712
1659432241.984958,8817
1659432242.024255,8783
1659432242.063552,8473
1659432242.105582,8204
1659432242.147613,8053
1659432242.185884,7963
1659432242.224156,7890
1659432242.262428,7872
1659432242.301041,7899
1659432242.339654,7913
1659432242.378268,7942
1659432242.420811,8002
1659432242.463354,8084
1659432242.501626,8188
1659432242.539897,8298
1659432242.578169,8401
1659432242.619174,8485
1659432242.66018,8579
1659432242.699135,8659
1659432242.73809,8743
1659432242.777045,8813
1659432242.819076,8897
1659432242.861106,8942
1659432242.904845,8806
1659432242.948584,8608
1659432242.992323,8500
1659432243.025127,8457
1659432243.057932,8430
1659432243.102696,8444
1659432243.14746,8475
1659432243.192224,8502
1659432243.230838,8526
1659432243.269451,8554
1659432243.308064,8610
1659432243.350608,8684
1659432243.393151,8769
1659432243.432106,8839
1659432243.471061,8934
1659432243.510016,9005
1659432243.551021,9082
1659432243.592027,9159
1659432243.632417,9237
1659432243.672807,9307
1659432243.713197,9377
1659432243.753588,9459
1659432243.793978,9519
1659432243.83225,9511
1659432243.870521,9418
1659432243.908793,9361
1659432243.947407,9356
1659432243.98602,9352
1659432244.024633,9380
1659432244.066151,9409
1659432244.107669,9442
1659432244.145941,9468
1659432244.184212,9512
1659432244.222484,9561
1659432244.264515,9608
1659432244.306545,9668
1659432244.345842,9727
1659432244.385139,9790
1659432244.424436,9841
1659432244.465953,9898
1659432244.507471,9957
1659432244.546427,10021
1659432244.585382,10079
1659432244.624337,10137
1659432244.666367,10192
1659432244.708398,10251
1659432244.747694,10313
1659432244.786991,10302
1659432244.826288,10274
1659432244.870027,10267
1659432244.913766,10280
1659432244.957505,10300
1659432244.990309,10330
1659432245.023114,10365
1659432245.067195,10390
1659432245.111275,10423
1659432245.155356,10453
1659432245.196874,10490
1659432245.238392,10540
1659432245.277005,10582
1659432245.315619,10621
1659432245.354232,10666
1659432245.393529,10698
1659432245.432826,10736
1659432245.472123,10784
1659432245.513128,10822
1659432245.554133,10859
1659432245.592747,10914
1659432245.63136,10952
1659432245.669974,10992
1659432245.712517,11020
1659432245.75506,11006
1659432245.793673,10974
1659432245.832286,10958
1659432245.8709,10969
1659432245.909513,10984
1659432245.948127,11004
1659432245.98674,11018
1659432246.028258,11052
1659432246.069776,11069
1659432246.108389,11108
1659432246.147003,11187
1659432246.185616,11241
1659432246.226621,11279
1659432246.267627,11326
1659432246.306582,11356
1659432246.345537,11397
1659432246.384492,11406
1659432246.42601,11410
1659432246.467528,11436
1659432246.51195,11466
1659432246.556373,11510
1659432246.600795,11535
1659432246.634625,11551
1659432246.668454,11510
1659432246.712877,11423
1659432246.757299,11344
1659432246.801722,11307
1659432246.840335,11312
1659432246.878948,11315
1659432246.917562,11328
1659432246.9572,11325
1659432246.996839,11333
1659432247.036477,11324
1659432247.078508,11344
1659432247.120538,11360
1659432247.159152,11386
1659432247.197765,11409
1659432247.236378,11430
1659432247.275334,11458
1659432247.314289,11479
1659432247.353244,11513
1659432247.393737,11522
1659432247.434229,11562
1659432247.472843,11595
1659432247.511456,11608
1659432247.55007,11553
1659432247.592613,11440
1659432247.635156,11374
1659432247.674111,11338
1659432247.713066,11339
1659432247.752021,11347
1659432247.793539,11350
1659432247.835057,11364
1659432247.874354,11375
1659432247.913651,11382
1659432247.952947,11394
1659432247.99737,11434
1659432248.041792,11462
1659432248.086215,11494
1659432248.127733,11521
1659432248.16925,11545
1659432248.208206,11571
1659432248.247161,11603
1659432248.286116,11625
1659432248.326609,11647
1659432248.367101,11611
1659432248.405373,11467
1659432248.443645,11311
1659432248.481916,11228
1659432248.52053,11195
1659432248.559143,11180
1659432248.597757,11185
1659432248.639787,11182
1659432248.681818,11194
1659432248.720431,11180
1659432248.759044,11179
1659432248.797658,11209
1659432248.836613,11237
1659432248.875568,11266
1659432248.914523,11292
1659432248.956297,11334
1659432248.998071,11345
1659432249.039846,11380
1659432249.08162,11390
1659432249.120575,11404
1659432249.15953,11400
1659432249.198485,11274
1659432249.239491,11064
1659432249.280496,10932
1659432249.319451,10890
1659432249.358406,10873
1659432249.397361,10882
1659432249.438879,10896
1659432249.480397,10911
1659432249.519352,10918
1659432249.558307,10933
1659432249.597262,10962
1659432249.63878,11003
1659432249.680298,11040
1659432249.718912,11059
1659432249.757525,11083
1659432249.796139,11113
1659432249.840903,11142
1659432249.885667,11176
1659432249.930431,11204
1659432249.96426,11209
1659432249.99809,11090
1659432250.042171,10887
1659432250.086251,10768
1659432250.130332,10722
1659432250.172363,10718
1659432250.214393,10720
1659432250.25369,10724
1659432250.292987,10696
1659432250.332283,10663
1659432250.37158,10630
1659432250.410877,10633
1659432250.450174,10649
1659432250.491179,10691
1659432250.532185,10728
1659432250.571481,10768
1659432250.610778,10803
1659432250.650075,10842
1659432250.688005,10892
1659432250.725935,10916
1659432250.763865,10843
1659432250.806408,10626
1659432250.848951,10437
1659432250.887906,10377
1659432250.926861,10390
1659432250.965816,10406
1659432251.006822,10446
1659432251.047827,10446
1659432251.086782,10435
1659432251.125737,10446
1659432251.164692,10467
1659432251.207236,10503
1659432251.249779,10558
1659432251.28805,10612
1659432251.326322,10656
1659432251.364594,10711
1659432251.406624,10757
1659432251.448655,10804
1659432251.492735,10865
1659432251.536816,10875
1659432251.580897,10723
1659432251.619169,10478
1659432251.65744,10358
1659432251.695712,10334
1659432251.73723,10336
1659432251.778748,10355
1659432251.818045,10383
1659432251.857342,10393
1659432251.896638,10388
1659432251.937131,10414
1659432251.977624,10437
1659432252.016237,10492
1659432252.054851,10546
1659432252.093464,10607
1659432252.132419,10663
1659432252.171374,10716
1659432252.210329,10765
1659432252.25236,10812
1659432252.29439,10873
1659432252.333004,10892
1659432252.371617,10756
1659432252.41023,10500
1659432252.451748,10348
1659432252.493266,10308
1659432252.531538,10316
1659432252.56981,10329
1659432252.608081,10364
1659432252.646353,10371
1659432252.684625,10361
1659432252.722896,10375
1659432252.76544,10416
1659432252.807982,10473
1659432252.846596,10523
1659432252.885209,10593
1659432252.923823,10640
1659432252.964828,10709
1659432253.005833,10755
1659432253.050939,10799
1659432253.096045,10864
1659432253.141151,10922
1659432253.174468,10934
1659432253.207785,10772
1659432253.252549,10499
1659432253.297313,10348
1659432253.342077,10318
1659432253.375394,10303
1659432253.408711,10320
1659432253.453817,10346
1659432253.498923,10361
1659432253.544029,10355
1659432253.582642,10362
1659432253.621256,10405
1659432253.659869,10451
1659432253.702412,10512
1659432253.744955,10573
1659432253.783568,10633
1659432253.822182,10693
1659432253.860795,10743
1659432253.901801,10794
1659432253.942806,10840
1659432253.981078,10903
1659432254.019349,10955
1659432254.057621,10919
1659432254.096576,10679
1659432254.135531,10451
1659432254.174486,10350
1659432254.214262,10339
1659432254.254037,10346
1659432254.293812,10388
1659432254.333587,10417
1659432254.373362,10429
1659432254.41488,10446
1659432254.456398,10489
1659432254.496037,10556
1659432254.535675,10624
1659432254.575314,10698
1659432254.616319,10771
1659432254.657325,10844
1659432254.696621,10908
1659432254.735918,10986
1659432254.775215,11044
1659432254.81622,11112
1659432254.857226,11185
1659432254.895839,11261
1659432254.934453,11252
1659432254.973066,11070
1659432255.017147,10877
1659432255.061227,10813
1659432255.105308,10830
1659432255.146826,10860
1659432255.188344,10888
1659432255.226616,10913
1659432255.264887,10903
1659432255.303159,10896
1659432255.344677,10904
1659432255.386195,10948
1659432255.425833,10995
1659432255.465472,11042
1659432255.505111,11085
1659432255.543382,11137
1659432255.581654,11189
1659432255.619925,11222
1659432255.661443,11277
1659432255.702961,11304
1659432255.742258,11361
1659432255.781555,11375
1659432255.820852,11213
1659432255.858782,10922
1659432255.896712,10733
1659432255.934642,10668
1659432255.977697,10650
1659432256.020753,10662
1659432256.059366,10687
1659432256.09798,10693
1659432256.136593,10682
1659432256.177598,10690
1659432256.218604,10732
1659432256.257559,10779
1659432256.296514,10838
1659432256.335469,10897
1659432256.378012,10953
1659432256.420555,11008
1659432256.459169,11056
1659432256.497782,11109
1659432256.536395,11154
1659432256.578426,11213
1659432256.620456,11263
1659432256.665562,11245
1659432256.710668,11038
1659432256.755774,10757
1659432256.794046,10597
1659432256.832317,10560
1659432256.870589,10544
1659432256.912107,10554
1659432256.953625,10595
1659432256.993263,10590
1659432257.032902,10594
1659432257.072541,10616
1659432257.110812,10652
1659432257.149084,10701
1659432257.187356,10764
1659432257.228873,10830
1659432257.270391,10887
1659432257.309005,10944
1659432257.347618,10993
1659432257.386232,11052
1659432257.428262,11102
1659432257.470293,11169
1659432257.508564,11227
1659432257.546836,11235
1659432257.585108,11055
1659432257.624404,10825
1659432257.663701,10689
1659432257.702998,10671
1659432257.744003,10697
1659432257.785009,10729
1659432257.824306,10776
1659432257.863602,10802
1659432257.902899,10817
1659432257.944417,10853
1659432257.985935,10919
1659432258.030358,10989
1659432258.07478,11057
1659432258.119202,11110
1659432258.151494,11176
1659432258.183786,11231
1659432258.227867,11277
1659432258.271947,11318
1659432258.316028,11366
1659432258.354983,11413
1659432258.393939,11460
1659432258.432894,11430
1659432258.473899,11232
1659432258.514904,10999
1659432258.553518,10894
1659432258.592131,10870
1659432258.630744,10873
1659432258.672775,10905
1659432258.714805,10933
1659432258.753761,10935
1659432258.792716,10934
1659432258.831671,10953
1659432258.870968,10997
1659432258.910264,11057
1659432258.949561,11107
1659432258.991079,11166
1659432259.032597,11216
1659432259.071894,11258
1659432259.111191,11298
1659432259.150487,11344
1659432259.192005,11393
1659432259.233523,11437
1659432259.27282,11494
1659432259.312117,11435
1659432259.351414,11203
1659432259.392419,10951
1659432259.433424,10822
1659432259.473405,10778
1659432259.513385,10780
1659432259.553365,10785
1659432259.593345,10822
1659432259.633326,10823
1659432259.672281,10819
1659432259.711236,10853
1659432259.750191,10899
1659432259.791196,10953
1659432259.832202,11010
1659432259.871498,11075
1659432259.910795,11122
1659432259.950092,11179
1659432259.994173,11224
1659432260.038254,11265
1659432260.082334,11327
1659432260.124365,11375
1659432260.166395,11428
1659432260.20535,11437
1659432260.244306,11269
1659432260.283261,11013
1659432260.324779,10863
1659432260.366297,10823
1659432260.404568,10812
1659432260.44284,10831
1659432260.481112,10873
1659432260.520067,10902
1659432260.559022,10898
1659432260.597977,10925
1659432260.640007,10970
1659432260.682038,11032
1659432260.719968,11097
1659432260.757898,11166
1659432260.795828,11234
1659432260.834783,11284
1659432260.873738,11349
1659432260.912693,11398
1659432260.954211,11448
1659432260.995729,11509
1659432261.034001,11557
1659432261.072272,11602
1659432261.110544,11563
1659432261.153087,11361
1659432261.19563,11163
1659432261.234585,11097
1659432261.27354,11094
1659432261.312495,11109
1659432261.353501,11159
1659432261.394506,11196
1659432261.432778,11212
1659432261.471049,11231
1659432261.509321,11254
1659432261.551864,11284
1659432261.594407,11346
1659432261.638146,11393
1659432261.681885,11445
1659432261.725624,11500
1659432261.764238,11537
1659432261.802851,11566
1659432261.841465,11600
1659432261.882982,11640
1659432261.9245,11683
1659432261.963114,11731
1659432262.001727,11712
1659432262.040341,11536
1659432262.081858,11309
1659432262.123376,11195
1659432262.163015,11184
1659432262.202653,11194
1659432262.242292,11215
1659432262.280905,11240
1659432262.319519,11247
1659432262.358132,11242
1659432262.400163,11268
1659432262.442193,11304
1659432262.481832,11361
1659432262.52147,11412
1659432262.561109,11447
1659432262.602114,11498
1659432262.643119,11543
1659432262.681391,11581
1659432262.719663,11617
1659432262.757935,11655
1659432262.79689,11692
1659432262.835845,11752
1659432262.8748,11741
1659432262.91683,11563
1659432262.958861,11334
1659432262.999866,11186
1659432263.040871,11138
1659432263.079827,11123
1659432263.118782,11148
1659432263.157737,11181
1659432263.202501,11207
1659432263.247265,11202
1659432263.292029,11220
1659432263.325346,11267
1659432263.358663,11318
1659432263.403427,11368
1659432263.448191,11414
1659432263.492956,11485
1659432263.526273,11524
1659432263.559589,11571
1659432263.604012,11601
1659432263.648434,11642
1659432263.692857,11695
1659432263.73147,11752
1659432263.770084,11772
1659432263.808697,11622
1659432263.85124,11393
1659432263.893783,11266
1659432263.932055,11238
1659432263.970326,11243
1659432264.008598,11264
1659432264.049603,11313
1659432264.090609,11336
1659432264.129222,11353
1659432264.167836,11368
1659432264.206449,11406
1659432264.246429,11469
1659432264.286409,11539
1659432264.32639,11595
1659432264.36637,11656
1659432264.40635,11705
1659432264.445647,11751
1659432264.484944,11793
1659432264.52424,11831
1659432264.565758,11874
1659432264.607276,11924
1659432264.645548,11926
1659432264.68382,11752
1659432264.722091,11568
1659432264.762482,11469
1659432264.802872,11461
1659432264.843262,11467
1659432264.883653,11489
1659432264.924043,11519
1659432264.964536,11525
1659432265.005028,11524
1659432265.043984,11527
1659432265.082939,11561
1659432265.121894,11606
1659432265.164437,11665
1659432265.20698,11701
1659432265.250719,11739
1659432265.294458,11786
1659432265.338197,11812
1659432265.371514,11842
1659432265.404831,11881
1659432265.449937,11918
1659432265.495043,11939
1659432265.540148,11856
1659432265.578762,11614
1659432265.617375,11436
1659432265.655989,11368
1659432265.698019,11340
1659432265.74005,11320
1659432265.779346,11342
1659432265.818643,11356
1659432265.85794,11343
1659432265.898433,11346
1659432265.938926,11363
1659432265.977197,11411
1659432266.015469,11460
1659432266.053741,11515
1659432266.093038,11552
1659432266.132334,11601
1659432266.171631,11637
1659432266.213662,11676
1659432266.255692,11716
1659432266.294306,11761
1659432266.332919,11808
1659432266.371532,11825
1659432266.410829,11672
1659432266.450126,11463
1659432266.489423,11326
1659432266.530428,11280
1659432266.571434,11253
1659432266.615856,11249
1659432266.660278,11262
1659432266.704701,11288
1659432266.739043,11278
1659432266.773385,11299
1659432266.817807,11332
1659432266.86223,11375
1659432266.906652,11429
1659432266.938944,11475
1659432266.971236,11527
1659432267.016,11578
1659432267.060764,11635
1659432267.105528,11674
1659432267.144142,11730
1659432267.182755,11778
1659432267.221369,11832
1659432267.261861,11874
1659432267.302354,11749
1659432267.341309,11565
1659432267.380264,11460
1659432267.419219,11450
1659432267.457149,11454
1659432267.495079,11498
1659432267.533009,11518
1659432267.57504,11545
1659432267.61707,11549
1659432267.656367,11571
1659432267.695664,11602
1659432267.734961,11660
1659432267.776479,11713
1659432267.817997,11757
1659432267.85661,11811
1659432267.895223,11843
1659432267.933837,11871
1659432267.97638,11917
1659432268.018923,11953
1659432268.057878,11993
1659432268.096833,12026
1659432268.135788,11969
1659432268.176794,11779
1659432268.217799,11636
1659432268.256412,11583
1659432268.295026,11578
1659432268.333639,11592
1659432268.375669,11611
1659432268.4177,11634
1659432268.456655,11624
1659432268.49561,11619
1659432268.534565,11640
1659432268.578646,11675
1659432268.622727,11717
1659432268.666808,11767
1659432268.708838,11801
1659432268.750869,11843
1659432268.789482,11885
1659432268.828095,11916
1659432268.866709,11955
1659432268.908739,11997
1659432268.95077,12038
1659432268.990067,12062
1659432269.029363,11954
1659432269.06866,11745
1659432269.107274,11602
1659432269.145887,11552
1659432269.1845,11512
1659432269.226018,11499
1659432269.267536,11520
1659432269.306491,11533
1659432269.345446,11516
1659432269.384402,11531
1659432269.423015,11547
1659432269.461628,11590
1659432269.500242,11630
1659432269.542272,11664
1659432269.584303,11717
1659432269.623258,11748
1659432269.662213,11787
1659432269.701168,11819
1659432269.742686,11867
1659432269.784204,11900
1659432269.822475,11961
1659432269.860747,11981
1659432269.899019,11871
1659432269.941562,11675
1659432269.984105,11551
1659432270.02388,11509
1659432270.063655,11497
1659432270.103431,11493
1659432270.143206,11515
1659432270.182981,11535
1659432270.224499,11532
1659432270.266017,11534
1659432270.305655,11567
1659432270.345294,11617
1659432270.384933,11664
1659432270.425425,11714
1659432270.465918,11766
1659432270.504531,11811
1659432270.543145,11859
1659432270.581758,11893
1659432270.623789,11935
1659432270.665819,11987
1659432270.704091,12028
1659432270.742362,12070
1659432270.780634,11983
1659432270.821127,11801
1659432270.86162,11691
1659432270.906726,11666
1659432270.951832,11673
1659432270.996938,11676
1659432271.035551,11715
1659432271.074164,11728
1659432271.112778,11735
1659432271.154296,11727
1659432271.195814,11750
1659432271.235452,11787
1659432271.275091,11823
1659432271.314729,11862
1659432271.356247,11892
1659432271.397765,11924
1659432271.435695,11951
1659432271.473625,11983
1659432271.511555,11999
1659432271.55051,12026
1659432271.589465,12063
1659432271.62842,12074
1659432271.670451,11940
1659432271.712481,11739
1659432271.751095,11610
1659432271.789708,11551
1659432271.828321,11502
1659432271.866935,11461
1659432271.905548,11456
1659432271.944161,11445
1659432271.986192,11419
1659432272.028223,11410
1659432272.067178,11417
1659432272.106133,11439
1659432272.145088,11473
1659432272.187118,11514
1659432272.229149,11536
1659432272.273913,11572
1659432272.318677,11595
1659432272.363441,11620
1659432272.396246,11648
1659432272.42905,11694
1659432272.473472,11728
1659432272.517895,11748
1659432272.562317,11622
1659432272.596147,11417
1659432272.629976,11282
1659432272.673715,11212
1659432272.717454,11179
1659432272.761193,11152
1659432272.800148,11155
1659432272.839103,11154
1659432272.878059,11146
1659432272.919577,11139
1659432272.961095,11182
1659432273.00005,11274
1659432273.039005,11358
1659432273.07796,11427
1659432273.118965,11508
1659432273.159971,11594
1659432273.198926,11620
1659432273.237881,11663
1659432273.276836,11717
1659432273.315449,11780
1659432273.354063,11818
1659432273.392676,11848
1659432273.434706,11755
1659432273.476737,11540
1659432273.51535,11378
1659432273.553964,11286
1659432273.592577,11225
1659432273.631532,11152
1659432273.670487,11119
1659432273.709442,11072
1659432273.749935,11012
1659432273.790428,10951
1659432273.832458,10967
1659432273.874489,11005
1659432273.913444,11040
1659432273.952399,11095
1659432273.991354,11154
1659432274.035093,11218
1659432274.078832,11264
1659432274.122571,11327
1659432274.155376,11392
1659432274.18818,11438
1659432274.232944,11469
1659432274.277709,11492
1659432274.322473,11408
1659432274.355789,11203
1659432274.389107,11054
1659432274.433871,10952
1659432274.478635,10915
1659432274.523399,10951
1659432274.562696,11006
1659432274.601993,10995
1659432274.641289,10989
1659432274.682295,11038
1659432274.7233,11050
1659432274.761914,11045
1659432274.800527,11060
1659432274.83914,11085
1659432274.882196,11080
1659432274.925251,11074
1659432274.963181,11091
1659432275.001112,11100
1659432275.039042,11126
1659432275.077996,11155
1659432275.116952,11171
1659432275.155907,11081
1659432275.197425,10892
1659432275.238943,10714
1659432275.280717,10653
1659432275.322491,10632
1659432275.364265,10631
1659432275.406039,10644
1659432275.445336,10640
1659432275.484633,10620
1659432275.52393,10613
1659432275.562885,10619
1659432275.60184,10644
1659432275.640795,10678
1659432275.682313,10717
1659432275.723831,10780
1659432275.763469,10812
1659432275.803108,10848
1659432275.842746,10901
1659432275.883752,10942
1659432275.924757,10995
1659432275.962687,10968
1659432276.000617,10811
1659432276.038547,10594
1659432276.08109,10458
1659432276.123633,10391
1659432276.162247,10359
1659432276.20086,10348
1659432276.239474,10338
1659432276.279966,10315
1659432276.320459,10288
1659432276.359414,10290
1659432276.398369,10311
1659432276.437324,10340
1659432276.482089,10354
1659432276.526853,10379
1659432276.571617,10431
1659432276.613135,10479
1659432276.654653,10515
1659432276.693608,10536
1659432276.732563,10568
1659432276.771518,10594
1659432276.813549,10569
1659432276.855579,10430
1659432276.893509,10278
1659432276.931439,10204
1659432276.969369,10192
1659432277.008324,10168
1659432277.047279,10148
1659432277.086234,10130
1659432277.128265,10081
1659432277.170295,10047
1659432277.208567,10045
1659432277.246839,10067
1659432277.28511,10094
1659432277.323724,10100
1659432277.362337,10154
1659432277.40095,10202
1659432277.441956,10260
1659432277.482961,10352
1659432277.521916,10474
1659432277.560871,10539
1659432277.599827,10465
1659432277.640832,10332
1659432277.681837,10314
1659432277.721134,10387
1659432277.760431,10455
1659432277.799728,10545
1659432277.841246,10653
1659432277.882764,10738
1659432277.92206,10826
1659432277.961357,10922
1659432278.000654,11016
1659432278.042685,11142
1659432278.084715,11271
1659432278.129138,11358
1659432278.17356,11429
1659432278.217982,11470
1659432278.256596,11511
1659432278.295209,11544
1659432278.333822,11584
1659432278.37534,11549
1659432278.416858,11396
1659432278.456155,11170
1659432278.495452,11044
1659432278.534749,11012
1659432278.575754,10987
1659432278.61676,10997
1659432278.656056,11013
1659432278.695353,11012
1659432278.73465,10991
1659432278.773605,11000
1659432278.81256,11028
1659432278.851515,11058
1659432278.893033,11112
1659432278.934551,11137
1659432278.973506,11143
1659432279.012461,11150
1659432279.051416,11175
1659432279.092422,11210
1659432279.133427,11250
1659432279.17204,11250
1659432279.210654,11120
1659432279.249267,10925
1659432279.287539,10786
1659432279.325811,10756
1659432279.364082,10741
1659432279.406626,10736
1659432279.449168,10744
1659432279.490174,10704
1659432279.531179,10657
1659432279.569109,10637
1659432279.607039,10663
1659432279.644969,10700
1659432279.689733,10737
1659432279.734498,10776
1659432279.779262,10824
1659432279.813091,10851
1659432279.84692,10873
1659432279.891343,10885
1659432279.935766,10864
1659432279.980188,10678
1659432280.019143,10410
1659432280.058098,10227
1659432280.097053,10143
1659432280.138571,10112
1659432280.180089,10105
1659432280.218361,10084
1659432280.256633,10045
1659432280.294904,10035
1659432280.337447,10051
1659432280.37999,10080
1659432280.418604,10127
1659432280.457217,10211
1659432280.495831,10310
1659432280.53376,10385
1659432280.57169,10452
1659432280.60962,10505
1659432280.648917,10554
1659432280.688214,10562
1659432280.727511,10534
1659432280.77125,10261
1659432280.814989,9849
1659432280.858728,9581
1659432280.900246,9457
1659432280.941764,9398
1659432280.981744,9402
1659432281.021724,9449
1659432281.061704,9466
1659432281.103222,9473
1659432281.14474,9498
1659432281.183354,9563
1659432281.221967,9654
1659432281.260581,9752
1659432281.303123,9851
1659432281.345667,9924
1659432281.384964,9988
1659432281.42426,10059
1659432281.463557,10137
1659432281.502171,10219
1659432281.540784,10316
1659432281.579397,10385
1659432281.620915,10294
1659432281.662433,10051
1659432281.700705,9890
1659432281.738976,9833
1659432281.777248,9831
1659432281.81552,9850
1659432281.853791,9894
1659432281.892063,9907
1659432281.934606,9894
1659432281.977149,9918
1659432282.016104,9950
1659432282.055059,9982
1659432282.094015,10023
1659432282.135533,10076
1659432282.17705,10119
1659432282.216006,10142
1659432282.254961,10177
1659432282.293916,10220
1659432282.336459,10286
1659432282.379002,10345
1659432282.423083,10354
1659432282.467163,10175
1659432282.511244,9882
1659432282.544049,9719
1659432282.576853,9685
1659432282.621275,9671
1659432282.665698,9672
1659432282.71012,9671
1659432282.748392,9614
1659432282.786664,9589
1659432282.824935,9603
1659432282.866966,9632
1659432282.908996,9665
1659432282.94761,9716
1659432282.986223,9786
1659432283.024836,9838
1659432283.065842,9888
1659432283.106847,9940
1659432283.145802,10007
1659432283.184757,10062
1659432283.223712,10120
1659432283.262326,10131
1659432283.300939,9933
1659432283.339553,9522
1659432283.381583,9231
1659432283.423614,9121
1659432283.462227,9062
1659432283.50084,9073
1659432283.539454,9111
1659432283.581484,9102
1659432283.623515,9032
1659432283.66247,8943
1659432283.701425,8931
1659432283.74038,8986
1659432283.781898,9067
1659432283.823416,9120
1659432283.862371,9188
1659432283.901326,9274
1659432283.940281,9365
1659432283.981799,9470
1659432284.023317,9564
1659432284.061589,9661
1659432284.09986,9684
1659432284.138132,9485
1659432284.182896,9201
1659432284.22766,9085
1659432284.272425,9055
1659432284.306767,9051
1659432284.341109,9075
1659432284.385189,9145
1659432284.42927,9208
1659432284.473351,9262
1659432284.515381,9341
1659432284.557412,9415
1659432284.596709,9486
1659432284.636006,9561
1659432284.675302,9641
1659432284.714257,9708
1659432284.753212,9766
1659432284.792168,9827
1659432284.833173,9874
1659432284.874178,9920
1659432284.913133,9953
1659432284.952089,9927
1659432284.991044,9621
1659432285.028974,9227
1659432285.066904,9052
1659432285.104834,9040
1659432285.146864,9046
1659432285.188895,9087
1659432285.228191,9133
1659432285.267488,9186
1659432285.306785,9224
1659432285.34779,9314
1659432285.388796,9421
1659432285.427751,9558
1659432285.466706,9693
1659432285.505661,9804
1659432285.548204,9882
1659432285.590747,9938
1659432285.629019,9991
1659432285.66729,10040
1659432285.705562,10083
1659432285.745337,10097
1659432285.785113,10018
1659432285.824888,9727
1659432285.864663,9364
1659432285.904438,9148
1659432285.948519,9097
1659432285.9926,9118
1659432286.03668,9168
1659432286.078198,9167
1659432286.119716,9125
1659432286.159013,9084
1659432286.19831,9114
1659432286.237607,9206
1659432286.275537,9302
1659432286.313467,9359
1659432286.351397,9394
1659432286.39001,9423
1659432286.428623,9441
1659432286.467237,9409
1659432286.509267,9367
1659432286.551298,9324
1659432286.58957,9137
1659432286.627841,8872
1659432286.666113,8674
1659432286.708143,8584
1659432286.750174,8587
1659432286.789471,8614
1659432286.828768,8663
1659432286.868064,8726
1659432286.909582,8839
1659432286.9511,8994
1659432286.989372,9183
1659432287.027643,9349
1659432287.065915,9516
1659432287.108458,9683
1659432287.151001,9826
1659432287.189615,9954
1659432287.228228,10064
1659432287.266841,10151
1659432287.311264,10179
1659432287.355686,10088
1659432287.400109,9804
1659432287.441627,9514
1659432287.483145,9363
1659432287.5221,9307
1659432287.561055,9311
1659432287.60001,9358
1659432287.641528,9375
1659432287.683046,9350
1659432287.722343,9308
1659432287.76164,9275
1659432287.800936,9290
1659432287.839891,9312
1659432287.878846,9346
1659432287.917802,9387
1659432287.95932,9444
1659432288.000838,9518
1659432288.040134,9614
1659432288.079431,9683
1659432288.118728,9610
1659432288.160246,9376
1659432288.201764,9116
1659432288.240036,8987
1659432288.278307,8973
1659432288.316579,9003
1659432288.355192,9047
1659432288.393806,9060
1659432288.432419,9048
1659432288.474449,9023
1659432288.51648,9038
1659432288.555093,9061
1659432288.593707,9091
1659432288.63232,9105
1659432288.673838,9126
1659432288.715356,9158
1659432288.76012,9180
1659432288.804884,9191
1659432288.849648,9073
1659432288.888262,8793
1659432288.926875,8581
1659432288.965489,8525
1659432289.007519,8526
1659432289.04955,8567
1659432289.088505,8632
1659432289.12746,8650
1659432289.166415,8630
1659432289.20742,8615
1659432289.248426,8618
1659432289.286697,8644
1659432289.324969,8701
1659432289.363241,8737
1659432289.402196,8785
1659432289.441151,8821
1659432289.480106,8866
1659432289.522136,8905
1659432289.564167,8897
1659432289.602097,8662
1659432289.640027,8361
1659432289.677957,8189
1659432289.717595,8124
1659432289.757234,8085
1659432289.796872,8072
1659432289.83839,8090
1659432289.879908,8085
1659432289.91818,8073
1659432289.956452,8099
1659432289.994723,8159
1659432290.037779,8210
1659432290.080835,8271
1659432290.122865,8336
1659432290.164896,8380
1659432290.202826,8425
1659432290.240756,8491
1659432290.278686,8578
1659432290.32345,8624
1659432290.368214,8502
1659432290.412978,8255
1659432290.446808,8102
1659432290.480637,8075
1659432290.524718,8082
1659432290.568799,8136
1659432290.612879,8185
1659432290.651834,8204
1659432290.690789,8215
1659432290.729745,8246
1659432290.77075,8301
1659432290.811755,8375
1659432290.850027,8457
1659432290.888299,8533
1659432290.92657,8612
1659432290.966038,8668
1659432291.005506,8730
1659432291.044973,8801
1659432291.084441,8857
1659432291.123909,8867
1659432291.163376,8703
1659432291.207457,8459
1659432291.251538,8322
1659432291.295619,8310
1659432291.335257,8309
1659432291.374896,8346
1659432291.414534,8378
1659432291.452806,8368
1659432291.491077,8367
1659432291.529349,8390
1659432291.570354,8447
1659432291.61136,8502
1659432291.650315,8560
1659432291.68927,8623
1659432291.728225,8697
1659432291.76718,8745
1659432291.806135,8802
1659432291.84509,8853
1659432291.886096,8918
1659432291.927101,8974
1659432291.966398,8945
1659432292.005695,8712
1659432292.044992,8473
1659432292.085997,8378
1659432292.127002,8330
1659432292.165957,8306
1659432292.204913,8322
1659432292.243868,8335
1659432292.285386,8325
1659432292.326904,8327
1659432292.371326,8345
1659432292.415749,8386
1659432292.460171,8466
1659432292.492463,8569
1659432292.524755,8673
1659432292.569177,8772
1659432292.613599,8862
1659432292.658022,8937
1659432292.697319,8996
1659432292.736615,9038
1659432292.775912,9074
1659432292.816405,9121
1659432292.856898,9096
1659432292.895853,8875
1659432292.934808,8556
1659432292.973763,8403
1659432293.015794,8367
1659432293.057824,8371
1659432293.096779,8408
1659432293.135734,8468
1659432293.17469,8539
1659432293.213986,8586
1659432293.253283,8669
1659432293.29258,8734
1659432293.334098,8811
1659432293.375616,8891
1659432293.414912,8945
1659432293.454209,8993
1659432293.493506,9024
1659432293.535024,9048
1659432293.576542,9067
1659432293.615497,9107
1659432293.654452,9171
1659432293.693407,9248
1659432293.734925,9307
1659432293.776443,9252
1659432293.814715,9026
1659432293.852987,8855
1659432293.891258,8801
1659432293.933289,8797
1659432293.975319,8836
1659432294.014274,8875
1659432294.053229,8900
1659432294.092185,8894
1659432294.135924,8904
1659432294.179663,8944
1659432294.223402,8996
1659432294.257231,9047
1659432294.29106,9113
1659432294.335483,9160
1659432294.379905,9218
1659432294.424328,9284
1659432294.466358,9347
1659432294.508389,9413
1659432294.547344,9486
1659432294.586299,9561
1659432294.625254,9621
1659432294.664551,9513
1659432294.703848,9278
1659432294.743145,9096
1659432294.783638,9054
1659432294.82413,9029
1659432294.862744,9033
1659432294.901357,9040
1659432294.93997,9055
1659432294.982513,9046
1659432295.025057,9064
1659432295.062987,9085
1659432295.100917,9133
1659432295.138846,9198
1659432295.17746,9248
1659432295.216073,9322
1659432295.254687,9377
1659432295.296717,9433
1659432295.338748,9493
1659432295.377019,9545
1659432295.415291,9605
1659432295.453563,9676
1659432295.497985,9736
1659432295.542408,9651
1659432295.58683,9441
1659432295.62066,9280
1659432295.654489,9246
1659432295.698911,9284
1659432295.743334,9344
1659432295.787756,9419
1659432295.820048,9475
1659432295.85234,9517
1659432295.897104,9560
1659432295.941868,9621
1659432295.986632,9693
1659432296.025246,9774
1659432296.063859,9844
1659432296.102473,9914
1659432296.143478,9977
1659432296.184483,10034
1659432296.223439,10078
1659432296.262393,10144
1659432296.301349,10189
1659432296.342866,10223
1659432296.384384,10157
1659432296.423681,9951
1659432296.462978,9819
1659432296.502275,9809
1659432296.54123,9863
1659432296.580185,9923
1659432296.61914,9984
1659432296.660146,10009
1659432296.701151,9987
1659432296.740106,10004
1659432296.779061,10035
1659432296.818016,10086
1659432296.860559,10151
1659432296.903102,10208
1659432296.942057,10267
1659432296.981013,10322
1659432297.019968,10380
1659432297.060973,10421
1659432297.101978,10478
1659432297.140934,10534
1659432297.179888,10561
1659432297.218844,10388
1659432297.260874,10153
1659432297.302905,10016
1659432297.346985,9968
1659432297.391066,9954
1659432297.435147,9970
1659432297.474102,9997
1659432297.513057,10000
1659432297.552012,10009
1659432297.59353,10022
1659432297.635048,10063
1659432297.673661,10131
1659432297.712275,10195
1659432297.750888,10257
1659432297.793431,10314
1659432297.835974,10369
1659432297.874588,10420
1659432297.913201,10488
1659432297.951815,10546
1659432297.990428,10619
1659432298.029041,10624
1659432298.067655,10468
1659432298.10866,10283
1659432298.149665,10234
1659432298.187937,10235
1659432298.226209,10264
1659432298.264481,10307
1659432298.303094,10339
1659432298.341707,10363
1659432298.380321,10382
1659432298.422351,10433
1659432298.464382,10504
1659432298.502995,10594
1659432298.541608,10663
1659432298.580222,10730
1659432298.62174,10769
1659432298.663258,10796
1659432298.707338,10828
1659432298.751419,10856
1659432298.7955,10888
1659432298.829842,10887
1659432298.864184,10757
1659432298.908265,10538
1659432298.952345,10402
1659432298.996426,10373
1659432299.029231,10384
1659432299.062035,10429
1659432299.106457,10452
1659432299.15088,10443
1659432299.195302,10424
1659432299.234257,10454
1659432299.273212,10515
1659432299.312168,10563
1659432299.353686,10593
1659432299.395203,10620
1659432299.434159,10639
1659432299.473114,10662
1659432299.512069,10694
1659432299.550682,10744
1659432299.589295,10789
1659432299.627909,10838
1659432299.669683,10803
1659432299.711457,10595
1659432299.753232,10379
1659432299.795006,10263
1659432299.834303,10222
1659432299.873599,10192
1659432299.912896,10181
1659432299.953902,10179
1659432299.994907,10162
1659432300.034204,10155
1659432300.073501,10172
1659432300.112797,10232
1659432300.15534,10286
1659432300.197883,10353
1659432300.236497,10414
1659432300.27511,10474
1659432300.313724,10541
1659432300.352679,10600
1659432300.391634,10650
1659432300.430589,10704
1659432300.472107,10755
1659432300.513625,10690
1659432300.55258,10503
1659432300.591535,10325
1659432300.63049,10266
1659432300.672008,10266
1659432300.713526,10284
1659432300.752481,10317
1659432300.791436,10311
1659432300.830391,10300
1659432300.871397,10293
1659432300.912402,10321
1659432300.956483,10356
1659432301.000563,10416
1659432301.044644,10474
1659432301.078986,10528
1659432301.113328,10575
1659432301.157751,10622
1659432301.202173,10660
1659432301.246596,10702
1659432301.285551,10747
1659432301.324506,10798
1659432301.363461,10735
1659432301.404466,10543
1659432301.445472,10356
1659432301.484427,10297
1659432301.523382,10262
1659432301.562337,10252
1659432301.600609,10309
1659432301.63888,10361
1659432301.677152,10373
1659432301.71867,10383
1659432301.760188,10391
1659432301.79846,10399
1659432301.836731,10441
1659432301.875003,10472
1659432301.917033,10509
1659432301.959064,10553
1659432301.998361,10586
1659432302.037657,10617
1659432302.076954,10653
1659432302.115909,10679
1659432302.154865,10717
1659432302.19382,10723
1659432302.234825,10622
1659432302.27583,10415
1659432302.318373,10254
1659432302.360916,10202
1659432302.39953,10191
1659432302.438143,10218
1659432302.476757,10245
1659432302.520837,10269
1659432302.564918,10263
1659432302.608999,10289
1659432302.641291,10340
1659432302.673582,10395
1659432302.718347,10472
1659432302.763111,10548
1659432302.807875,10656
1659432302.841704,10770
1659432302.875534,10890
1659432302.919615,10991
1659432302.963695,11085
1659432303.007776,11158
1659432303.046731,11211
1659432303.085686,11153
1659432303.124641,10966
1659432303.166672,10865
1659432303.208702,10851
1659432303.247658,10873
1659432303.286613,10887
1659432303.325568,10892
1659432303.368111,10887
1659432303.410654,10845
1659432303.449609,10834
1659432303.488564,10844
1659432303.527519,10876
1659432303.566474,10925
1659432303.605429,10989
1659432303.644384,11037
1659432303.685902,11068
1659432303.72742,11083
1659432303.766034,11095
1659432303.804647,11129
1659432303.843261,11164
1659432303.884778,11205
1659432303.926296,11179
1659432303.965251,10993
1659432304.004206,10748
1659432304.043162,10592
1659432304.083654,10526
1659432304.124147,10502
1659432304.162419,10501
1659432304.200691,10497
1659432304.238962,10488
1659432304.280993,10486
1659432304.323023,10494
1659432304.36232,10530
1659432304.401617,10587
1659432304.440914,10639
1659432304.484994,10687
1659432304.529075,10726
1659432304.573156,10752
1659432304.614674,10777
1659432304.656192,10797
1659432304.695147,10843
1659432304.734102,10894
1659432304.773057,10895
1659432304.814575,10731
1659432304.856093,10556
1659432304.894365,10454
1659432304.932636,10429
1659432304.970908,10435
1659432305.009863,10465
1659432305.048818,10500
1659432305.087773,10511
1659432305.128266,10549
1659432305.168759,10604
1659432305.208056,10661
1659432305.247353,10694
1659432305.286649,10713
1659432305.325604,10720
1659432305.364559,10723
1659432305.403515,10729
1659432305.447595,10741
1659432305.491676,10763
1659432305.535757,10778
1659432305.569074,10800
1659432305.602391,10724
1659432305.647155,10495
1659432305.691919,10295
1659432305.736683,10179
1659432305.774613,10135
1659432305.812543,10079
1659432305.850473,10056
1659432305.893529,10047
1659432305.936584,10025
1659432305.975198,10018
1659432306.013811,10048
1659432306.052424,10090
1659432306.09343,10136
1659432306.134435,10197
1659432306.17339,10252
1659432306.212345,10310
1659432306.251301,10373
1659432306.293844,10402
1659432306.336387,10444
1659432306.375,10481
1659432306.413614,10504
1659432306.452227,10397
1659432306.491524,10213
1659432306.53082,10075
1659432306.570117,10038
1659432306.612148,10039
1659432306.654178,10068
1659432306.693954,10099
1659432306.733729,10125
1659432306.773504,10141
1659432306.813279,10167
1659432306.853054,10219
1659432306.892009,10285
1659432306.930964,10363
1659432306.96992,10422
1659432307.010925,10485
1659432307.05193,10547
1659432307.090544,10618
1659432307.129157,10658
1659432307.16777,10718
1659432307.209801,10763
1659432307.251832,10801
1659432307.296254,10721
1659432307.340677,10544
1659432307.385099,10434
1659432307.417391,10410
1659432307.449682,10425
1659432307.494447,10454
1659432307.539211,10489
1659432307.583975,10476
1659432307.622588,10470
1659432307.661202,10492
1659432307.699815,10523
1659432307.741846,10585
1659432307.783876,10618
1659432307.822831,10642
1659432307.861786,10690
1659432307.900741,10722
1659432307.942259,10758
1659432307.983777,10797
1659432308.022049,10836
1659432308.060321,10869
1659432308.098592,10869
1659432308.137547,10704
1659432308.176502,10504
1659432308.215457,10397
1659432308.256463,10361
1659432308.297468,10344
1659432308.336082,10363
1659432308.374695,10363
1659432308.413308,10354
1659432308.45158,10338
1659432308.489852,10341
1659432308.528123,10351
1659432308.571179,10383
1659432308.614235,10406
1659432308.652848,10429
1659432308.691462,10467
1659432308.730075,10499
1659432308.771593,10541
1659432308.813111,10585
1659432308.855141,10660
1659432308.897172,10760
1659432308.93681,10835
1659432308.976449,10803
1659432309.016087,10642
1659432309.06051,10541
1659432309.104932,10524
1659432309.149355,10570
1659432309.182672,10594
1659432309.215988,10645
1659432309.260411,10683
1659432309.304833,10698
1659432309.349256,10730
1659432309.38206,10764
1659432309.414865,10822
1659432309.459629,10871
1659432309.504393,10926
1659432309.549157,10973
1659432309.588112,11013
1659432309.627067,11076
1659432309.666022,11119
1659432309.707028,11174
1659432309.748033,11225
1659432309.78733,11263
1659432309.826627,11310
1659432309.865923,11226
1659432309.907954,11039
1659432309.949985,10921
1659432309.988256,10911
1659432310.026528,10934
1659432310.0648,10984
1659432310.104096,11003
1659432310.143393,11003
1659432310.18269,11000
1659432310.224208,11006
1659432310.265726,11031
1659432310.303656,11069
1659432310.341586,11128
1659432310.379516,11173
1659432310.422059,11226
1659432310.464602,11261
1659432310.503215,11291
1659432310.541829,11328
1659432310.580442,11353
1659432310.620935,11390
1659432310.661427,11413
1659432310.700041,11335
1659432310.738654,11150
1659432310.777268,11052
1659432310.822032,11038
1659432310.866796,11063
1659432310.91156,11089
1659432310.953078,11115
1659432310.994596,11120
1659432311.033551,11110
1659432311.072506,11104
1659432311.111461,11130
1659432311.153492,11154
1659432311.195523,11179
1659432311.233794,11196
1659432311.272066,11220
1659432311.310338,11243
1659432311.348951,11263
1659432311.387564,11300
1659432311.426178,11353
1659432311.468721,11408
1659432311.511264,11465
1659432311.549194,11482
1659432311.587124,11347
1659432311.625054,11198
1659432311.663667,11146
1659432311.702281,11165
1659432311.740894,11176
1659432311.782412,11203
1659432311.82393,11230
1659432311.863227,11227
1659432311.902523,11222
1659432311.94182,11242
1659432311.986243,11290
1659432312.030665,11351
1659432312.075088,11414
1659432312.108404,11445
1659432312.141721,11495
1659432312.186144,11542
1659432312.230566,11581
1659432312.274989,11617
1659432312.314286,11659
1659432312.353582,11695
1659432312.392879,11728
1659432312.435422,11656
1659432312.477965,11465
1659432312.516579,11366
1659432312.555192,11361
1659432312.593806,11397
1659432312.634298,11441
1659432312.674791,11483
1659432312.713746,11485
1659432312.752701,11482
1659432312.791656,11498
1659432312.83027,11542
1659432312.868883,11604
1659432312.907496,11644
1659432312.949527,11691
1659432312.991558,11729
1659432313.030513,11767
1659432313.069468,11790
1659432313.108423,11819
1659432313.150453,11862
1659432313.192484,11895
1659432313.231097,11930
1659432313.269711,11848
1659432313.308324,11655
1659432313.350354,11551
1659432313.392385,11536
1659432313.431682,11569
1659432313.470978,11611
1659432313.510275,11625
1659432313.551281,11622
1659432313.592286,11621
1659432313.630558,11623
1659432313.668829,11675
1659432313.707101,11718
1659432313.751865,11758
1659432313.796629,11811
1659432313.841394,11858
1659432313.882912,11908
1659432313.92443,11962
1659432313.963043,12009
1659432314.001656,12036
1659432314.04027,12057
1659432314.079225,11997
1659432314.11818,11778
1659432314.157135,11562
1659432314.19814,11457
1659432314.239146,11446
1659432314.277417,11463
1659432314.315689,11497
1659432314.353961,11527
1659432314.397017,11544
1659432314.440072,11552
1659432314.478685,11572
1659432314.517299,11614
1659432314.555912,11667
1659432314.594867,11708
1659432314.633822,11758
1659432314.672777,11794
1659432314.714295,11827
1659432314.755813,11859
1659432314.794769,11884
1659432314.833724,11915
1659432314.872679,11929
1659432314.913172,11857
1659432314.953664,11665
1659432314.992961,11536
1659432315.032258,11508
1659432315.071555,11527
1659432315.11256,11567
1659432315.153565,11599
1659432315.197988,11618
1659432315.24241,11610
1659432315.286833,11625
1659432315.321175,11654
1659432315.355517,11693
1659432315.400281,11730
1659432315.445045,11770
1659432315.48981,11799
1659432315.528081,11823
1659432315.566353,11857
1659432315.604625,11883
1659432315.647167,11927
1659432315.689711,11934
1659432315.728666,11831
1659432315.767621,11635
1659432315.806576,11495
1659432315.847069,11444
1659432315.887562,11436
1659432315.926517,11456
1659432315.965472,11474
1659432316.004427,11491
1659432316.043382,11472
1659432316.082337,11476
1659432316.121292,11503
1659432316.16281,11544
1659432316.204328,11579
1659432316.243283,11604
1659432316.282238,11630
1659432316.321193,11657
1659432316.363224,11698
1659432316.405254,11720
1659432316.443868,11753
1659432316.482481,11785
1659432316.521094,11740
1659432316.56005,11544
1659432316.599005,11371
1659432316.63796,11292
1659432316.680503,11264
1659432316.723046,11268
1659432316.764051,11286
1659432316.805057,11273
1659432316.844012,11267
1659432316.882967,11262
1659432316.921922,11286
1659432316.966344,11332
1659432317.010767,11385
1659432317.055189,11425
1659432317.088506,11476
1659432317.121823,11519
1659432317.162572,11558
1659432317.203321,11597
1659432317.24407,11634
1659432317.284819,11679
1659432317.323774,11706
1659432317.36273,11639
1659432317.401685,11448
1659432317.44269,11314
1659432317.483695,11283
1659432317.52265,11305
1659432317.561605,11335
1659432317.600561,11361
1659432317.642079,11346
1659432317.683596,11327
1659432317.723235,11323
1659432317.762873,11356
1659432317.802512,11384
1659432317.843517,11409
1659432317.884523,11447
1659432317.924161,11487
1659432317.9638,11529
1659432318.003438,11554
1659432318.047177,11586
1659432318.090916,11632
1659432318.134655,11658
1659432318.176173,11636
1659432318.217691,11443
1659432318.256988,11234
1659432318.296285,11119
1659432318.335582,11096
1659432318.3771,11090
1659432318.418618,11103
1659432318.456889,11116
1659432318.495161,11101
1659432318.533433,11096
1659432318.57273,11103
1659432318.612026,11138
1659432318.651323,11164
1659432318.693866,11213
1659432318.736409,11233
1659432318.775023,11259
1659432318.813636,11293
1659432318.852249,11322
1659432318.893767,11379
1659432318.935285,11444
1659432318.974582,11501
1659432319.013879,11490
1659432319.053176,11302
1659432319.091106,11048
1659432319.129036,10894
1659432319.166965,10826
1659432319.210021,10787
1659432319.253077,10798
1659432319.29169,10807
1659432319.330304,10823
1659432319.368917,10829
1659432319.40941,10854
1659432319.449903,10893
1659432319.488858,10953
1659432319.527813,11012
1659432319.566768,11056
1659432319.609311,11111
1659432319.651854,11146
1659432319.695935,11175
1659432319.740016,11214
1659432319.784096,11253
1659432319.823051,11276
1659432319.862006,11299
1659432319.900962,11192
1659432319.942992,10971
1659432319.985023,10855
1659432320.023294,10823
1659432320.061566,10845
1659432320.099838,10884
1659432320.141356,10916
1659432320.182873,10922
1659432320.222512,10914
1659432320.262151,10928
1659432320.301789,10944
1659432320.339719,10976
1659432320.377649,11008
1659432320.415579,11037
1659432320.457097,11074
1659432320.498615,11096
1659432320.537228,11135
1659432320.575842,11173
1659432320.614455,11205
1659432320.656486,11251
1659432320.698516,11267
1659432320.736788,11120
1659432320.775059,10913
1659432320.813331,10796
1659432320.852628,10751
1659432320.891925,10750
1659432320.931221,10758
1659432320.972227,10773
1659432321.013232,10771
1659432321.055263,10752
1659432321.097293,10753
1659432321.13659,10802
1659432321.175887,10847
1659432321.215183,10898
1659432321.259606,10946
1659432321.304029,10971
1659432321.348451,11016
1659432321.380743,11050
1659432321.413034,11090
1659432321.457457,11134
1659432321.501879,11184
1659432321.546302,11205
1659432321.579619,11084
1659432321.612936,10868
1659432321.657358,10737
1659432321.701781,10714
1659432321.746203,10699
1659432321.784817,10701
1659432321.82343,10723
1659432321.862043,10741
1659432321.904074,10740
1659432321.946104,10762
1659432321.985059,10800
1659432322.024014,10842
1659432322.062969,10897
1659432322.105,10937
1659432322.147031,10969
1659432322.185986,11016
1659432322.224941,11066
1659432322.263896,11099
1659432322.302851,11148
1659432322.341806,11187
1659432322.380761,11214
1659432322.425184,11137
1659432322.469606,10931
1659432322.514029,10792
1659432322.5523,10751
1659432322.590572,10755
1659432322.628844,10779
1659432322.670874,10805
1659432322.712904,10802
1659432322.75186,10793
1659432322.790815,10801
1659432322.82977,10831
1659432322.868042,10903
1659432322.906313,10989
1659432322.944585,11055
1659432322.98559,11099
1659432323.026596,11120
1659432323.065551,11122
1659432323.104506,11125
1659432323.143461,11134
1659432323.184979,11128
1659432323.226497,11060
1659432323.265452,10783
1659432323.304407,10449
1659432323.343362,10242
1659432323.381975,10134
1659432323.420589,10075
1659432323.459202,10066
1659432323.50072,10047
1659432323.542238,10037
1659432323.581193,10055
1659432323.620148,10086
1659432323.659103,10143
1659432323.699596,10214
1659432323.740089,10267
1659432323.779386,10308
1659432323.818683,10345
1659432323.857979,10388
1659432323.898472,10434
1659432323.938965,10485
1659432323.983046,10527
1659432324.027127,10559
1659432324.071207,10450
1659432324.105549,10223
1659432324.139891,10065
1659432324.184314,9992
1659432324.228736,9963
1659432324.273159,9950
1659432324.311772,9970
1659432324.350385,9970
1659432324.388999,9957
1659432324.431029,9961
1659432324.47306,9993
1659432324.512357,10041
1659432324.551653,10079
1659432324.59095,10124
1659432324.632468,10182
1659432324.673986,10236
1659432324.712941,10282
1659432324.751896,10334
1659432324.790851,10392
1659432324.829123,10451
1659432324.867395,10477
1659432324.905666,10335
1659432324.947184,10139
1659432324.988702,10027
1659432325.027999,9986
1659432325.067296,9986
1659432325.106593,9999
1659432325.145206,10006
1659432325.18382,9990
1659432325.222433,9994
1659432325.263951,9996
1659432325.305469,10036
1659432325.348012,10090
1659432325.390555,10130
1659432325.429852,10171
1659432325.469149,10224
1659432325.508445,10267
1659432325.549451,10305
1659432325.590456,10355
1659432325.629753,10403
1659432325.66905,10449
1659432325.708347,10404
1659432325.752769,10193
1659432325.797191,9989
1659432325.841614,9880
1659432325.874931,9840
1659432325.908248,9832
1659432325.952328,9847
1659432325.996409,9833
1659432326.04049,9814
1659432326.073294,9799
1659432326.106099,9820
1659432326.149837,9865
1659432326.193577,9908
1659432326.237316,9965
1659432326.276271,10003
1659432326.315226,10043
1659432326.354181,10086
1659432326.396211,10127
1659432326.438242,10170
1659432326.476855,10221
1659432326.515469,10283
1659432326.554082,10200
1659432326.593037,9959
1659432326.631992,9725
1659432326.670948,9625
1659432326.712978,9600
1659432326.755008,9587
1659432326.79328,9610
1659432326.831552,9605
1659432326.869823,9579
1659432326.911854,9554
1659432326.953884,9620
1659432326.992498,9705
1659432327.031111,9788
1659432327.069725,9830
1659432327.111243,9871
1659432327.152761,9890
1659432327.191032,9912
1659432327.229304,9927
1659432327.267576,9951
1659432327.309606,9979
1659432327.351636,10009
1659432327.390592,9990
1659432327.429547,9773
1659432327.468502,9492
1659432327.512241,9355
1659432327.55598,9300
1659432327.599719,9278
1659432327.641749,9277
1659432327.68378,9278
1659432327.722735,9257
1659432327.76169,9254
1659432327.800645,9285
1659432327.839942,9328
1659432327.879239,9386
1659432327.918536,9452
1659432327.960566,9501
1659432328.002597,9542
1659432328.041552,9592
1659432328.080507,9633
1659432328.119462,9696
1659432328.158075,9733
1659432328.196689,9764
1659432328.235302,9665
1659432328.277333,9431
1659432328.319363,9270
1659432328.35866,9221
1659432328.397957,9243
1659432328.437253,9269
1659432328.477746,9330
1659432328.518239,9352
1659432328.557194,9381
1659432328.596149,9421
1659432328.635104,9478
1659432328.679869,9531
1659432328.724633,9599
1659432328.769397,9675
1659432328.802714,9732
1659432328.836031,9803
1659432328.880453,9851
1659432328.924876,9928
1659432328.969298,10016
1659432329.008253,10096
1659432329.047208,10121
1659432329.086164,9997
1659432329.126656,9846
1659432329.167149,9771
1659432329.205421,9749
1659432329.243692,9716
1659432329.281964,9700
1659432329.320919,9693
1659432329.359874,9660
1659432329.398829,9638
1659432329.440347,9626
1659432329.481865,9658
1659432329.520479,9722
1659432329.559092,9782
1659432329.597705,9832
1659432329.639736,9882
1659432329.681767,9918
1659432329.720038,9971
1659432329.75831,10003
1659432329.796582,10049
1659432329.838612,10004
1659432329.880642,9770
1659432329.919598,9488
1659432329.958553,9365
1659432329.997508,9341
1659432330.039026,9331
1659432330.080544,9374
1659432330.119157,9390
1659432330.15777,9400
1659432330.196384,9420
1659432330.241148,9462
1659432330.285912,9524
1659432330.330676,9585
1659432330.363481,9660
1659432330.396285,9722
1659432330.440024,9796
1659432330.483763,9856
1659432330.527502,9911
1659432330.566799,9967
1659432330.606096,9972
1659432330.645392,9766
1659432330.685885,9494
1659432330.726378,9358
1659432330.765675,9328
1659432330.804972,9348
1659432330.844269,9378
1659432330.886299,9404
1659432330.928329,9395
1659432330.967285,9395
1659432331.00624,9414
1659432331.045195,9469
1659432331.08415,9540
1659432331.123105,9620
1659432331.16206,9694
1659432331.204603,9753
1659432331.247146,9812
1659432331.286101,9857
1659432331.325057,9904
1659432331.364012,9914
1659432331.405017,9745
1659432331.446022,9357
1659432331.484977,9096
1659432331.523932,9041
1659432331.562888,9097
1659432331.604918,9203
1659432331.646949,9256
1659432331.68522,9272
1659432331.723492,9277
1659432331.761764,9288
1659432331.802769,9296
1659432331.843774,9331
1659432331.88888,9359
1659432331.933986,9369
1659432331.979092,9373
1659432332.017705,9366
1659432332.056319,9369
1659432332.094932,9398
1659432332.136963,9424
1659432332.178993,9359
1659432332.21829,9073
1659432332.257587,8829
1659432332.296884,8754
1659432332.337889,8764
1659432332.378894,8814
1659432332.417508,8868
1659432332.456121,8877
1659432332.494735,8875
1659432332.533348,8909
1659432332.571961,8985
1659432332.610575,9071
1659432332.652605,9168
1659432332.694636,9237
1659432332.733249,9309
1659432332.771863,9385
1659432332.810476,9433
1659432332.850969,9492
1659432332.891461,9480
1659432332.930758,9230
1659432332.970055,8890
1659432333.009352,8745
1659432333.047623,8730
1659432333.085895,8775
1659432333.124167,8850
1659432333.166197,8897
1659432333.208228,8917
1659432333.25265,8900
1659432333.297073,8911
1659432333.341495,8936
1659432333.3743,8974
1659432333.407104,8996
1659432333.451526,9016
1659432333.495949,9022
1659432333.540371,9033
1659432333.579326,9063
1659432333.618282,9090
1659432333.657237,9069
1659432333.696192,8793
1659432333.735147,8516
1659432333.774102,8442
1659432333.81562,8480
1659432333.857138,8510
1659432333.896093,8577
1659432333.935048,8674
1659432333.974003,8728
1659432334.012275,8780
1659432334.050546,8847
1659432334.088818,8927
1659432334.131874,8995
1659432334.174929,9076
1659432334.213884,9128
1659432334.25284,9173
1659432334.291795,9226
1659432334.3328,9269
1659432334.373805,9326
1659432334.413444,9373
1659432334.453082,9308
1659432334.492721,9004
1659432334.534751,8776
1659432334.576782,8734
1659432334.615395,8756
1659432334.654009,8797
1659432334.692622,8838
1659432334.73414,8890
1659432334.775658,8888
1659432334.815433,8899
1659432334.855208,8931
1659432334.894984,8964
1659432334.934759,8995
1659432334.974534,9027
1659432335.016052,9066
1659432335.05757,9079
1659432335.096183,9138
1659432335.134797,9201
1659432335.17341,9279
1659432335.214928,9380
1659432335.256446,9470
1659432335.295401,9464
1659432335.334356,9234
1659432335.373311,8990
1659432335.415342,8918
1659432335.457372,8940
1659432335.501795,8997
1659432335.546217,9075
1659432335.59064,9140
1659432335.629253,9181
1659432335.667866,9235
1659432335.70648,9327
1659432335.747998,9438
1659432335.789515,9549
1659432335.828471,9652
1659432335.867426,9731
1659432335.906381,9798
1659432335.944653,9857
1659432335.982924,9916
1659432336.021196,9979
1659432336.062714,10042
1659432336.104232,10106
1659432336.142503,10073
1659432336.180775,9841
1659432336.219047,9610
1659432336.25766,9565
1659432336.296274,9588
1659432336.334887,9649
1659432336.37743,9706
1659432336.419973,9732
1659432336.458586,9755
1659432336.4972,9824
1659432336.535813,9906
1659432336.577331,9999
1659432336.618849,10093
1659432336.657804,10161
1659432336.696759,10236
1659432336.735714,10281
1659432336.777745,10337
1659432336.819775,10385
1659432336.863856,10431
1659432336.907937,10478
1659432336.952018,10444
1659432336.984822,10250
1659432337.017626,10076
1659432337.062391,10049
1659432337.107155,10091
1659432337.151919,10173
1659432337.190191,10258
1659432337.228462,10285
1659432337.266734,10296
1659432337.309277,10315
1659432337.35182,10366
1659432337.390433,10421
1659432337.429047,10471
1659432337.46766,10488
1659432337.506615,10517
1659432337.54557,10544
1659432337.584526,10563
1659432337.626043,10600
1659432337.667561,10634
1659432337.706858,10682
1659432337.746155,10641
1659432337.785452,10424
1659432337.827482,10169
1659432337.869513,10052
1659432337.908468,10028
1659432337.947423,10051
1659432337.986378,10093
1659432338.027383,10111
1659432338.068389,10113
1659432338.107344,10129
1659432338.146299,10159
1659432338.185254,10203
1659432338.226772,10273
1659432338.26829,10326
1659432338.307245,10363
1659432338.3462,10406
1659432338.385155,10462
1659432338.428894,10516
1659432338.472633,10582
1659432338.516372,10630
1659432338.549177,10622
1659432338.581981,10475
1659432338.626404,10243
1659432338.670826,10137
1659432338.715248,10106
1659432338.74959,10077
1659432338.783932,10052
1659432338.828013,10016
1659432338.872094,9945
1659432338.916175,9865
1659432338.95513,9817
1659432338.994085,9795
1659432339.03304,9795
1659432339.074558,9790
1659432339.116076,9800
1659432339.154689,9816
1659432339.193303,9830
1659432339.231916,9848
1659432339.272409,9869
1659432339.312902,9895
1659432339.352198,9837
1659432339.391495,9603
1659432339.430792,9310
1659432339.468722,9170
1659432339.506652,9139
1659432339.544582,9135
1659432339.587125,9158
1659432339.629668,9145
1659432339.668623,9100
1659432339.707578,9072
1659432339.746533,9087
1659432339.788051,9118
1659432339.829569,9176
1659432339.868524,9232
1659432339.90748,9263
1659432339.946434,9283
1659432339.988978,9298
1659432340.031521,9331
1659432340.070134,9410
1659432340.108747,9420
1659432340.147361,9318
1659432340.189391,9263
1659432340.231422,9276
1659432340.270377,9302
1659432340.309332,9344
1659432340.348287,9364
1659432340.392368,9360
1659432340.436449,9365
1659432340.48053,9397
1659432340.522047,9482
1659432340.563565,9591
1659432340.60252,9661
1659432340.641475,9710
1659432340.680431,9778
1659432340.721436,9837
1659432340.762441,9922
1659432340.801396,9986
1659432340.840352,10022
1659432340.879307,9956
1659432340.918262,9653
1659432340.957217,9369
1659432340.996172,9328
1659432341.038715,9268
1659432341.081258,9126
1659432341.119871,8968
1659432341.158485,8640
1659432341.197098,8204
1659432341.239129,8181
1659432341.281159,8224
1659432341.319772,8427
1659432341.358386,8491
1659432341.396999,8504
1659432341.435613,8533
1659432341.474226,8673
1659432341.51284,8823
1659432341.55487,8915
1659432341.5969,8989
1659432341.635856,9101
1659432341.674811,9199
1659432341.713766,9195
1659432341.754259,9036
1659432341.794751,8912
1659432341.839516,8917
1659432341.88428,8931
1659432341.929044,8977
1659432341.962361,9045
1659432341.995678,9094
1659432342.0401,9010
1659432342.084523,8872
1659432342.128945,8662
1659432342.161749,8552
1659432342.194554,8586
1659432342.238976,8629
1659432342.283399,8638
1659432342.327821,8570
1659432342.366093,8537
1659432342.404365,8542
1659432342.442636,8610
1659432342.484667,8698
1659432342.526697,8787
1659432342.56531,8877
1659432342.603924,8793
1659432342.642537,8444
1659432342.681492,8105
1659432342.720448,7954
1659432342.759403,7896
1659432342.799896,7852
1659432342.840388,7810
1659432342.880368,7778
1659432342.920349,7761
1659432342.960329,7734
1659432343.001847,7725
1659432343.043365,7676
1659432343.081978,7673
1659432343.120592,7695
1659432343.159205,7723
1659432343.198843,7788
1659432343.238482,7866
1659432343.278121,7977
1659432343.320151,8100
1659432343.362181,8243
1659432343.403187,8334
1659432343.444192,8413
1659432343.483147,8425
1659432343.522102,8212
1659432343.561058,7935
1659432343.602576,7797
1659432343.644093,7752
1659432343.685355,7755
1659432343.726617,7781
1659432343.767878,7782
1659432343.80914,7750
1659432343.851171,7737
1659432343.893201,7755
1659432343.932156,7826
1659432343.971111,7907
1659432344.010066,8021
1659432344.050559,8132
1659432344.091052,8230
1659432344.130349,8326
1659432344.169646,8415
1659432344.208942,8511
1659432344.247897,8583
1659432344.286853,8674
1659432344.325808,8746
1659432344.367326,8755
1659432344.408844,8564
1659432344.44814,8302
1659432344.487437,8180
1659432344.526734,8154
1659432344.565689,8138
1659432344.604644,8173
1659432344.643599,8227
1659432344.684092,8249
1659432344.724585,8264
1659432344.767128,8281
1659432344.809671,8315
1659432344.848284,8371
1659432344.886898,8442
1659432344.925511,8509
1659432344.96925,8580
1659432345.012989,8638
1659432345.056728,8704
1659432345.08902,8780
1659432345.121312,8850
1659432345.166418,8918
1659432345.211524,8990
1659432345.256629,9078
1659432345.289434,9069
1659432345.322238,8882
1659432345.367002,8670
1659432345.411766,8596
1659432345.456531,8609
1659432345.495486,8626
1659432345.534441,8662
1659432345.573396,8694
1659432345.614914,8709
1659432345.656432,8701
1659432345.694703,8718
1659432345.732975,8762
1659432345.771247,8797
1659432345.81379,8845
1659432345.856333,8884
1659432345.894604,8935
1659432345.932876,8980
1659432345.971148,9032
1659432346.009761,9090
1659432346.048375,9159
1659432346.086988,9216
1659432346.128506,9265
1659432346.170024,9243
1659432346.209321,9024
1659432346.248617,8778
1659432346.287914,8665
1659432346.32892,8644
1659432346.369925,8638
1659432346.40888,8638
1659432346.447835,8635
1659432346.48679,8632
1659432346.528308,8622
1659432346.569826,8652
1659432346.609123,8734
1659432346.64842,8832
1659432346.687717,8918
1659432346.732481,8966
1659432346.777245,8982
1659432346.822009,8987
1659432346.855839,9012
1659432346.889668,9047
1659432346.933407,9111
1659432346.977146,9190
1659432347.020885,9276
1659432347.062403,9314
1659432347.103921,9162
1659432347.143218,8934
1659432347.182515,8801
1659432347.221812,8759
1659432347.260425,8750
1659432347.299038,8767
1659432347.337652,8798
1659432347.378657,8818
1659432347.419662,8843
1659432347.458959,8864
1659432347.498256,8907
1659432347.537553,8956
1659432347.579071,9019
1659432347.620589,9077
1659432347.659544,9151
1659432347.698499,9220
1659432347.737454,9285
1659432347.776751,9349
1659432347.816048,9398
1659432347.855345,9459
1659432347.89635,9513
1659432347.937355,9517
1659432347.975285,9297
1659432348.013215,8946
1659432348.051145,8730
1659432348.094201,8644
1659432348.137256,8631
1659432348.175186,8655
1659432348.213116,8729
1659432348.251046,8751
1659432348.291539,8739
1659432348.332032,8764
1659432348.376112,8797
1659432348.420193,8864
1659432348.464274,8933
1659432348.503571,9003
1659432348.542868,9065
1659432348.582165,9136
1659432348.623682,9181
1659432348.6652,9252
1659432348.70313,9300
1659432348.74106,9324
1659432348.77899,9375
1659432348.81692,9315
1659432348.855192,9058
1659432348.893464,8838
1659432348.931735,8803
1659432348.973253,8830
1659432349.014771,8883
1659432349.059535,8952
1659432349.1043,8976
1659432349.149064,8962
1659432349.182381,8943
1659432349.215698,8951
1659432349.259778,8984
1659432349.303859,9046
1659432349.34794,9105
1659432349.381257,9174
1659432349.414573,9245
1659432349.458654,9317
1659432349.502735,9390
1659432349.546816,9444
1659432349.585429,9490
1659432349.624043,9539
1659432349.662656,9575
1659432349.705712,9418
1659432349.748767,9072
1659432349.78738,8816
1659432349.825994,8733
1659432349.864607,8756
1659432349.903563,8787
1659432349.942518,8813
1659432349.981473,8817
1659432350.023503,8805
1659432350.065534,8803
1659432350.104147,8854
1659432350.142761,8924
1659432350.181374,9004
1659432350.223404,9085
1659432350.265435,9146
1659432350.30439,9224
1659432350.343345,9288
1659432350.3823,9355
1659432350.420913,9413
1659432350.459527,9489
1659432350.49814,9542
1659432350.539146,9528
1659432350.580151,9293
1659432350.622694,9036
1659432350.665237,8952
1659432350.703851,8950
1659432350.742464,8990
1659432350.781077,9032
1659432350.825158,9061
1659432350.869239,9051
1659432350.91332,9067
1659432350.946636,9077
1659432350.979953,9114
1659432351.024718,9171
1659432351.069482,9213
1659432351.114246,9253
1659432351.147563,9293
1659432351.18088,9353
1659432351.225302,9403
1659432351.269725,9466
1659432351.314147,9547
1659432351.35276,9624
1659432351.391374,9627
1659432351.429987,9437
1659432351.47048,9222
1659432351.510973,9155
1659432351.549586,9191
1659432351.5882,9255
1659432351.626813,9333
1659432351.669356,9402
1659432351.711899,9439
1659432351.750171,9484
1659432351.788442,9547
1659432351.826714,9614
1659432351.865669,9684
1659432351.904624,9749
1659432351.943579,9819
1659432351.985097,9877
1659432352.026615,9947
1659432352.066254,10026
1659432352.105892,10096
1659432352.145531,10149
1659432352.186536,10211
1659432352.227541,10218
1659432352.266497,10050
1659432352.305452,9860
1659432352.344407,9795
1659432352.385925,9831
1659432352.427443,9903
1659432352.466056,9972
1659432352.504669,10013
1659432352.543283,10018
1659432352.584288,10027
1659432352.625293,10070
1659432352.669716,10136
1659432352.714139,10206
1659432352.758561,10274
1659432352.797174,10345
1659432352.835788,10398
1659432352.874401,10457
1659432352.916432,10491
1659432352.958462,10535
1659432352.998101,10587
1659432353.037739,10597
1659432353.077378,10434
1659432353.118896,10271
1659432353.160414,10235
1659432353.199369,10272
1659432353.238324,10346
1659432353.277279,10414
1659432353.316917,10432
1659432353.356556,10410
1659432353.396194,10373
1659432353.437712,10363
1659432353.47923,10381
1659432353.517844,10427
1659432353.556457,10481
1659432353.59507,10534
1659432353.637101,10585
1659432353.679132,10630
1659432353.717062,10679
1659432353.754991,10708
1659432353.792921,10723
1659432353.831535,10555
1659432353.870148,10306
1659432353.908762,10136
1659432353.950792,10109
1659432353.992822,10140
1659432354.030752,10168
1659432354.068682,10202
1659432354.106612,10167
1659432354.151035,10106
1659432354.195457,10048
1659432354.23988,10034
1659432354.28191,10081
1659432354.323941,10121
1659432354.362554,10158
1659432354.401168,10193
1659432354.439781,10211
1659432354.478736,10227
1659432354.517691,10265
1659432354.556646,10297
1659432354.599189,10330
1659432354.641732,10203
1659432354.679662,9938
1659432354.717592,9756
1659432354.755522,9692
1659432354.796528,9675
1659432354.837533,9677
1659432354.876146,9705
1659432354.91476,9715
1659432354.953373,9716
1659432354.992328,9717
1659432355.031283,9753
1659432355.070239,9793
1659432355.111244,9850
1659432355.152249,9904
1659432355.191546,9958
1659432355.230843,10005
1659432355.27014,10053
1659432355.311145,10109
1659432355.35215,10153
1659432355.391105,10205
1659432355.430061,10235
1659432355.469016,10115
1659432355.511046,9879
1659432355.553077,9738
1659432355.597499,9689
1659432355.641922,9668
1659432355.686344,9663
1659432355.718636,9670
1659432355.750927,9664
1659432355.795692,9628
1659432355.840456,9596
1659432355.88522,9613
1659432355.924517,9661
1659432355.963814,9712
1659432356.003111,9755
1659432356.044116,9815
1659432356.085121,9859
1659432356.124076,9912
1659432356.163032,9951
1659432356.201987,9985
1659432356.240942,10036
1659432356.279897,10085
1659432356.318852,10125
1659432356.360882,10040
1659432356.402913,9780
1659432356.44221,9545
1659432356.481507,9454
1659432356.520803,9398
1659432356.562321,9387
1659432356.603839,9400
1659432356.642452,9389
1659432356.681066,9360
1659432356.719679,9359
1659432356.758293,9370
1659432356.796906,9398
1659432356.83552,9465
1659432356.87755,9519
1659432356.91958,9571
1659432356.960586,9636
1659432357.001591,9699
1659432357.040205,9768
1659432357.078818,9822
1659432357.117431,9875
1659432357.161854,9925
1659432357.206276,9993
1659432357.250699,10038
1659432357.284528,9928
1659432357.318358,9705
1659432357.362097,9527
1659432357.405836,9470
1659432357.449575,9463
1659432357.483404,9487
1659432357.517234,9519
1659432357.561314,9530
1659432357.605395,9526
1659432357.649476,9542
1659432357.688431,9598
1659432357.727386,9651
1659432357.766341,9727
1659432357.807859,9782
1659432357.849377,9846
1659432357.888674,9897
1659432357.927971,9933
1659432357.967268,9975
1659432358.005198,10022
1659432358.043128,10085
1659432358.081058,10154
1659432358.122063,10233
1659432358.163068,10274
1659432358.201682,10178
1659432358.240295,9995
1659432358.278908,9887
1659432358.317522,9863
1659432358.356135,9877
1659432358.394748,9930
1659432358.436779,9969
1659432358.47881,9978
1659432358.52084,9984
1659432358.562871,10011
1659432358.601142,10042
1659432358.639414,10082
1659432358.677685,10124
1659432358.720741,10168
1659432358.763797,10215
1659432358.802752,10264
1659432358.841707,10328
1659432358.880662,10388
1659432358.925426,10446
1659432358.970191,10494
1659432359.014955,10532
1659432359.047759,10577
1659432359.080563,10501
1659432359.125327,10264
1659432359.170092,10056
1659432359.214856,9970
1659432359.253469,9963
1659432359.292083,10026
1659432359.330696,10069
1659432359.372214,10086
1659432359.413732,10063
1659432359.452687,10055
1659432359.491642,10058
1659432359.530597,10092
1659432359.569211,10143
1659432359.607824,10188
1659432359.646437,10238
1659432359.68898,10281
1659432359.731524,10333
1659432359.770478,10364
1659432359.809434,10401
1659432359.848389,10458
1659432359.889394,10508
1659432359.930399,10559
1659432359.969355,10550
1659432360.00831,10376
1659432360.047265,10200
1659432360.089808,10139
1659432360.132351,10128
1659432360.170623,10154
1659432360.208894,10180
1659432360.247166,10174
1659432360.288171,10158
1659432360.329177,10162
1659432360.368132,10211
1659432360.407087,10289
1659432360.446042,10370
1659432360.489781,10391
1659432360.53352,10411
1659432360.577259,10422
1659432360.61929,10465
1659432360.66132,10497
1659432360.699934,10549
1659432360.738547,10597
1659432360.77716,10641
1659432360.818678,10685
1659432360.860196,10648
1659432360.898809,10479
1659432360.937423,10319
1659432360.976036,10272
1659432361.015333,10307
1659432361.05463,10367
1659432361.093927,10418
1659432361.135445,10471
1659432361.176963,10472
1659432361.215576,10494
1659432361.254189,10537
1659432361.292803,10582
1659432361.334321,10634
1659432361.375839,10677
1659432361.41411,10714
1659432361.452382,10743
1659432361.490654,10781
1659432361.529267,10808
1659432361.56788,10825
1659432361.606494,10866
1659432361.648524,10902
1659432361.690555,10937
1659432361.72951,10883
1659432361.768465,10739
1659432361.80742,10676
1659432361.848938,10706
1659432361.890456,10738
1659432361.929069,10751
1659432361.967683,10754
1659432362.006296,10743
1659432362.049352,10734
1659432362.092407,10720
1659432362.136488,10732
1659432362.180569,10766
1659432362.22465,10796
1659432362.257967,10827
1659432362.291283,10870
1659432362.335706,10921
1659432362.380128,10975
1659432362.424551,11039
1659432362.463164,11078
1659432362.501778,11133
1659432362.540391,11190
1659432362.582422,11213
1659432362.624452,11124
1659432362.663407,10960
1659432362.702362,10917
1659432362.741317,10922
1659432362.779931,10942
1659432362.818544,10966
1659432362.857157,10965
1659432362.898675,10935
1659432362.940193,10901
1659432362.979832,10901
1659432363.01947,10934
1659432363.059109,10985
1659432363.097722,11035
1659432363.136336,11094
1659432363.174949,11139
1659432363.215954,11187
1659432363.25696,11237
1659432363.296598,11275
1659432363.336237,11324
1659432363.375875,11341
1659432363.417393,11237
1659432363.458911,11057
1659432363.503334,10966
1659432363.547756,10955
1659432363.592179,10955
1659432363.624983,10966
1659432363.657787,10980
1659432363.701868,10981
1659432363.745949,10954
1659432363.79003,10960
1659432363.822834,10997
1659432363.855638,11028
1659432363.900061,11072
1659432363.944483,11099
1659432363.988905,11148
1659432364.027519,11179
1659432364.066132,11226
1659432364.104746,11254
1659432364.145751,11281
1659432364.186756,11327
1659432364.225712,11317
1659432364.264667,11155
1659432364.303622,10969
1659432364.342577,10879
1659432364.381532,10832
1659432364.420487,10808
1659432364.462005,10809
1659432364.503523,10809
1659432364.54282,10806
1659432364.582116,10780
1659432364.621413,10787
1659432364.662419,10797
1659432364.703424,10832
1659432364.741696,10869
1659432364.779967,10926
1659432364.818239,10967
1659432364.857194,11010
1659432364.896149,11050
1659432364.935104,11081
1659432364.977647,11120
1659432365.02019,11151
1659432365.060683,11169
1659432365.101176,11080
1659432365.140473,10880
1659432365.17977,10756
1659432365.219066,10695
1659432365.263831,10663
1659432365.308595,10635
1659432365.353359,10648
1659432365.387188,10624
1659432365.421018,10616
1659432365.46544,10611
1659432365.509863,10623
1659432365.554285,10646
1659432365.58709,10688
1659432365.619894,10719
1659432365.663975,10758
1659432365.708055,10798
1659432365.752136,10834
1659432365.79075,10872
1659432365.829363,10898
1659432365.867976,10941
1659432365.910519,10980
1659432365.953063,11011
1659432365.991676,10904
1659432366.030289,10720
1659432366.068903,10594
1659432366.107516,10546
1659432366.146129,10515
1659432366.184743,10501
1659432366.226773,10516
1659432366.268804,10522
1659432366.308101,10499
1659432366.347397,10485
1659432366.386694,10500
1659432366.428212,10532
1659432366.46973,10566
1659432366.508685,10596
1659432366.54764,10641
1659432366.586595,10669
1659432366.628626,10715
1659432366.670656,10745
1659432366.709611,10778
1659432366.748567,10822
1659432366.787522,10862
1659432366.82904,10901
1659432366.870558,10817
1659432366.909513,10628
1659432366.948468,10466
1659432366.987423,10390
1659432367.027916,10327
1659432367.068408,10296
1659432367.112148,10295
1659432367.155887,10294
1659432367.199626,10279
1659432367.238581,10261
1659432367.277536,10274
1659432367.316491,10305
1659432367.357496,10352
1659432367.398502,10396
1659432367.437457,10454
1659432367.476412,10495
1659432367.515367,10544
1659432367.554664,10598
1659432367.593961,10640
1659432367.633257,10689
1659432367.675288,10740
1659432367.717318,10791
1659432367.755932,10814
1659432367.794545,10708
1659432367.833158,10520
1659432367.875702,10417
1659432367.918245,10373
1659432367.956516,10368
1659432367.994788,10362
1659432368.03306,10380
1659432368.071673,10382
1659432368.110286,10369
1659432368.1489,10380
1659432368.191956,10403
1659432368.235011,10449
1659432368.273283,10484
1659432368.311554,10525
1659432368.349826,10569
1659432368.390319,10611
1659432368.430812,10652
1659432368.47045,10689
1659432368.510089,10736
1659432368.549727,10775
1659432368.591758,10829
1659432368.633788,10866
1659432368.678211,10862
1659432368.722633,10690
1659432368.767056,10499
1659432368.800373,10399
1659432368.833689,10360
1659432368.878454,10345
1659432368.923218,10333
1659432368.967982,10340
1659432369.005912,10309
1659432369.043842,10282
1659432369.081772,10287
1659432369.124828,10292
1659432369.167883,10322
1659432369.206496,10372
1659432369.24511,10415
1659432369.283723,10443
1659432369.324216,10488
1659432369.364709,10540
1659432369.403664,10592
1659432369.442619,10649
1659432369.481574,10693
1659432369.521554,10727
1659432369.561535,10779
1659432369.601515,10833
1659432369.641495,10758
1659432369.681475,10560
1659432369.723762,10422
1659432369.766049,10368
1659432369.808336,10357
1659432369.850622,10332
1659432369.882914,10345
1659432369.915206,10338
1659432369.959287,10333
1659432370.003367,10352
1659432370.047448,10380
1659432370.088966,10428
1659432370.130484,10478
1659432370.169781,10530
1659432370.209078,10581
1659432370.248374,10636
1659432370.286646,10675
1659432370.324918,10717
1659432370.363189,10760
1659432370.404707,10802
1659432370.446225,10843
1659432370.484839,10889
1659432370.523452,10836
1659432370.562066,10628
1659432370.600337,10433
1659432370.638609,10341
1659432370.676881,10314
1659432370.718911,10311
1659432370.760942,10332
1659432370.799897,10330
1659432370.838852,10322
1659432370.877807,10308
1659432370.919325,10340
1659432370.960843,10374
1659432370.999798,10419
1659432371.038753,10488
1659432371.077708,10539
1659432371.119739,10586
1659432371.161769,10637
1659432371.201066,10678
1659432371.240363,10718
1659432371.27966,10772
1659432371.320152,10806
1659432371.360645,10848
1659432371.405067,10835
1659432371.44949,10606
1659432371.493912,10363
1659432371.532184,10210
1659432371.570456,10142
1659432371.608727,10089
1659432371.650758,10088
1659432371.692789,10092
1659432371.731744,10078
1659432371.770699,10061
1659432371.809654,10067
1659432371.848609,10102
1659432371.887564,10157
1659432371.926519,10207
1659432371.968037,10261
1659432372.009555,10310
1659432372.048852,10363
1659432372.088149,10422
1659432372.127445,10466
1659432372.169476,10527
1659432372.211506,10578
1659432372.250462,10622
1659432372.289417,10651
1659432372.328372,10544
1659432372.367327,10320
1659432372.406282,10172
1659432372.445237,10125
1659432372.486242,10096
1659432372.527248,10101
1659432372.565861,10095
1659432372.604475,10078
1659432372.643088,10037
1659432372.684606,10023
1659432372.726124,10041
1659432372.764737,10077
1659432372.80335,10127
1659432372.841964,10171
1659432372.882969,10222
1659432372.923975,10262
1659432372.968397,10312
1659432373.01282,10366
1659432373.057242,10416
1659432373.091072,10473
1659432373.124901,10534
1659432373.168982,10567
1659432373.213063,10452
1659432373.257143,10286
1659432373.295757,10185
1659432373.33437,10166
1659432373.372983,10170
1659432373.414501,10184
1659432373.456019,10191
1659432373.494974,10180
1659432373.533929,10141
1659432373.572885,10118
1659432373.611498,10139
1659432373.650111,10166
1659432373.688725,10205
1659432373.730243,10244
1659432373.77176,10283
1659432373.80969,10333
1659432373.84762,10389
1659432373.88555,10443
1659432373.927581,10509
1659432373.969611,10566
1659432374.008567,10619
1659432374.047522,10665
1659432374.086477,10553
1659432374.127738,10318
1659432374.169,10152
1659432374.210262,10093
1659432374.251523,10050
1659432374.294579,10041
1659432374.337635,10038
1659432374.37659,10000
1659432374.415545,9954
1659432374.4545,9918
1659432374.493455,9898
1659432374.53241,9916
1659432374.571365,9957
1659432374.61237,9991
1659432374.653376,10042
1659432374.692673,10087
1659432374.73197,10131
1659432374.771266,10200
1659432374.809538,10252
1659432374.84781,10322
1659432374.886081,10362
1659432374.927599,10389
1659432374.969117,10254
1659432375.010635,9982
1659432375.052153,9800
1659432375.09145,9723
1659432375.130747,9691
1659432375.170043,9684
1659432375.211561,9715
1659432375.253079,9708
1659432375.292376,9698
1659432375.331673,9701
1659432375.37097,9715
1659432375.415392,9749
1659432375.459815,9799
1659432375.504237,9859
1659432375.538067,9899
1659432375.571896,9965
1659432375.617002,10007
1659432375.662108,10056
1659432375.707214,10112
1659432375.747707,10175
1659432375.788199,10241
1659432375.826471,10295
1659432375.864743,10222
1659432375.903014,9990
1659432375.94197,9795
1659432375.980925,9719
1659432376.01988,9723
1659432376.061398,9715
1659432376.102916,9722
1659432376.141529,9707
1659432376.180142,9669
1659432376.218756,9649
1659432376.257369,9669
1659432376.295983,9694
1659432376.334596,9739
1659432376.37637,9815
1659432376.418144,9883
1659432376.459918,9956
1659432376.501693,10026
1659432376.543211,10094
1659432376.584729,10162
1659432376.623684,10234
1659432376.662639,10306
1659432376.701594,10354
1659432376.740549,10267
1659432376.779504,10093
1659432376.818459,10012
1659432376.86049,9994
1659432376.90252,10015
1659432376.941475,10052
1659432376.98043,10093
1659432377.019386,10107
1659432377.060391,10111
1659432377.101396,10129
1659432377.139668,10158
1659432377.17794,10213
1659432377.216211,10259
1659432377.258242,10310
1659432377.300272,10364
1659432377.338886,10417
1659432377.377499,10469
1659432377.416112,10515
1659432377.457118,10543
1659432377.498123,10573
1659432377.53742,10613
1659432377.576717,10486
1659432377.616014,10248
1659432377.660778,10047
1659432377.705542,9866
