LocalTimestamp,PG
1659429514.141474,13168
1659429514.141474,12942
1659429514.172555,12967
1659429514.203637,12982
1659429514.234719,12985
1659429514.274339,12984
1659429514.31396,12987
1659429514.35358,13003
1659429514.397641,13027
1659429514.441702,13052
1659429514.485763,13080
1659429514.527774,13117
1659429514.569786,13148
1659429514.608723,13087
1659429514.64766,12907
1659429514.686598,12768
1659429514.727072,12718
1659429514.767547,12714
1659429514.807167,12720
1659429514.846788,12744
1659429514.886408,12759
1659429514.925346,12771
1659429514.964283,12790
1659429515.003221,12846
1659429515.043695,12884
1659429515.08417,12911
1659429515.123107,12948
1659429515.162044,12989
1659429515.200982,13036
1659429515.243506,13080
1659429515.286029,13063
1659429515.324625,12873
1659429515.363221,12711
1659429515.401817,12632
1659429515.441096,12582
1659429515.480375,12580
1659429515.519654,12588
1659429515.561665,12620
1659429515.603677,12628
1659429515.641931,12634
1659429515.680186,12657
1659429515.71844,12685
1659429515.760451,12733
1659429515.802463,12763
1659429515.841742,12797
1659429515.881021,12821
1659429515.9203,12865
1659429515.964019,12901
1659429516.007738,12837
1659429516.051457,12651
1659429516.092444,12519
1659429516.133431,12466
1659429516.172368,12456
1659429516.211306,12476
1659429516.250243,12507
1659429516.291742,12534
1659429516.333241,12554
1659429516.371837,12561
1659429516.410433,12592
1659429516.449029,12639
1659429516.488649,12668
1659429516.52827,12708
1659429516.56789,12734
1659429516.608877,12787
1659429516.649864,12823
1659429516.688802,12866
1659429516.727739,12867
1659429516.766676,12721
1659429516.805955,12559
1659429516.845234,12479
1659429516.884513,12460
1659429516.924988,12474
1659429516.965462,12512
1659429517.003716,12557
1659429517.041971,12573
1659429517.080225,12584
1659429517.121724,12618
1659429517.163223,12665
1659429517.202161,12709
1659429517.241098,12762
1659429517.280035,12794
1659429517.324438,12835
1659429517.36884,12876
1659429517.413243,12915
1659429517.454742,12944
1659429517.496241,12945
1659429517.534837,12824
1659429517.573432,12638
1659429517.612028,12563
1659429517.653015,12534
1659429517.694002,12546
1659429517.733964,12568
1659429517.773926,12591
1659429517.813888,12606
1659429517.852484,12601
1659429517.89108,12633
1659429517.929676,12656
1659429517.971687,12698
1659429518.013699,12725
1659429518.052636,12758
1659429518.091573,12797
1659429518.130511,12821
1659429518.172523,12850
1659429518.214534,12888
1659429518.252788,12870
1659429518.291043,12703
1659429518.329297,12535
1659429518.368234,12450
1659429518.407172,12435
1659429518.446109,12435
1659429518.487096,12472
1659429518.528083,12497
1659429518.56702,12519
1659429518.605958,12531
1659429518.644895,12563
1659429518.686906,12593
1659429518.728918,12638
1659429518.768538,12679
1659429518.808159,12710
1659429518.84778,12744
1659429518.888766,12779
1659429518.929753,12821
1659429518.974497,12859
1659429519.019241,12864
1659429519.063985,12722
1659429519.097799,12529
1659429519.131613,12435
1659429519.175673,12415
1659429519.219734,12414
1659429519.263795,12437
1659429519.302391,12467
1659429519.340987,12493
1659429519.379583,12501
1659429519.421082,12535
1659429519.462581,12569
1659429519.499725,12613
1659429519.53687,12650
1659429519.574014,12682
1659429519.611158,12731
1659429519.652657,12759
1659429519.694156,12807
1659429519.733777,12852
1659429519.773397,12860
1659429519.813018,12749
1659429519.856737,12574
1659429519.900456,12469
1659429519.944175,12443
1659429519.976965,12466
1659429520.009754,12507
1659429520.054498,12537
1659429520.099242,12566
1659429520.143986,12585
1659429520.182582,12601
1659429520.221178,12647
1659429520.259773,12684
1659429520.301785,12731
1659429520.343796,12787
1659429520.382734,12823
1659429520.421671,12864
1659429520.460609,12906
1659429520.501595,12959
1659429520.542582,12957
1659429520.580837,12822
1659429520.619091,12672
1659429520.657345,12600
1659429520.696624,12604
1659429520.735903,12624
1659429520.775182,12652
1659429520.816681,12691
1659429520.85818,12692
1659429520.897118,12710
1659429520.936055,12744
1659429520.974993,12779
1659429521.017516,12816
1659429521.06004,12855
1659429521.098636,12879
1659429521.137232,12902
1659429521.175828,12927
1659429521.217327,12950
1659429521.258826,12896
1659429521.298447,12729
1659429521.338067,12614
1659429521.377688,12591
1659429521.418674,12609
1659429521.459661,12637
1659429521.498257,12667
1659429521.536853,12674
1659429521.575449,12672
1659429521.619851,12689
1659429521.664253,12714
1659429521.708656,12739
1659429521.74247,12778
1659429521.776284,12814
1659429521.820003,12841
1659429521.863722,12872
1659429521.907442,12881
1659429521.949965,12771
1659429521.992489,12558
1659429522.031427,12410
1659429522.070364,12361
1659429522.109301,12348
1659429522.147897,12340
1659429522.186493,12363
1659429522.225089,12388
1659429522.267613,12392
1659429522.310137,12404
1659429522.349074,12432
1659429522.388011,12472
1659429522.426949,12497
1659429522.467423,12543
1659429522.507898,12573
1659429522.546835,12638
1659429522.585773,12670
1659429522.62471,12562
1659429522.663647,12350
1659429522.702585,12209
1659429522.741522,12148
1659429522.782509,12121
1659429522.823496,12121
1659429522.86175,12159
1659429522.900004,12186
1659429522.938259,12212
1659429522.98027,12220
1659429523.022282,12262
1659429523.061219,12293
1659429523.100157,12319
1659429523.139094,12363
1659429523.180593,12399
1659429523.222092,12446
1659429523.261029,12477
1659429523.299967,12508
1659429523.338904,12400
1659429523.383307,12206
1659429523.427709,12083
1659429523.472111,12035
1659429523.513611,12033
1659429523.55511,12041
1659429523.59473,12081
1659429523.634351,12104
1659429523.673971,12119
1659429523.714446,12141
1659429523.75492,12179
1659429523.793516,12230
1659429523.832112,12267
1659429523.870708,12310
1659429523.909304,12337
1659429523.9479,12383
1659429523.986495,12421
1659429524.029019,12459
1659429524.071543,12475
1659429524.109797,12343
1659429524.148052,12161
1659429524.186306,12052
1659429524.228317,12028
1659429524.270329,12021
1659429524.309608,12047
1659429524.348887,12095
1659429524.388166,12105
1659429524.426762,12109
1659429524.465357,12143
1659429524.503953,12186
1659429524.545965,12227
1659429524.587976,12268
1659429524.627597,12301
1659429524.667217,12344
1659429524.706838,12393
1659429524.748081,12428
1659429524.789324,12483
1659429524.830567,12514
1659429524.871809,12419
1659429524.913309,12247
1659429524.954808,12145
1659429524.993404,12130
1659429525.031999,12126
1659429525.070595,12162
1659429525.10885,12210
1659429525.147104,12240
1659429525.185358,12255
1659429525.228394,12283
1659429525.27143,12332
1659429525.310026,12367
1659429525.348622,12410
1659429525.387218,12448
1659429525.428205,12497
1659429525.469192,12533
1659429525.508812,12587
1659429525.548433,12635
1659429525.588053,12648
1659429525.629552,12560
1659429525.671052,12399
1659429525.715112,12332
1659429525.759173,12331
1659429525.803234,12347
1659429525.836023,12384
1659429525.868813,12401
1659429525.913215,12415
1659429525.957617,12431
1659429526.00202,12475
1659429526.039932,12507
1659429526.077845,12536
1659429526.115758,12583
1659429526.157769,12613
1659429526.199781,12649
1659429526.238718,12681
1659429526.277656,12718
1659429526.316593,12728
1659429526.35758,12604
1659429526.398566,12424
1659429526.437504,12336
1659429526.476441,12324
1659429526.515379,12316
1659429526.554316,12341
1659429526.593254,12377
1659429526.632191,12398
1659429526.67369,12405
1659429526.715189,12443
1659429526.754468,12482
1659429526.793747,12530
1659429526.833026,12580
1659429526.874013,12615
1659429526.915,12665
1659429526.953254,12688
1659429526.991508,12722
1659429527.029763,12758
1659429527.072287,12686
1659429527.11481,12483
1659429527.153406,12329
1659429527.192002,12270
1659429527.230598,12241
1659429527.271072,12249
1659429527.311547,12278
1659429527.350143,12310
1659429527.388739,12320
1659429527.427335,12334
1659429527.47242,12366
1659429527.517505,12409
1659429527.562591,12447
1659429527.595892,12489
1659429527.629194,12536
1659429527.673938,12569
1659429527.718682,12602
1659429527.763426,12650
1659429527.805437,12678
1659429527.847449,12623
1659429527.886045,12434
1659429527.924641,12295
1659429527.963236,12233
1659429528.001832,12224
1659429528.040428,12233
1659429528.079024,12269
1659429528.121548,12300
1659429528.164072,12308
1659429528.202326,12332
1659429528.24058,12360
1659429528.278835,12391
1659429528.319821,12431
1659429528.360808,12472
1659429528.399745,12519
1659429528.438683,12554
1659429528.47762,12603
1659429528.516899,12644
1659429528.556178,12692
1659429528.595457,12677
1659429528.636444,12539
1659429528.677431,12384
1659429528.716368,12302
1659429528.755306,12280
1659429528.794243,12287
1659429528.835742,12315
1659429528.877241,12357
1659429528.91652,12371
1659429528.955799,12376
1659429528.995078,12403
1659429529.036577,12445
1659429529.078076,12493
1659429529.116672,12527
1659429529.155268,12572
1659429529.193864,12603
1659429529.237583,12642
1659429529.281302,12683
1659429529.325022,12720
1659429529.366009,12733
1659429529.406995,12642
1659429529.446274,12481
1659429529.485553,12392
1659429529.524832,12380
1659429529.565819,12376
1659429529.606806,12398
1659429529.645743,12438
1659429529.684681,12454
1659429529.723618,12469
1659429529.762897,12488
1659429529.802176,12520
1659429529.841455,12557
1659429529.883466,12607
1659429529.925478,12646
1659429529.964074,12674
1659429530.00267,12712
1659429530.041265,12752
1659429530.080886,12789
1659429530.120507,12798
1659429530.160127,12694
1659429530.203846,12538
1659429530.247566,12461
1659429530.291285,12442
1659429530.323562,12457
1659429530.355839,12491
1659429530.400924,12512
1659429530.44601,12537
1659429530.491095,12548
1659429530.524397,12569
1659429530.557699,12598
1659429530.601759,12646
1659429530.64582,12686
1659429530.689881,12712
1659429530.72916,12753
1659429530.768439,12784
1659429530.807718,12832
1659429530.848705,12862
1659429530.889692,12859
1659429530.928288,12754
1659429530.966883,12602
1659429531.005479,12542
1659429531.048515,12540
1659429531.091551,12557
1659429531.130489,12592
1659429531.169426,12660
1659429531.208364,12680
1659429531.247301,12717
1659429531.286239,12763
1659429531.325176,12799
1659429531.366675,12843
1659429531.408174,12874
1659429531.447112,12882
1659429531.486049,12909
1659429531.524987,12970
1659429531.565461,13041
1659429531.605935,13069
1659429531.644873,12985
1659429531.68381,12831
1659429531.722748,12732
1659429531.763734,12708
1659429531.804721,12715
1659429531.846562,12744
1659429531.888402,12804
1659429531.930243,12812
1659429531.972084,12824
1659429532.013924,12843
1659429532.055765,12868
1659429532.088555,12913
1659429532.121344,12950
1659429532.165405,12992
1659429532.209466,13045
1659429532.253526,13080
1659429532.295538,13121
1659429532.337549,13114
1659429532.376828,12961
1659429532.416107,12794
1659429532.455386,12732
1659429532.49364,12709
1659429532.531895,12714
1659429532.570149,12720
1659429532.611648,12707
1659429532.653147,12695
1659429532.691743,12686
1659429532.730339,12705
1659429532.768935,12749
1659429532.807189,12816
1659429532.845443,12850
1659429532.883698,12877
1659429532.926222,12913
1659429532.968745,12947
1659429533.007683,12909
1659429533.04662,12770
1659429533.085558,12660
1659429533.127057,12624
1659429533.168556,12607
1659429533.207493,12616
1659429533.246431,12635
1659429533.285368,12664
1659429533.327892,12710
1659429533.370416,12752
1659429533.409695,12796
1659429533.448974,12827
1659429533.488253,12861
1659429533.528727,12912
1659429533.569201,12969
1659429533.608139,13025
1659429533.647076,13038
1659429533.686014,12906
1659429533.728538,12785
1659429533.771061,12762
1659429533.815122,12781
1659429533.859183,12829
1659429533.903244,12877
1659429533.942181,12905
1659429533.981118,12925
1659429534.020056,12950
1659429534.061043,12975
1659429534.10203,13005
1659429534.140967,13029
1659429534.179904,13060
1659429534.218842,13100
1659429534.261365,13105
1659429534.303889,12987
1659429534.342827,12851
1659429534.381764,12775
1659429534.420702,12773
1659429534.459297,12806
1659429534.497893,12837
1659429534.536489,12848
1659429534.577988,12861
1659429534.619487,12873
1659429534.658425,12882
1659429534.697362,12922
1659429534.7363,12945
1659429534.777799,12972
1659429534.819298,13015
1659429534.857552,12989
1659429534.895807,12815
1659429534.934061,12625
1659429534.972998,12531
1659429535.011936,12502
1659429535.050873,12522
1659429535.091347,12555
1659429535.131822,12590
1659429535.176224,12591
1659429535.220627,12595
1659429535.265029,12601
1659429535.302685,12612
1659429535.340342,12622
1659429535.377999,12639
1659429535.415655,12674
1659429535.457155,12649
1659429535.498654,12466
1659429535.538274,12270
1659429535.577895,12163
1659429535.617515,12117
1659429535.659014,12098
1659429535.700513,12104
1659429535.738426,12129
1659429535.776339,12161
1659429535.814252,12164
1659429535.853189,12183
1659429535.892127,12216
1659429535.931064,12249
1659429535.973075,12304
1659429536.015087,12346
1659429536.055561,12385
1659429536.096036,12368
1659429536.134632,12176
1659429536.173227,11959
1659429536.211823,11829
1659429536.256909,11784
1659429536.301994,11770
1659429536.34708,11819
1659429536.379869,11859
1659429536.412658,11890
1659429536.454926,11910
1659429536.497194,11937
1659429536.539461,11971
1659429536.581729,12004
1659429536.620666,12044
1659429536.659604,12085
1659429536.698541,12126
1659429536.74004,12170
1659429536.781539,12127
1659429536.820477,11952
1659429536.859414,11787
1659429536.898352,11709
1659429536.940875,11698
1659429536.983399,11732
1659429537.021653,11787
1659429537.059908,11839
1659429537.098162,11863
1659429537.139661,11892
1659429537.18116,11922
1659429537.219415,11966
1659429537.257669,12022
1659429537.295923,12065
1659429537.337935,12108
1659429537.379946,12152
1659429537.424007,12194
1659429537.468068,12242
1659429537.512128,12249
1659429537.551066,12134
1659429537.590003,11910
1659429537.628941,11774
1659429537.669928,11712
1659429537.710914,11692
1659429537.749852,11723
1659429537.788789,11786
1659429537.827727,11826
1659429537.869738,11851
1659429537.911749,11884
1659429537.950345,11927
1659429537.988941,11980
1659429538.027537,12021
1659429538.066133,12072
1659429538.104729,12128
1659429538.143325,12158
1659429538.184824,12199
1659429538.226323,12239
1659429538.264577,12287
1659429538.302831,12220
1659429538.341086,12033
1659429538.379682,11892
1659429538.418278,11835
1659429538.456873,11820
1659429538.498373,11828
1659429538.539872,11874
1659429538.579151,11920
1659429538.61843,11935
1659429538.657709,11965
1659429538.698695,12002
1659429538.739682,12052
1659429538.781437,12101
1659429538.823193,12153
1659429538.864948,12203
1659429538.906703,12237
1659429538.945641,12278
1659429538.984578,12323
1659429539.023515,12379
1659429539.065015,12393
1659429539.106514,12267
1659429539.145793,12077
1659429539.185072,11981
1659429539.224351,11939
1659429539.265337,11926
1659429539.306324,11972
1659429539.344579,12015
1659429539.382833,12051
1659429539.421087,12074
1659429539.460366,12101
1659429539.499645,12149
1659429539.538924,12184
1659429539.580935,12230
1659429539.622947,12281
1659429539.664446,12324
1659429539.705945,12371
1659429539.745224,12401
1659429539.784503,12446
1659429539.823782,12493
1659429539.868185,12542
1659429539.912587,12494
1659429539.956989,12336
1659429539.990291,12193
1659429540.023593,12123
1659429540.068678,12110
1659429540.113764,12128
1659429540.158849,12172
1659429540.191638,12218
1659429540.224428,12260
1659429540.268147,12277
1659429540.311866,12316
1659429540.355585,12359
1659429540.394523,12414
1659429540.43346,12464
1659429540.472398,12514
1659429540.514409,12555
1659429540.556421,12607
1659429540.594333,12649
1659429540.632246,12693
1659429540.670159,12732
1659429540.709096,12787
1659429540.748034,12792
1659429540.786971,12690
1659429540.828983,12529
1659429540.870994,12448
1659429540.909248,12431
1659429540.947503,12440
1659429540.985757,12485
1659429541.028025,12538
1659429541.070292,12581
1659429541.11256,12602
1659429541.154827,12639
1659429541.193082,12673
1659429541.231336,12727
1659429541.26959,12777
1659429541.308186,12827
1659429541.346782,12871
1659429541.385378,12922
1659429541.427389,12965
1659429541.469401,13003
1659429541.507655,13065
1659429541.545909,13104
1659429541.584164,13147
1659429541.62515,13149
1659429541.666137,13017
1659429541.705075,12888
1659429541.744012,12836
1659429541.78295,12837
1659429541.824449,12850
1659429541.865948,12895
1659429541.910009,12940
1659429541.954069,12963
1659429541.99813,12998
1659429542.031944,13029
1659429542.065758,13070
1659429542.110502,13107
1659429542.155246,13146
1659429542.19999,13185
1659429542.238927,13234
1659429542.277865,13266
1659429542.316802,13296
1659429542.359326,13347
1659429542.40185,13384
1659429542.440446,13420
1659429542.479042,13449
1659429542.517637,13375
1659429542.558624,13243
1659429542.599611,13148
1659429542.638548,13119
1659429542.677486,13123
1659429542.716423,13157
1659429542.755702,13192
1659429542.794981,13216
1659429542.83426,13242
1659429542.875247,13253
1659429542.916234,13293
1659429542.955513,13336
1659429542.994792,13372
1659429543.034071,13430
1659429543.07557,13455
1659429543.117069,13485
1659429543.156348,13521
1659429543.195627,13576
1659429543.234906,13605
1659429543.273843,13639
1659429543.312781,13669
1659429543.351718,13589
1659429543.396462,13462
1659429543.441206,13374
1659429543.48595,13358
1659429543.526937,13381
1659429543.567923,13410
1659429543.606519,13435
1659429543.645115,13450
1659429543.683711,13456
1659429543.722648,13462
1659429543.761586,13498
1659429543.800523,13503
1659429543.842022,13526
1659429543.883521,13560
1659429543.922117,13584
1659429543.960713,13612
1659429543.999309,13638
1659429544.038246,13662
1659429544.077184,13689
1659429544.116121,13656
1659429544.157108,13527
1659429544.198095,13417
1659429544.236691,13383
1659429544.275287,13385
1659429544.313882,13405
1659429544.356406,13438
1659429544.39893,13437
1659429544.437526,13442
1659429544.476122,13465
1659429544.514718,13474
1659429544.555704,13485
1659429544.596691,13523
1659429544.63597,13543
1659429544.675249,13572
1659429544.714528,13591
1659429544.756027,13594
1659429544.797526,13632
1659429544.841245,13645
1659429544.884965,13600
1659429544.928684,13453
1659429544.967963,13309
1659429545.007242,13242
1659429545.046521,13203
1659429545.087508,13192
1659429545.128495,13189
1659429545.16709,13200
1659429545.205686,13196
1659429545.244282,13181
1659429545.286806,13193
1659429545.32933,13201
1659429545.368609,13215
1659429545.407888,13240
1659429545.447167,13254
1659429545.485421,13278
1659429545.523675,13295
1659429545.561929,13303
1659429545.60155,13237
1659429545.641171,13085
1659429545.680791,12955
1659429545.724852,12880
1659429545.768913,12858
1659429545.812973,12852
1659429545.851569,12871
1659429545.890165,12890
1659429545.928761,12897
1659429545.971797,12889
1659429546.014833,12908
1659429546.053088,12926
1659429546.091342,12949
1659429546.129596,12972
1659429546.168192,13002
1659429546.206788,13030
1659429546.245384,13051
1659429546.287395,13079
1659429546.329407,13030
1659429546.368003,12881
1659429546.406599,12751
1659429546.445194,12692
1659429546.484473,12678
1659429546.523752,12683
1659429546.563031,12701
1659429546.605043,12720
1659429546.647054,12729
1659429546.68565,12737
1659429546.724246,12759
1659429546.762842,12785
1659429546.804341,12813
1659429546.84584,12850
1659429546.885461,12873
1659429546.925081,12908
1659429546.964702,12917
1659429547.005176,12949
1659429547.04565,12980
1659429547.089711,12903
1659429547.133772,12753
1659429547.177833,12639
1659429547.210622,12605
1659429547.243412,12597
1659429547.287472,12624
1659429547.331533,12645
1659429547.375594,12670
1659429547.414531,12668
1659429547.453469,12686
1659429547.492406,12710
1659429547.531685,12753
1659429547.570964,12782
1659429547.610243,12814
1659429547.65123,12850
1659429547.692217,12891
1659429547.730813,12922
1659429547.769408,12972
1659429547.808004,12996
1659429547.850016,12920
1659429547.892027,12789
1659429547.932673,12692
1659429547.973318,12672
1659429548.013963,12679
1659429548.054608,12696
1659429548.095253,12727
1659429548.135899,12740
1659429548.176544,12756
1659429548.217189,12775
1659429548.257834,12823
1659429548.296259,12854
1659429548.334684,12907
1659429548.373109,12944
1659429548.411535,12976
1659429548.44996,13014
1659429548.488385,13053
1659429548.528005,13074
1659429548.567626,13012
1659429548.607246,12876
1659429548.648745,12772
1659429548.690244,12742
1659429548.731744,12756
1659429548.773243,12777
1659429548.815254,12788
1659429548.857265,12795
1659429548.896544,12798
1659429548.935823,12811
1659429548.975102,12842
1659429549.016602,12870
1659429549.058101,12889
1659429549.096697,12919
1659429549.135293,12941
1659429549.173888,12979
1659429549.213167,13003
1659429549.252446,12993
1659429549.291725,12869
1659429549.3322,12690
1659429549.372674,12610
1659429549.411612,12575
1659429549.450549,12583
1659429549.489486,12594
1659429549.531498,12608
1659429549.573509,12621
1659429549.612105,12620
1659429549.650701,12620
1659429549.689297,12636
1659429549.730284,12660
1659429549.771271,12704
1659429549.811233,12712
1659429549.851195,12732
1659429549.891157,12769
1659429549.932143,12806
1659429549.97313,12812
1659429550.011726,12704
1659429550.050322,12524
1659429550.088918,12398
1659429550.13332,12348
1659429550.177723,12323
1659429550.222125,12316
1659429550.263112,12342
1659429550.304098,12362
1659429550.342694,12362
1659429550.38129,12369
1659429550.419886,12405
1659429550.461385,12435
1659429550.502884,12474
1659429550.54148,12507
1659429550.580076,12540
1659429550.618672,12578
1659429550.656585,12605
1659429550.694497,12653
1659429550.73241,12680
1659429550.771689,12656
1659429550.810968,12476
1659429550.850247,12323
1659429550.892259,12250
1659429550.93427,12228
1659429550.972866,12215
1659429551.011462,12247
1659429551.050058,12271
1659429551.092069,12290
1659429551.13408,12299
1659429551.173018,12313
1659429551.211955,12350
1659429551.250893,12389
1659429551.294612,12421
1659429551.338331,12466
1659429551.382051,12499
1659429551.416377,12540
1659429551.450703,12564
1659429551.495106,12610
1659429551.539508,12661
1659429551.58391,12649
1659429551.624385,12516
1659429551.664859,12339
1659429551.704138,12265
1659429551.743417,12249
1659429551.782696,12262
1659429551.821634,12270
1659429551.860571,12300
1659429551.899508,12324
1659429551.941007,12333
1659429551.982507,12364
1659429552.021785,12387
1659429552.061064,12436
1659429552.100343,12482
1659429552.141843,12530
1659429552.183342,12566
1659429552.221938,12599
1659429552.260534,12644
1659429552.299129,12697
1659429552.338408,12737
1659429552.377687,12725
1659429552.416966,12584
1659429552.458465,12441
1659429552.499964,12394
1659429552.538219,12392
1659429552.576473,12417
1659429552.614727,12461
1659429552.655714,12501
1659429552.696701,12517
1659429552.736321,12551
1659429552.775942,12572
1659429552.815563,12620
1659429552.856549,12659
1659429552.897536,12702
1659429552.936474,12741
1659429552.975411,12790
1659429553.014349,12822
1659429553.059092,12849
1659429553.103836,12890
1659429553.14858,12855
1659429553.189567,12729
1659429553.230554,12608
1659429553.269833,12567
1659429553.309112,12580
1659429553.348391,12610
1659429553.390402,12641
1659429553.432413,12656
1659429553.470668,12663
1659429553.508922,12674
1659429553.547176,12686
1659429553.585431,12707
1659429553.623685,12732
1659429553.661939,12760
1659429553.703951,12780
1659429553.745962,12791
1659429553.7849,12826
1659429553.823837,12832
1659429553.862775,12718
1659429553.900687,12548
1659429553.9386,12460
1659429553.976513,12432
1659429554.018012,12457
1659429554.059511,12461
1659429554.09879,12471
1659429554.138069,12483
1659429554.177348,12488
1659429554.218847,12509
1659429554.260346,12521
1659429554.299625,12560
1659429554.338904,12587
1659429554.378183,12623
1659429554.420195,12648
1659429554.462206,12679
1659429554.506267,12694
1659429554.550328,12577
1659429554.594388,12378
1659429554.628202,12243
1659429554.662016,12187
1659429554.70676,12169
1659429554.751504,12170
1659429554.796248,12192
1659429554.828525,12202
1659429554.860802,12220
1659429554.904863,12221
1659429554.948924,12248
1659429554.992985,12286
1659429555.032264,12310
1659429555.071543,12353
1659429555.110821,12377
1659429555.152321,12422
1659429555.19382,12455
1659429555.232416,12420
1659429555.271012,12244
1659429555.309608,12079
1659429555.352131,12010
1659429555.394655,11977
1659429555.433592,11973
1659429555.47253,12001
1659429555.511467,12037
1659429555.550405,12051
1659429555.589342,12054
1659429555.628279,12093
1659429555.670803,12129
1659429555.713327,12168
1659429555.751581,12208
1659429555.789836,12264
1659429555.82809,12288
1659429555.866686,12329
1659429555.905282,12377
1659429555.943878,12397
1659429555.985377,12315
1659429556.026876,12142
1659429556.068887,12036
1659429556.110899,12000
1659429556.149153,12009
1659429556.187407,12031
1659429556.225662,12079
1659429556.267673,12136
1659429556.309685,12174
1659429556.351696,12214
1659429556.393707,12260
1659429556.432303,12312
1659429556.470899,12357
1659429556.509495,12414
1659429556.550482,12459
1659429556.591469,12502
1659429556.630748,12549
1659429556.670027,12586
1659429556.709306,12646
1659429556.750805,12647
1659429556.792304,12524
1659429556.830899,12391
1659429556.869495,12336
1659429556.908091,12337
1659429556.94959,12353
1659429556.99109,12394
1659429557.029685,12422
1659429557.068281,12433
1659429557.106877,12458
1659429557.148376,12472
1659429557.189875,12505
1659429557.228813,12542
1659429557.26775,12582
1659429557.306688,12606
1659429557.350748,12642
1659429557.394809,12680
1659429557.43887,12710
1659429557.472172,12734
1659429557.505473,12631
1659429557.550559,12482
1659429557.595644,12390
1659429557.64073,12378
1659429557.682741,12381
1659429557.724753,12407
1659429557.763349,12434
1659429557.801944,12444
1659429557.84054,12469
1659429557.879819,12485
1659429557.919098,12546
1659429557.958377,12571
1659429557.999364,12604
1659429558.040351,12652
1659429558.078947,12686
1659429558.117543,12717
1659429558.156138,12755
1659429558.195417,12792
1659429558.234696,12776
1659429558.273975,12628
1659429558.315987,12473
1659429558.357998,12386
1659429558.396252,12355
1659429558.434507,12332
1659429558.472761,12361
1659429558.51426,12390
1659429558.555759,12405
1659429558.595721,12419
1659429558.635684,12457
1659429558.675646,12484
1659429558.716632,12515
1659429558.757619,12559
1659429558.796215,12590
1659429558.834811,12634
1659429558.873407,12651
1659429558.915931,12688
1659429558.958454,12740
1659429559.002173,12710
1659429559.045893,12573
1659429559.089612,12418
1659429559.122914,12366
1659429559.156215,12336
1659429559.200618,12339
1659429559.24502,12360
1659429559.289423,12387
1659429559.328018,12419
1659429559.366614,12430
1659429559.40521,12459
1659429559.445684,12495
1659429559.486159,12539
1659429559.525779,12569
1659429559.5654,12612
1659429559.605021,12644
1659429559.643616,12675
1659429559.682212,12719
1659429559.720808,12754
1659429559.761795,12786
1659429559.802782,12706
1659429559.842061,12567
1659429559.88134,12467
1659429559.920619,12447
1659429559.96263,12443
1659429560.004642,12472
1659429560.042896,12517
1659429560.08115,12550
1659429560.119405,12564
1659429560.158342,12588
1659429560.197279,12629
1659429560.236217,12674
1659429560.277204,12716
1659429560.31819,12761
1659429560.356445,12798
1659429560.394699,12854
1659429560.432953,12893
1659429560.475477,12935
1659429560.518001,12933
1659429560.562403,12829
1659429560.606806,12711
1659429560.651208,12659
1659429560.682972,12667
1659429560.714737,12695
1659429560.759823,12730
1659429560.804908,12761
1659429560.849994,12783
1659429560.883808,12791
1659429560.917622,12811
1659429560.961683,12847
1659429561.005743,12886
1659429561.049804,12929
1659429561.089083,12972
1659429561.128362,13016
1659429561.167641,13047
1659429561.209652,13069
1659429561.251664,13005
1659429561.289918,12866
1659429561.328173,12782
1659429561.366427,12752
1659429561.405364,12766
1659429561.444302,12811
1659429561.483239,12831
1659429561.522518,12841
1659429561.561797,12853
1659429561.601076,12872
1659429561.642063,12902
1659429561.68305,12932
1659429561.721646,12969
1659429561.760242,12992
1659429561.798837,13032
1659429561.843581,13059
1659429561.888325,13093
1659429561.933069,13071
1659429561.974056,12932
1659429562.015043,12787
1659429562.054663,12708
1659429562.094284,12685
1659429562.133904,12670
1659429562.175403,12695
1659429562.216902,12724
1659429562.255498,12741
1659429562.294094,12750
1659429562.33269,12765
1659429562.370944,12806
1659429562.409199,12833
1659429562.447453,12859
1659429562.489977,12883
1659429562.532501,12918
1659429562.570755,12950
1659429562.609009,12980
1659429562.647263,12930
1659429562.685859,12776
1659429562.724455,12671
1659429562.763051,12603
1659429562.803525,12583
1659429562.844,12610
1659429562.883279,12652
1659429562.922558,12698
1659429562.961837,12721
1659429563.003336,12743
1659429563.044835,12778
1659429563.084114,12817
1659429563.123393,12851
1659429563.162672,12886
1659429563.204171,12927
1659429563.24567,12956
1659429563.283925,12989
1659429563.322179,13023
1659429563.360433,13014
1659429563.402957,12868
1659429563.445481,12719
1659429563.489883,12630
1659429563.534285,12584
1659429563.578688,12564
1659429563.616942,12573
1659429563.655196,12581
1659429563.693451,12587
1659429563.73495,12569
1659429563.776449,12574
1659429563.815386,12616
1659429563.854324,12647
1659429563.893261,12680
1659429563.931515,12710
1659429563.96977,12747
1659429564.008024,12781
1659429564.050035,12823
1659429564.092047,12765
1659429564.131667,12604
1659429564.171288,12510
1659429564.210908,12441
1659429564.251895,12416
1659429564.292882,12427
1659429564.332161,12447
1659429564.37144,12457
1659429564.410719,12457
1659429564.453243,12471
1659429564.495767,12499
1659429564.534362,12538
1659429564.572958,12581
1659429564.611554,12595
1659429564.650492,12629
1659429564.689429,12643
1659429564.728366,12682
1659429564.769866,12717
1659429564.811365,12733
1659429564.850302,12659
1659429564.88924,12510
1659429564.928177,12423
1659429564.969676,12388
1659429565.011175,12388
1659429565.055919,12412
1659429565.100663,12440
1659429565.145407,12464
1659429565.177684,12480
1659429565.209961,12492
1659429565.254022,12517
1659429565.298083,12538
1659429565.342143,12568
1659429565.37647,12610
1659429565.410796,12642
1659429565.455199,12673
1659429565.499601,12725
1659429565.544003,12765
1659429565.582941,12793
1659429565.621878,12750
1659429565.660815,12608
1659429565.701802,12530
1659429565.742789,12516
1659429565.781726,12540
1659429565.820664,12565
1659429565.859601,12607
1659429565.897856,12625
1659429565.93611,12637
1659429565.974364,12665
1659429566.015863,12698
1659429566.057362,12724
1659429566.095617,12765
1659429566.133871,12797
1659429566.172125,12839
1659429566.214137,12867
1659429566.256148,12906
1659429566.295427,12950
1659429566.334706,12972
1659429566.373985,12898
1659429566.412923,12795
1659429566.45186,12757
1659429566.490798,12756
1659429566.531784,12798
1659429566.572771,12837
1659429566.615295,12867
1659429566.657819,12895
1659429566.696756,12916
1659429566.735693,12953
1659429566.774631,12983
1659429566.815361,13028
1659429566.856092,13068
1659429566.896823,13116
1659429566.937553,13151
1659429566.977174,13181
1659429567.016794,13218
1659429567.056415,13195
1659429567.095352,13075
1659429567.13429,12961
1659429567.173227,12916
1659429567.213701,12901
1659429567.254176,12901
1659429567.295675,12898
1659429567.337174,12895
1659429567.376795,12891
1659429567.416415,12884
1659429567.456036,12909
1659429567.500438,12935
1659429567.544841,12952
1659429567.589243,12970
1659429567.622545,12996
1659429567.655846,13022
1659429567.70059,13042
1659429567.745334,12957
1659429567.790078,12795
1659429567.823892,12679
1659429567.857706,12641
1659429567.90245,12626
1659429567.947194,12650
1659429567.991938,12655
1659429568.030534,12656
1659429568.069129,12652
1659429568.107725,12661
1659429568.1482,12677
1659429568.188674,12697
1659429568.22727,12720
1659429568.265866,12739
1659429568.304462,12773
1659429568.346473,12800
1659429568.388485,12811
1659429568.427081,12725
1659429568.465677,12548
1659429568.504272,12447
1659429568.544235,12407
1659429568.584197,12399
1659429568.624159,12419
1659429568.664121,12439
1659429568.704083,12459
1659429568.742679,12457
1659429568.781275,12476
1659429568.81987,12491
1659429568.86137,12520
1659429568.902869,12554
1659429568.942489,12573
1659429568.98211,12607
1659429569.02173,12639
1659429569.062205,12656
1659429569.102679,12533
1659429569.140934,12379
1659429569.179188,12274
1659429569.217442,12242
1659429569.259966,12250
1659429569.30249,12279
1659429569.340744,12293
1659429569.378998,12306
1659429569.417253,12317
1659429569.460972,12330
1659429569.504691,12356
1659429569.54841,12387
1659429569.590422,12416
1659429569.632433,12462
1659429569.671371,12482
1659429569.710308,12517
1659429569.749245,12548
1659429569.7875,12492
1659429569.825754,12330
1659429569.864008,12184
1659429569.907044,12128
1659429569.950081,12124
1659429569.989018,12173
1659429570.027956,12213
1659429570.066893,12244
1659429570.107367,12275
1659429570.147842,12288
1659429570.187121,12306
1659429570.2264,12313
1659429570.265679,12315
1659429570.30769,12315
1659429570.349702,12330
1659429570.388297,12352
1659429570.426893,12385
1659429570.465489,12424
1659429570.504427,12366
1659429570.543364,12194
1659429570.582301,12065
1659429570.623801,12015
1659429570.6653,12019
1659429570.704237,12031
1659429570.743175,12068
1659429570.782112,12085
1659429570.824123,12103
1659429570.866135,12116
1659429570.905072,12145
1659429570.94401,12193
1659429570.982947,12236
1659429571.024446,12279
1659429571.065945,12305
1659429571.110348,12337
1659429571.15475,12372
1659429571.199152,12404
1659429571.232966,12419
1659429571.26678,12314
1659429571.3105,12145
1659429571.354219,12033
1659429571.397938,12004
1659429571.436534,11988
1659429571.47513,12004
1659429571.513726,12054
1659429571.554713,12080
1659429571.595699,12105
1659429571.634637,12121
1659429571.673574,12148
1659429571.712512,12188
1659429571.751107,12228
1659429571.789703,12262
1659429571.828299,12302
1659429571.870311,12337
1659429571.912322,12377
1659429571.950918,12402
1659429571.989514,12427
1659429572.02811,12330
1659429572.068072,12142
1659429572.108034,12057
1659429572.147996,12030
1659429572.187958,12041
1659429572.22792,12082
1659429572.267199,12105
1659429572.306478,12134
1659429572.345757,12153
1659429572.386232,12170
1659429572.426706,12209
1659429572.471108,12259
1659429572.515511,12296
1659429572.559913,12330
1659429572.598167,12361
1659429572.636422,12411
1659429572.674676,12440
1659429572.716175,12484
1659429572.757674,12472
1659429572.796612,12349
1659429572.835549,12223
1659429572.874486,12184
1659429572.913765,12195
1659429572.953044,12232
1659429572.992323,12272
1659429573.03331,12311
1659429573.074297,12342
1659429573.112466,12364
1659429573.150635,12414
1659429573.188804,12464
1659429573.226973,12507
1659429573.271375,12543
1659429573.315777,12547
1659429573.36018,12555
1659429573.402191,12601
1659429573.444202,12650
1659429573.483823,12673
1659429573.523443,12627
1659429573.563064,12523
1659429573.603539,12449
1659429573.644013,12445
1659429573.682609,12450
1659429573.721205,12486
1659429573.759801,12546
1659429573.79908,12570
1659429573.838359,12586
1659429573.877638,12613
1659429573.919137,12652
1659429573.960636,12698
1659429573.998549,12760
1659429574.036461,12814
1659429574.074374,12873
1659429574.113995,12931
1659429574.153615,12969
1659429574.193236,12957
1659429574.234735,12848
1659429574.276234,12722
1659429574.315171,12653
1659429574.354109,12662
1659429574.393046,12697
1659429574.435058,12726
1659429574.477069,12747
1659429574.516006,12742
1659429574.554944,12742
1659429574.593881,12762
1659429574.634356,12788
1659429574.67483,12832
1659429574.719574,12858
1659429574.764318,12892
1659429574.809062,12922
1659429574.847316,12908
1659429574.885571,12777
1659429574.923825,12642
1659429574.965324,12585
1659429575.006823,12579
1659429575.04576,12616
1659429575.084698,12637
1659429575.123635,12656
1659429575.165134,12681
1659429575.206634,12697
1659429575.244888,12726
1659429575.283142,12746
1659429575.321396,12754
1659429575.361017,12784
1659429575.400637,12845
1659429575.440258,12877
1659429575.478854,12838
1659429575.51745,12705
1659429575.556046,12599
1659429575.600106,12569
1659429575.644167,12574
1659429575.688228,12580
1659429575.72153,12591
1659429575.754832,12622
1659429575.799234,12639
1659429575.843636,12685
1659429575.888038,12728
1659429575.926634,12762
1659429575.96523,12835
1659429576.003826,12900
1659429576.04635,12943
1659429576.088874,12934
1659429576.12747,12833
1659429576.166065,12651
1659429576.204661,12536
1659429576.24616,12487
1659429576.287659,12472
1659429576.326938,12496
1659429576.366217,12530
1659429576.405496,12533
1659429576.444434,12535
1659429576.483371,12540
1659429576.522309,12554
1659429576.56432,12591
1659429576.606332,12633
1659429576.645611,12692
1659429576.68489,12742
1659429576.724169,12681
1659429576.765155,12489
1659429576.806142,12312
1659429576.844738,12247
1659429576.883334,12224
1659429576.92193,12240
1659429576.963941,12266
1659429577.005953,12280
1659429577.04489,12295
1659429577.083827,12282
1659429577.122765,12303
1659429577.163239,12326
1659429577.203714,12344
1659429577.24231,12377
1659429577.280905,12425
1659429577.319501,12445
1659429577.359873,12465
1659429577.400245,12466
1659429577.440617,12342
1659429577.480989,12149
1659429577.521361,12010
1659429577.562348,11953
1659429577.603335,11941
1659429577.648078,11951
1659429577.692822,11994
1659429577.737566,12019
1659429577.774967,12033
1659429577.812367,12051
1659429577.849768,12092
1659429577.887168,12117
1659429577.929179,12151
1659429577.971191,12197
1659429578.009787,12225
1659429578.048383,12249
1659429578.086978,12274
1659429578.125233,12301
1659429578.163487,12338
1659429578.201741,12361
1659429578.242216,12411
1659429578.28269,12437
1659429578.321969,12483
1659429578.361248,12537
1659429578.400527,12479
1659429578.442026,12270
1659429578.483526,12069
1659429578.527586,11970
1659429578.571647,11930
1659429578.615708,11922
1659429578.649522,11949
1659429578.683336,11997
1659429578.72808,12033
1659429578.772824,12053
1659429578.817568,12106
1659429578.855822,12155
1659429578.894076,12201
1659429578.932331,12257
1659429578.974854,12325
1659429579.017378,12389
1659429579.056316,12446
1659429579.095253,12518
1659429579.13419,12580
1659429579.174665,12667
1659429579.215139,12753
1659429579.254077,12817
1659429579.293014,12885
1659429579.331952,12928
1659429579.370548,12893
1659429579.409143,12790
1659429579.447739,12717
1659429579.489238,12698
1659429579.530737,12714
1659429579.570358,12757
1659429579.609978,12812
1659429579.649599,12877
1659429579.691098,12931
1659429579.732597,12965
1659429579.771193,12993
1659429579.809789,13050
1659429579.848385,13108
1659429579.890908,13147
1659429579.933432,13191
1659429579.972711,13245
1659429580.01199,13320
1659429580.051269,13383
1659429580.092768,13437
1659429580.134268,13465
1659429580.175767,13501
1659429580.217266,13552
1659429580.255862,13588
1659429580.294457,13581
1659429580.333053,13539
1659429580.371308,13519
1659429580.409562,13509
1659429580.447816,13547
1659429580.488803,13572
1659429580.52979,13623
1659429580.572314,13649
1659429580.614837,13682
1659429580.653092,13711
1659429580.691346,13754
1659429580.7296,13791
1659429580.774003,13824
1659429580.818405,13871
1659429580.862807,13918
1659429580.896109,13968
1659429580.929411,14045
1659429580.973813,14112
1659429581.018215,14175
1659429581.062618,14194
1659429581.09592,14210
1659429581.129221,14206
1659429581.173965,14200
1659429581.218709,14187
1659429581.263453,14188
1659429581.301707,14206
1659429581.339962,14215
1659429581.378216,14246
1659429581.419203,14273
1659429581.460189,14293
1659429581.498444,14327
1659429581.536698,14327
1659429581.574952,14354
1659429581.614231,14374
1659429581.65351,14401
1659429581.692789,14421
1659429581.733776,14445
1659429581.774763,14458
1659429581.8137,14479
1659429581.852638,14504
1659429581.891575,14515
1659429581.933074,14526
1659429581.974573,14542
1659429582.014194,14542
1659429582.053814,14541
1659429582.093435,14538
1659429582.134422,14546
1659429582.175409,14560
1659429582.215029,14567
1659429582.25465,14574
1659429582.29427,14590
1659429582.335257,14599
1659429582.376244,14604
1659429582.415181,14618
1659429582.454118,14631
1659429582.493056,14639
1659429582.534555,14645
1659429582.576054,14671
1659429582.615606,14672
1659429582.655159,14696
1659429582.694711,14688
1659429582.734263,14697
1659429582.773815,14718
1659429582.818559,14722
1659429582.863303,14735
1659429582.908047,14734
1659429582.947326,14735
1659429582.986605,14735
1659429583.025884,14748
1659429583.067383,14751
1659429583.108882,14761
1659429583.14782,14762
1659429583.186757,14762
1659429583.225694,14767
1659429583.267706,14777
1659429583.309717,14794
1659429583.348655,14797
1659429583.387592,14825
1659429583.42653,14828
1659429583.465467,14832
1659429583.504405,14846
1659429583.543342,14856
1659429583.584841,14874
1659429583.62634,14882
1659429583.664253,14896
1659429583.702166,14902
1659429583.740078,14900
1659429583.779016,14901
1659429583.817953,14886
1659429583.856891,14884
1659429583.899414,14889
1659429583.941938,14899
1659429583.979851,14884
1659429584.017764,14882
1659429584.055676,14875
1659429584.097688,14885
1659429584.139699,14883
1659429584.178637,14881
1659429584.217574,14898
1659429584.256512,14900
1659429584.298011,14907
1659429584.33951,14897
1659429584.383571,14899
1659429584.427631,14912
1659429584.471692,14897
1659429584.505506,14872
1659429584.53932,14827
1659429584.583381,14792
1659429584.627442,14753
1659429584.671503,14735
1659429584.710212,14700
1659429584.748922,14680
1659429584.787632,14659
1659429584.826342,14620
1659429584.865051,14600
1659429584.903761,14566
1659429584.942471,14556
1659429584.98118,14537
1659429585.01989,14516
1659429585.060057,14507
1659429585.100224,14490
1659429585.140391,14489
1659429585.180558,14448
1659429585.220725,14357
1659429585.260892,14247
1659429585.301059,14148
1659429585.341226,14076
1659429585.381393,14020
1659429585.421561,13965
1659429585.466304,13915
1659429585.511048,13885
1659429585.555792,13829
1659429585.589094,13794
1659429585.622396,13755
1659429585.666456,13727
1659429585.710517,13708
1659429585.754578,13689
1659429585.793515,13661
1659429585.832453,13641
1659429585.87139,13630
1659429585.912889,13610
1659429585.954388,13544
1659429585.992984,13381
1659429586.03158,13244
1659429586.070176,13164
1659429586.109113,13092
1659429586.148051,13059
1659429586.186988,13010
1659429586.228487,12984
1659429586.269987,12946
1659429586.308924,12928
1659429586.347861,12905
1659429586.386799,12886
1659429586.429323,12890
1659429586.471846,12884
1659429586.510784,12870
1659429586.549721,12874
1659429586.588659,12877
1659429586.630158,12882
1659429586.671657,12865
1659429586.710253,12777
1659429586.748849,12613
1659429586.787445,12498
1659429586.829968,12431
1659429586.872492,12407
1659429586.910746,12385
1659429586.949001,12377
1659429586.987255,12358
1659429587.031316,12351
1659429587.075377,12344
1659429587.119437,12337
1659429587.152227,12360
1659429587.185016,12373
1659429587.228394,12390
1659429587.271771,12400
1659429587.315149,12417
1659429587.354087,12445
1659429587.393024,12463
1659429587.431961,12466
1659429587.473973,12376
1659429587.515984,12231
1659429587.554922,12118
1659429587.593859,12092
1659429587.632797,12067
1659429587.674296,12077
1659429587.715795,12097
1659429587.755074,12100
1659429587.794353,12108
1659429587.833632,12116
1659429587.874875,12134
1659429587.916118,12155
1659429587.957361,12187
1659429587.998603,12217
1659429588.037882,12240
1659429588.077161,12274
1659429588.11644,12300
1659429588.154695,12333
1659429588.192949,12358
1659429588.231203,12307
1659429588.273215,12175
1659429588.315226,12057
1659429588.354505,12009
1659429588.393784,11997
1659429588.433063,12016
1659429588.474562,12038
1659429588.516061,12060
1659429588.554316,12061
1659429588.59257,12072
1659429588.630824,12105
1659429588.673861,12134
1659429588.716897,12160
1659429588.755834,12190
1659429588.794771,12227
1659429588.833709,12252
1659429588.874696,12284
1659429588.915682,12319
1659429588.95462,12339
1659429588.993557,12319
1659429589.032495,12209
1659429589.077239,12085
1659429589.121982,12035
1659429589.166726,12012
1659429589.199516,12025
1659429589.232305,12044
1659429589.277049,12071
1659429589.321793,12083
1659429589.366537,12094
1659429589.399326,12117
1659429589.432116,12144
1659429589.476177,12186
1659429589.520237,12208
1659429589.564298,12239
1659429589.603919,12267
1659429589.643539,12294
1659429589.68316,12325
1659429589.725171,12360
1659429589.767182,12329
1659429589.805437,12209
1659429589.843691,12100
1659429589.881945,12043
1659429589.923957,12040
1659429589.965968,12060
1659429590.005247,12087
1659429590.044526,12101
1659429590.083805,12122
1659429590.122401,12132
1659429590.160997,12150
1659429590.199593,12184
1659429590.240067,12220
1659429590.280542,12247
1659429590.319479,12283
1659429590.358417,12316
1659429590.397354,12348
1659429590.438853,12384
1659429590.480352,12396
1659429590.518948,12337
1659429590.557544,12192
1659429590.59614,12099
1659429590.637127,12067
1659429590.678113,12081
1659429590.717051,12098
1659429590.755988,12132
1659429590.794926,12140
1659429590.838986,12146
1659429590.883047,12166
1659429590.927108,12191
1659429590.969632,12215
1659429591.012156,12248
1659429591.050751,12288
1659429591.089347,12324
1659429591.127943,12353
1659429591.169442,12380
1659429591.210941,12402
1659429591.249879,12380
1659429591.288816,12260
1659429591.327754,12140
1659429591.366349,12091
1659429591.404945,12096
1659429591.443541,12113
1659429591.48504,12157
1659429591.526539,12161
1659429591.565477,12167
1659429591.604414,12202
1659429591.643352,12221
1659429591.684339,12252
1659429591.725325,12287
1659429591.764263,12323
1659429591.8032,12360
1659429591.842138,12395
1659429591.881075,12435
1659429591.920012,12453
1659429591.95895,12390
1659429592.001986,12260
1659429592.045022,12179
1659429592.083618,12156
1659429592.122214,12167
1659429592.16081,12190
1659429592.202309,12216
1659429592.243808,12232
1659429592.283087,12236
1659429592.322366,12264
1659429592.361645,12287
1659429592.403144,12320
1659429592.444643,12354
1659429592.488704,12371
1659429592.532764,12417
1659429592.576825,12448
1659429592.610127,12455
1659429592.643429,12378
1659429592.687148,12237
1659429592.730867,12144
1659429592.774586,12117
1659429592.813524,12121
1659429592.852461,12147
1659429592.891399,12179
1659429592.933923,12191
1659429592.976446,12205
1659429593.015384,12219
1659429593.054321,12259
1659429593.093259,12270
1659429593.134758,12312
1659429593.176257,12342
1659429593.217756,12376
1659429593.259255,12421
1659429593.298534,12434
1659429593.337813,12368
1659429593.377092,12235
1659429593.415005,12137
1659429593.452918,12106
1659429593.49083,12114
1659429593.531817,12139
1659429593.572804,12172
1659429593.611741,12215
1659429593.650679,12240
1659429593.689616,12272
1659429593.728212,12323
1659429593.766808,12372
1659429593.805404,12420
1659429593.846903,12456
1659429593.888402,12497
1659429593.926998,12522
1659429593.965594,12527
1659429594.004189,12436
1659429594.045176,12279
1659429594.086163,12204
1659429594.125783,12196
1659429594.165404,12209
1659429594.205025,12253
1659429594.246524,12269
1659429594.288023,12286
1659429594.326619,12293
1659429594.365215,12319
1659429594.403811,12348
1659429594.448896,12380
1659429594.493981,12419
1659429594.539067,12452
1659429594.572881,12493
1659429594.606695,12523
1659429594.650414,12541
1659429594.694133,12439
1659429594.737853,12291
1659429594.778839,12224
1659429594.819826,12208
1659429594.859105,12214
1659429594.898384,12242
1659429594.937663,12284
1659429594.975917,12309
1659429595.014172,12321
1659429595.052426,12342
1659429595.09495,12369
1659429595.137474,12419
1659429595.176753,12455
1659429595.216032,12494
1659429595.255311,12535
1659429595.29681,12569
1659429595.338309,12614
1659429595.377246,12644
1659429595.416184,12579
1659429595.455121,12441
1659429595.4944,12362
1659429595.533679,12362
1659429595.572958,12374
1659429595.614969,12405
1659429595.656981,12443
1659429595.695577,12464
1659429595.734173,12491
1659429595.772768,12530
1659429595.814268,12568
1659429595.855767,12620
1659429595.894362,12671
1659429595.932958,12728
1659429595.971554,12767
1659429596.013053,12819
1659429596.054553,12873
1659429596.098955,12920
1659429596.143357,12976
1659429596.187759,12977
1659429596.220549,12888
1659429596.253338,12807
1659429596.297741,12825
1659429596.342143,12854
1659429596.386545,12912
1659429596.425483,12955
1659429596.46442,12985
1659429596.503358,13000
1659429596.545369,13028
1659429596.58738,13068
1659429596.625976,13100
1659429596.664572,13137
1659429596.703168,13146
1659429596.744155,13162
1659429596.785142,13175
1659429596.823737,13192
1659429596.862333,13217
1659429596.900929,13179
1659429596.939525,13088
1659429596.978121,13027
1659429597.016717,13044
1659429597.058216,13099
1659429597.099715,13129
1659429597.138653,13145
1659429597.17759,13149
1659429597.216527,13173
1659429597.254782,13199
1659429597.293036,13235
1659429597.33129,13262
1659429597.372789,13291
1659429597.414289,13313
1659429597.454251,13351
1659429597.494213,13391
1659429597.534175,13416
1659429597.575161,13370
1659429597.616148,13200
1659429597.660209,13077
1659429597.70427,13050
1659429597.748331,13044
1659429597.782145,13056
1659429597.815959,13070
1659429597.860361,13084
1659429597.904763,13082
1659429597.949166,13097
1659429597.988103,13109
1659429598.027041,13133
1659429598.065978,13156
1659429598.107477,13168
1659429598.148976,13197
1659429598.187914,13218
1659429598.226851,13240
1659429598.265789,13190
1659429598.306775,13028
1659429598.347762,12892
1659429598.388339,12846
1659429598.428916,12831
1659429598.469493,12839
1659429598.51007,12855
1659429598.550647,12876
1659429598.591633,12883
1659429598.63262,12882
1659429598.671558,12908
1659429598.710495,12928
1659429598.749432,12961
1659429598.792469,12994
1659429598.835505,13020
1659429598.873759,13051
1659429598.912013,13079
1659429598.950268,13081
1659429598.988863,12968
1659429599.027459,12806
1659429599.066055,12718
1659429599.107554,12698
1659429599.149053,12697
1659429599.187649,12714
1659429599.226245,12745
1659429599.264841,12745
1659429599.303437,12750
1659429599.342033,12772
1659429599.380629,12795
1659429599.421615,12830
1659429599.462602,12867
1659429599.501198,12883
1659429599.539794,12914
1659429599.57839,12949
1659429599.620401,12980
1659429599.662413,13030
1659429599.707498,12969
1659429599.752584,12808
1659429599.797669,12684
1659429599.835923,12644
1659429599.874178,12656
1659429599.912432,12663
1659429599.953931,12679
1659429599.99543,12695
1659429600.034026,12712
1659429600.072622,12714
1659429600.111218,12742
1659429600.149472,12771
1659429600.187726,12802
1659429600.225981,12835
1659429600.267992,12861
1659429600.310004,12893
1659429600.348941,12918
1659429600.387878,12959
1659429600.426816,12990
1659429600.46507,12988
1659429600.503325,12863
1659429600.541579,12715
1659429600.582053,12664
1659429600.622528,12667
1659429600.661807,12688
1659429600.701086,12722
1659429600.740365,12755
1659429600.782376,12757
1659429600.824388,12781
1659429600.863325,12805
1659429600.902262,12848
1659429600.9412,12876
1659429600.983211,12923
1659429601.025223,12960
1659429601.064502,12989
1659429601.103781,13034
1659429601.14306,13076
1659429601.185071,13112
1659429601.227082,13115
1659429601.271485,13026
1659429601.315887,12900
1659429601.36029,12839
1659429601.393591,12839
1659429601.426893,12870
1659429601.470612,12909
1659429601.514331,12937
1659429601.558051,12947
1659429601.596988,12946
1659429601.635926,12969
1659429601.674863,13003
1659429601.716874,13024
1659429601.758886,13053
1659429601.797482,13067
1659429601.836077,13091
1659429601.874673,13115
1659429601.916173,13146
1659429601.957672,13163
1659429601.996609,13087
1659429602.035547,12939
1659429602.074484,12817
1659429602.113763,12769
1659429602.153042,12767
1659429602.192321,12766
1659429602.23382,12776
1659429602.275319,12787
1659429602.314256,12797
1659429602.353194,12804
1659429602.392131,12836
1659429602.430386,12870
1659429602.46864,12920
1659429602.506894,12947
1659429602.548393,12988
1659429602.589893,13035
1659429602.631904,13075
1659429602.673915,13124
1659429602.71217,13155
1659429602.750424,13114
1659429602.788678,12967
1659429602.833081,12866
1659429602.877483,12839
1659429602.921885,12846
1659429602.955699,12886
1659429602.989513,12922
1659429603.033916,12935
1659429603.078318,12930
1659429603.12272,12939
1659429603.154998,12946
1659429603.187275,12975
1659429603.232018,12966
1659429603.276762,12968
1659429603.321506,12990
1659429603.360102,13001
1659429603.398698,13024
1659429603.437294,13038
1659429603.478793,12994
1659429603.520292,12843
1659429603.55923,12723
1659429603.598167,12691
1659429603.637105,12687
1659429603.678091,12714
1659429603.719078,12743
1659429603.760065,12756
1659429603.801051,12764
1659429603.840672,12777
1659429603.880293,12793
1659429603.919913,12837
1659429603.961412,12868
1659429604.002911,12896
1659429604.041507,12926
1659429604.080103,12945
1659429604.118699,12983
1659429604.160198,13002
1659429604.201697,12989
1659429604.241659,12854
1659429604.281621,12691
1659429604.321584,12615
1659429604.363082,12598
1659429604.404582,12604
1659429604.443519,12624
1659429604.482456,12660
1659429604.521394,12657
1659429604.560331,12665
1659429604.599269,12687
1659429604.638206,12707
1659429604.680218,12738
1659429604.722229,12762
1659429604.760483,12794
1659429604.798738,12819
1659429604.836992,12858
1659429604.878491,12891
1659429604.91999,12908
1659429604.958586,12866
1659429604.997182,12711
1659429605.035778,12605
1659429605.077789,12574
1659429605.119801,12569
1659429605.158738,12584
1659429605.197675,12608
1659429605.236613,12623
1659429605.278625,12612
1659429605.320636,12622
1659429605.362135,12637
1659429605.403634,12682
1659429605.445133,12702
1659429605.486632,12727
1659429605.525911,12752
1659429605.56519,12774
1659429605.604469,12808
1659429605.642724,12841
1659429605.680978,12856
1659429605.719232,12767
1659429605.760219,12625
1659429605.801206,12547
1659429605.840143,12544
1659429605.879081,12570
1659429605.918018,12593
1659429605.959517,12614
1659429606.001016,12627
1659429606.03927,12650
1659429606.077525,12672
1659429606.115779,12725
1659429606.157278,12758
1659429606.198777,12788
1659429606.24318,12827
1659429606.287582,12856
1659429606.331984,12898
1659429606.370922,12933
1659429606.409859,12969
1659429606.448797,12970
1659429606.490808,12879
1659429606.53282,12783
1659429606.571757,12758
1659429606.610694,12783
1659429606.649632,12826
1659429606.688228,12873
1659429606.726824,12882
1659429606.765419,12898
1659429606.807943,12917
1659429606.850467,12947
1659429606.889404,12990
1659429606.928342,13023
1659429606.967279,13067
1659429607.005533,13093
1659429607.043788,13130
1659429607.082042,13157
1659429607.123029,13169
1659429607.164016,13117
1659429607.203295,13011
1659429607.242574,12948
1659429607.281853,12967
1659429607.323352,13011
1659429607.364851,13046
1659429607.403788,13071
1659429607.442726,13053
1659429607.481663,13060
1659429607.524187,13077
1659429607.566711,13098
1659429607.605307,13123
1659429607.643903,13150
1659429607.682498,13179
1659429607.726901,13202
1659429607.771303,13224
1659429607.815705,13161
1659429607.858229,13003
1659429607.900753,12892
1659429607.939349,12852
1659429607.977945,12866
1659429608.016541,12882
1659429608.057527,12898
1659429608.098514,12894
1659429608.137451,12890
1659429608.176389,12902
1659429608.215326,12925
1659429608.253581,12938
1659429608.291835,12945
1659429608.330089,12965
1659429608.371588,12987
1659429608.413087,13007
1659429608.452708,12952
1659429608.492328,12769
1659429608.531949,12609
1659429608.572936,12529
1659429608.613923,12500
1659429608.652519,12478
1659429608.691114,12487
1659429608.72971,12479
1659429608.768989,12479
1659429608.808268,12483
1659429608.847547,12478
1659429608.8871,12501
1659429608.926652,12509
1659429608.966204,12539
1659429609.005756,12563
1659429609.045308,12593
1659429609.086807,12521
1659429609.128307,12344
1659429609.170318,12188
1659429609.212329,12126
1659429609.250584,12105
1659429609.288838,12107
1659429609.327092,12139
1659429609.371153,12139
1659429609.415214,12143
1659429609.459275,12153
1659429609.492576,12178
1659429609.525878,12216
1659429609.569939,12233
1659429609.614,12265
1659429609.658061,12298
1659429609.697681,12329
1659429609.737302,12330
1659429609.776922,12197
1659429609.818421,12034
1659429609.85992,11967
1659429609.898516,11955
1659429609.937112,11963
1659429609.975708,11995
1659429610.017207,12011
1659429610.058706,12019
1659429610.098327,12040
1659429610.137947,12067
1659429610.177568,12099
1659429610.215822,12121
1659429610.254076,12156
1659429610.292331,12184
1659429610.33383,12236
1659429610.375329,12266
1659429610.413925,12267
1659429610.452521,12146
1659429610.491117,12012
1659429610.529712,11964
1659429610.568308,11975
1659429610.606904,12002
1659429610.648916,12030
1659429610.690927,12050
1659429610.732939,12063
1659429610.77495,12079
1659429610.813887,12118
1659429610.852825,12145
1659429610.891762,12181
1659429610.933774,12210
1659429610.975785,12251
1659429611.014723,12270
1659429611.05366,12306
1659429611.092597,12327
1659429611.137,12273
1659429611.181402,12145
1659429611.225804,12065
1659429611.258594,12072
1659429611.291383,12088
1659429611.335785,12112
1659429611.380188,12156
1659429611.42459,12171
1659429611.466089,12190
1659429611.507588,12212
1659429611.546184,12258
1659429611.58478,12301
1659429611.623376,12350
1659429611.66163,12371
1659429611.699885,12393
1659429611.738139,12447
1659429611.78015,12476
1659429611.822162,12481
1659429611.860758,12374
1659429611.899354,12278
1659429611.937949,12245
1659429611.976887,12272
1659429612.015824,12287
1659429612.054762,12314
1659429612.096773,12335
1659429612.138785,12334
1659429612.177039,12347
1659429612.215293,12364
1659429612.253547,12400
1659429612.294022,12434
1659429612.334496,12447
1659429612.373775,12473
1659429612.413054,12506
1659429612.452333,12544
1659429612.493832,12556
1659429612.535331,12490
1659429612.573927,12350
1659429612.612523,12292
1659429612.651119,12305
1659429612.692618,12348
1659429612.734117,12387
1659429612.772713,12419
1659429612.811309,12447
1659429612.849905,12470
1659429612.894307,12515
1659429612.93871,12547
1659429612.983112,12579
1659429613.026148,12629
1659429613.069184,12672
1659429613.10778,12709
1659429613.146376,12748
1659429613.184972,12780
1659429613.226471,12725
1659429613.26797,12609
1659429613.307249,12516
1659429613.346528,12516
1659429613.385807,12559
1659429613.424744,12606
1659429613.463682,12650
1659429613.502619,12665
1659429613.543094,12668
1659429613.583568,12665
1659429613.622847,12683
1659429613.662126,12697
1659429613.701405,12714
1659429613.742392,12743
1659429613.783379,12781
1659429613.822658,12813
1659429613.861937,12813
1659429613.901216,12708
1659429613.939811,12589
1659429613.978407,12554
1659429614.017003,12563
1659429614.059015,12600
1659429614.101026,12641
1659429614.141193,12665
1659429614.18136,12681
1659429614.221527,12693
1659429614.261694,12713
1659429614.301861,12753
1659429614.343873,12777
1659429614.385884,12809
1659429614.42448,12841
1659429614.463076,12884
1659429614.501672,12890
1659429614.542659,12803
1659429614.583645,12647
1659429614.623266,12563
1659429614.662886,12565
1659429614.702507,12571
1659429614.746226,12595
1659429614.789945,12617
1659429614.833664,12653
1659429614.866454,12688
1659429614.899243,12735
1659429614.943646,12772
1659429614.988048,12817
1659429615.03245,12858
1659429615.071046,12910
1659429615.109642,12932
1659429615.148238,12891
1659429615.186834,12741
1659429615.22543,12580
1659429615.264025,12504
1659429615.306549,12475
1659429615.349073,12473
1659429615.387669,12485
1659429615.426265,12494
1659429615.464861,12506
1659429615.50636,12522
1659429615.547859,12550
1659429615.586455,12568
1659429615.625051,12610
1659429615.663646,12639
1659429615.702584,12673
1659429615.741521,12726
1659429615.780459,12707
1659429615.821958,12572
1659429615.863457,12411
1659429615.904956,12339
1659429615.946455,12320
1659429615.985393,12330
1659429616.02433,12352
1659429616.063267,12389
1659429616.10767,12406
1659429616.152072,12415
1659429616.196475,12449
1659429616.230289,12478
1659429616.264103,12513
1659429616.308846,12544
1659429616.35359,12593
1659429616.398334,12624
1659429616.431124,12602
1659429616.463913,12466
1659429616.508657,12323
1659429616.553401,12272
1659429616.598145,12255
1659429616.640156,12242
1659429616.682168,12248
1659429616.720763,12257
1659429616.759359,12260
1659429616.797955,12274
1659429616.836551,12300
1659429616.875147,12340
1659429616.913743,12369
1659429616.955754,12393
1659429616.997766,12415
1659429617.03602,12445
1659429617.074275,12470
1659429617.112529,12467
1659429617.152149,12366
1659429617.19177,12215
1659429617.23139,12144
1659429617.272889,12130
1659429617.314389,12143
1659429617.352643,12192
1659429617.390897,12224
1659429617.429152,12247
1659429617.470651,12249
1659429617.51215,12273
1659429617.552112,12303
1659429617.592074,12346
1659429617.632036,12379
1659429617.673023,12415
1659429617.71401,12445
1659429617.752947,12475
1659429617.791884,12518
1659429617.830822,12560
1659429617.872321,12553
1659429617.91382,12436
1659429617.957539,12291
1659429618.001258,12230
1659429618.044978,12219
1659429618.083574,12246
1659429618.122169,12290
1659429618.160765,12312
1659429618.202777,12334
1659429618.244788,12359
1659429618.283042,12404
1659429618.321297,12442
1659429618.359551,12475
1659429618.400538,12505
1659429618.441525,12531
1659429618.481487,12548
1659429618.521449,12587
1659429618.561411,12621
1659429618.600007,12638
1659429618.638603,12635
1659429618.677199,12519
1659429618.718185,12412
1659429618.759172,12390
1659429618.798451,12392
1659429618.83773,12417
1659429618.877009,12449
1659429618.91902,12470
1659429618.961032,12467
1659429618.999286,12497
1659429619.037541,12526
1659429619.075795,12543
1659429619.114732,12550
1659429619.15367,12568
1659429619.192607,12592
1659429619.233594,12621
1659429619.274581,12656
1659429619.312835,12678
1659429619.351089,12729
1659429619.389344,12745
1659429619.431611,12682
1659429619.473879,12582
1659429619.516146,12557
1659429619.558414,12580
1659429619.597352,12638
1659429619.636289,12711
1659429619.675226,12760
1659429619.717238,12795
1659429619.759249,12833
1659429619.798528,12868
1659429619.837807,12917
1659429619.877086,12958
1659429619.918585,13004
1659429619.960084,13040
1659429619.99868,13073
1659429620.037276,13110
1659429620.075872,13137
1659429620.118396,13109
1659429620.160919,12966
1659429620.20498,12807
1659429620.249041,12748
1659429620.293102,12767
1659429620.331698,12782
1659429620.370294,12807
1659429620.40889,12829
1659429620.450389,12825
1659429620.491888,12826
1659429620.530142,12841
1659429620.568396,12855
1659429620.606651,12869
1659429620.645588,12903
1659429620.684525,12930
1659429620.723463,12952
1659429620.765987,12977
1659429620.808511,12985
1659429620.847106,12928
1659429620.885702,12773
1659429620.924298,12663
1659429620.965285,12621
1659429621.006272,12637
1659429621.045209,12651
1659429621.084146,12688
1659429621.123084,12701
1659429621.162021,12711
1659429621.200959,12743
1659429621.239896,12779
1659429621.281395,12820
1659429621.322894,12861
1659429621.361149,12890
1659429621.399403,12915
1659429621.437657,12960
1659429621.479156,12996
1659429621.520656,13000
1659429621.564375,12921
1659429621.608094,12784
1659429621.651813,12707
1659429621.685115,12701
1659429621.718417,12725
1659429621.76316,12740
1659429621.807904,12760
1659429621.852648,12775
1659429621.88595,12786
1659429621.919252,12827
1659429621.963313,12857
1659429622.007373,12886
1659429622.051434,12914
1659429622.090713,12944
1659429622.129992,12985
1659429622.169271,13026
1659429622.211282,13019
1659429622.253294,12911
1659429622.291548,12802
1659429622.329803,12764
1659429622.368057,12773
1659429622.409556,12809
1659429622.451055,12835
1659429622.489651,12859
1659429622.528247,12854
1659429622.566843,12860
1659429622.60578,12883
1659429622.644718,12916
1659429622.683655,12934
1659429622.725667,12970
1659429622.767678,13000
1659429622.806615,13032
1659429622.845553,13044
1659429622.88449,12939
1659429622.923428,12789
1659429622.962365,12714
1659429623.001302,12716
1659429623.043826,12725
1659429623.08635,12757
1659429623.127849,12769
1659429623.169348,12748
1659429623.207944,12743
1659429623.24654,12739
1659429623.285136,12759
1659429623.326635,12770
1659429623.368134,12785
1659429623.407755,12817
1659429623.447375,12851
1659429623.486996,12825
1659429623.530715,12676
1659429623.574434,12500
1659429623.618153,12397
1659429623.651455,12365
1659429623.684757,12366
1659429623.729159,12390
1659429623.773561,12424
1659429623.817964,12427
1659429623.855877,12420
1659429623.893789,12437
1659429623.931702,12477
1659429623.974226,12525
1659429624.01675,12569
1659429624.055687,12595
1659429624.094625,12609
1659429624.133562,12633
1659429624.174549,12547
1659429624.215535,12351
1659429624.254473,12204
1659429624.29341,12141
1659429624.332348,12103
1659429624.371285,12122
1659429624.410223,12149
1659429624.44916,12164
1659429624.490659,12191
1659429624.532158,12198
1659429624.570754,12237
1659429624.60935,12289
1659429624.647946,12347
1659429624.689445,12388
1659429624.730944,12425
1659429624.772443,12470
1659429624.813942,12512
1659429624.852538,12559
1659429624.891134,12496
1659429624.92973,12323
1659429624.968326,12176
1659429625.006922,12125
1659429625.045517,12115
1659429625.087529,12134
1659429625.12954,12194
1659429625.168136,12212
1659429625.206732,12249
1659429625.245328,12269
1659429625.287852,12313
1659429625.330375,12356
1659429625.374778,12391
1659429625.41918,12436
1659429625.463583,12483
1659429625.496884,12508
1659429625.530186,12551
1659429625.574588,12602
1659429625.618991,12642
1659429625.663393,12656
1659429625.697719,12551
1659429625.732046,12388
1659429625.775765,12315
1659429625.819484,12299
1659429625.863204,12317
1659429625.902141,12358
1659429625.941078,12384
1659429625.980016,12402
1659429626.021003,12423
1659429626.061989,12459
1659429626.101268,12493
1659429626.140547,12539
1659429626.179826,12584
1659429626.221838,12622
1659429626.263849,12652
1659429626.30347,12678
1659429626.34309,12720
1659429626.382711,12767
1659429626.421307,12803
1659429626.459903,12715
1659429626.498498,12556
1659429626.539998,12474
1659429626.581497,12457
1659429626.621117,12488
1659429626.660738,12526
1659429626.700358,12557
1659429626.741857,12586
1659429626.783356,12597
1659429626.821269,12622
1659429626.859182,12659
1659429626.897095,12694
1659429626.939106,12727
1659429626.981117,12759
1659429627.019372,12808
1659429627.057626,12835
1659429627.095881,12878
1659429627.13738,12917
1659429627.178879,12941
1659429627.217816,12834
1659429627.256754,12689
1659429627.295691,12634
1659429627.340093,12627
1659429627.384496,12646
1659429627.428898,12674
1659429627.467152,12681
1659429627.505407,12675
1659429627.543661,12682
1659429627.586185,12685
1659429627.628709,12709
1659429627.667646,12749
1659429627.706583,12788
1659429627.745521,12818
1659429627.786508,12840
1659429627.827494,12872
1659429627.866773,12906
1659429627.906052,12910
1659429627.945331,12763
1659429627.983586,12585
1659429628.02184,12512
1659429628.060094,12487
1659429628.101593,12488
1659429628.143092,12519
1659429628.18203,12551
1659429628.220967,12551
1659429628.259905,12574
1659429628.300891,12595
1659429628.341878,12625
1659429628.380474,12679
1659429628.41907,12726
1659429628.457666,12754
1659429628.499677,12783
1659429628.541689,12806
1659429628.580968,12842
1659429628.620247,12853
1659429628.659526,12724
1659429628.700512,12540
1659429628.741499,12458
1659429628.780778,12435
1659429628.820057,12445
1659429628.859336,12488
1659429628.903738,12513
1659429628.948141,12539
1659429628.992543,12555
1659429629.031139,12590
1659429629.069735,12625
1659429629.108331,12658
1659429629.150855,12693
1659429629.193378,12726
1659429629.232316,12770
1659429629.271253,12806
1659429629.310191,12841
1659429629.350665,12818
1659429629.39114,12680
1659429629.430418,12556
1659429629.469697,12501
1659429629.508976,12494
1659429629.547914,12516
1659429629.586851,12555
1659429629.625789,12586
1659429629.6678,12612
1659429629.709812,12629
1659429629.748407,12663
1659429629.787003,12708
1659429629.825599,12732
1659429629.867611,12771
1659429629.909622,12814
1659429629.949379,12860
1659429629.989136,12902
1659429630.028893,12885
1659429630.068651,12761
1659429630.108408,12632
1659429630.146662,12588
1659429630.184916,12571
1659429630.223171,12590
1659429630.26467,12614
1659429630.306169,12630
1659429630.344423,12654
1659429630.382678,12679
1659429630.420932,12715
1659429630.462944,12742
1659429630.504955,12779
1659429630.549016,12806
1659429630.593076,12841
1659429630.637137,12882
1659429630.676075,12853
1659429630.715012,12708
1659429630.753949,12555
1659429630.795449,12518
1659429630.836948,12517
1659429630.875885,12544
1659429630.914823,12583
1659429630.95376,12596
1659429630.995259,12606
1659429631.036758,12616
1659429631.075696,12643
1659429631.114633,12654
1659429631.15357,12682
1659429631.192508,12719
1659429631.231445,12748
1659429631.270383,12782
1659429631.310857,12799
1659429631.351332,12704
1659429631.390269,12528
1659429631.429206,12449
1659429631.468144,12417
1659429631.507423,12408
1659429631.546702,12444
1659429631.585981,12460
1659429631.626455,12480
1659429631.66693,12491
1659429631.706209,12515
1659429631.745488,12556
1659429631.784767,12591
1659429631.827291,12615
1659429631.869814,12644
1659429631.90841,12696
1659429631.947006,12745
1659429631.985602,12735
1659429632.027101,12604
1659429632.0686,12460
1659429632.114027,12419
1659429632.159454,12426
1659429632.204881,12454
1659429632.238183,12479
1659429632.271485,12513
1659429632.315545,12537
1659429632.359606,12555
1659429632.403667,12595
1659429632.436969,12610
1659429632.47027,12650
1659429632.514331,12682
1659429632.558392,12721
1659429632.602453,12762
1659429632.640365,12793
1659429632.678278,12768
1659429632.716191,12635
1659429632.759227,12531
1659429632.802263,12521
1659429632.841201,12541
1659429632.880138,12576
1659429632.919075,12609
1659429632.958013,12625
1659429632.99695,12639
1659429633.035888,12659
1659429633.077387,12693
1659429633.118886,12720
1659429633.157823,12747
1659429633.196761,12773
1659429633.235698,12814
1659429633.277197,12844
1659429633.318696,12874
1659429633.357975,12796
1659429633.397254,12665
1659429633.436533,12584
1659429633.47752,12580
1659429633.518507,12604
1659429633.556761,12645
1659429633.595016,12675
1659429633.63327,12683
1659429633.675281,12695
1659429633.717293,12701
1659429633.755889,12728
1659429633.794484,12770
1659429633.83308,12785
1659429633.8768,12805
1659429633.920519,12831
1659429633.964238,12856
1659429633.99754,12817
1659429634.030842,12704
1659429634.075585,12611
1659429634.120329,12607
1659429634.165073,12641
1659429634.206572,12679
1659429634.248071,12708
1659429634.287009,12728
1659429634.325946,12741
1659429634.364884,12759
1659429634.404163,12786
1659429634.443442,12821
1659429634.482721,12849
1659429634.523195,12903
1659429634.563669,12948
1659429634.602607,12989
1659429634.641544,12937
1659429634.680482,12816
1659429634.723006,12728
1659429634.765529,12737
1659429634.804125,12768
1659429634.842721,12813
1659429634.881317,12866
1659429634.919913,12887
1659429634.958509,12908
1659429634.997105,12908
1659429635.039116,12937
1659429635.081127,12978
1659429635.120406,13008
1659429635.159685,13044
1659429635.198964,13086
1659429635.24072,13097
1659429635.282475,12972
1659429635.32423,12848
1659429635.365985,12797
1659429635.405264,12811
1659429635.444543,12861
1659429635.483822,12896
1659429635.525321,12915
1659429635.566821,12919
1659429635.605417,12941
1659429635.644012,12962
1659429635.682608,12989
1659429635.724107,13011
1659429635.765606,13048
1659429635.804202,13086
1659429635.842798,13087
1659429635.881394,12960
1659429635.923405,12803
1659429635.965417,12737
1659429636.004354,12724
1659429636.043292,12762
1659429636.082229,12800
1659429636.123728,12802
1659429636.165227,12816
1659429636.203482,12811
1659429636.241736,12832
1659429636.27999,12845
1659429636.324734,12859
1659429636.369478,12894
1659429636.414222,12917
1659429636.456234,12896
1659429636.498245,12738
1659429636.537182,12583
1659429636.57612,12518
1659429636.615057,12526
1659429636.655532,12538
1659429636.696006,12547
1659429636.734943,12561
1659429636.773881,12549
1659429636.812818,12539
1659429636.851414,12551
1659429636.89001,12577
1659429636.928606,12604
1659429636.970105,12643
1659429637.011604,12662
1659429637.049859,12671
1659429637.088113,12572
1659429637.126367,12378
1659429637.16428,12267
1659429637.202193,12234
1659429637.240105,12229
1659429637.283141,12244
1659429637.326178,12280
1659429637.365115,12296
1659429637.404052,12301
1659429637.44299,12329
1659429637.483977,12362
1659429637.524963,12403
1659429637.564242,12432
1659429637.603521,12470
1659429637.6428,12515
1659429637.684812,12558
1659429637.726823,12531
1659429637.765419,12373
1659429637.804015,12244
1659429637.842611,12183
1659429637.88411,12184
1659429637.925609,12203
1659429637.970353,12250
1659429638.015097,12304
1659429638.059841,12313
1659429638.097754,12325
1659429638.135666,12362
1659429638.173579,12414
1659429638.216103,12434
1659429638.258626,12474
1659429638.297564,12487
1659429638.336501,12522
1659429638.375439,12565
1659429638.416938,12601
1659429638.458437,12642
1659429638.497375,12672
1659429638.536312,12595
1659429638.575249,12431
1659429638.614528,12339
1659429638.653807,12319
1659429638.693086,12321
1659429638.734585,12364
1659429638.776084,12400
1659429638.815022,12422
1659429638.853959,12446
1659429638.892897,12467
1659429638.934396,12516
1659429638.975895,12566
1659429639.014149,12608
1659429639.052404,12647
1659429639.090658,12702
1659429639.129254,12737
1659429639.16785,12767
1659429639.206445,12798
1659429639.248969,12839
1659429639.291493,12866
1659429639.335212,12774
1659429639.378932,12641
1659429639.422651,12566
1659429639.455952,12563
1659429639.489254,12588
1659429639.533657,12609
1659429639.578059,12641
1659429639.622461,12653
1659429639.661057,12667
1659429639.699653,12703
1659429639.738249,12737
1659429639.78026,12786
1659429639.822272,12818
1659429639.861551,12853
1659429639.90083,12896
1659429639.940109,12936
1659429639.980583,12973
1659429640.021058,13007
1659429640.059312,13043
1659429640.097566,13055
1659429640.13582,13010
1659429640.175099,12853
1659429640.214378,12741
1659429640.253657,12711
1659429640.294644,12703
1659429640.335631,12734
1659429640.374227,12763
1659429640.412823,12787
1659429640.451419,12796
1659429640.492918,12834
1659429640.534417,12850
1659429640.575916,12881
1659429640.617415,12923
1659429640.656694,12960
1659429640.695973,12988
1659429640.735252,13014
1659429640.773848,13053
1659429640.812444,13085
1659429640.85104,13126
1659429640.893563,13147
1659429640.936087,13102
1659429640.975024,12971
1659429641.013962,12873
1659429641.052899,12859
1659429641.094398,12870
1659429641.135898,12899
1659429641.175177,12939
1659429641.214456,12961
1659429641.253735,12970
1659429641.294721,12988
1659429641.335708,13020
1659429641.374304,13049
1659429641.4129,13098
1659429641.451496,13117
1659429641.49624,13140
1659429641.540983,13180
1659429641.585727,13206
1659429641.626714,13246
1659429641.667701,13283
1659429641.706638,13261
1659429641.745576,13143
1659429641.784513,13072
1659429641.823792,13047
1659429641.863071,13073
1659429641.90235,13112
1659429641.944361,13124
1659429641.986373,13125
1659429642.024627,13116
1659429642.062882,13126
1659429642.101136,13133
1659429642.14366,13176
1659429642.186183,13186
1659429642.224779,13211
1659429642.263375,13238
1659429642.301971,13268
1659429642.340225,13305
1659429642.37848,13314
1659429642.416734,13262
1659429642.459258,13109
1659429642.501782,12974
1659429642.540377,12918
1659429642.578973,12917
1659429642.617569,12944
1659429642.658044,12972
1659429642.698518,13002
1659429642.737797,13010
1659429642.777076,13017
1659429642.816355,13043
1659429642.858366,13070
1659429642.900378,13103
1659429642.938974,13119
1659429642.97757,13158
1659429643.016165,13199
1659429643.057152,13265
1659429643.098139,13239
1659429643.143224,13075
1659429643.18831,12933
1659429643.233395,12868
1659429643.271308,12857
1659429643.309221,12871
1659429643.347134,12907
1659429643.389657,12924
1659429643.432181,12942
1659429643.470777,12949
1659429643.509373,12975
1659429643.547969,13027
1659429643.586223,13059
1659429643.624477,13090
1659429643.662732,13118
1659429643.704231,13129
1659429643.74573,13084
1659429643.784667,12943
1659429643.823605,12817
1659429643.862542,12774
1659429643.904041,12778
1659429643.94554,12780
1659429643.984819,12795
1659429644.024098,12808
1659429644.063377,12816
1659429644.102315,12828
1659429644.141252,12875
1659429644.18019,12906
1659429644.222201,12942
1659429644.264213,12983
1659429644.30315,13013
1659429644.342088,13035
1659429644.381025,12971
1659429644.423036,12799
1659429644.465048,12661
1659429644.509109,12597
1659429644.553169,12584
1659429644.59723,12585
1659429644.630019,12608
1659429644.662809,12621
1659429644.707211,12636
1659429644.751614,12632
1659429644.796016,12651
1659429644.830342,12679
1659429644.864669,12707
1659429644.908388,12732
1659429644.952107,12770
1659429644.995826,12815
1659429645.035105,12797
1659429645.074384,12669
1659429645.113663,12497
1659429645.155162,12432
1659429645.196661,12410
1659429645.23594,12416
1659429645.275219,12449
1659429645.314498,12465
1659429645.355998,12469
1659429645.397497,12474
1659429645.436776,12500
1659429645.476055,12533
1659429645.515334,12567
1659429645.553588,12596
1659429645.591842,12619
1659429645.630097,12661
1659429645.672108,12694
1659429645.714119,12714
1659429645.753672,12621
1659429645.793224,12444
1659429645.832776,12319
1659429645.872328,12274
1659429645.91188,12277
1659429645.949793,12294
1659429645.987706,12327
1659429646.025619,12336
1659429646.068655,12342
1659429646.111691,12373
1659429646.150287,12406
1659429646.188883,12441
1659429646.227479,12478
1659429646.268466,12507
1659429646.309452,12519
1659429646.349073,12554
1659429646.388693,12580
1659429646.428314,12610
1659429646.470325,12604
1659429646.512337,12465
1659429646.550591,12310
1659429646.588845,12255
1659429646.6271,12263
1659429646.668599,12274
1659429646.710098,12312
1659429646.7545,12318
1659429646.798903,12311
1659429646.843305,12329
1659429646.881218,12355
1659429646.91913,12385
1659429646.957043,12423
1659429646.999055,12448
1659429647.041066,12474
1659429647.080003,12507
1659429647.118941,12535
1659429647.157878,12568
1659429647.198353,12599
1659429647.238827,12578
1659429647.278106,12451
1659429647.317385,12319
1659429647.356664,12287
1659429647.395602,12307
1659429647.434539,12343
1659429647.473476,12380
1659429647.514976,12390
1659429647.556475,12392
1659429647.595754,12405
1659429647.635033,12436
1659429647.674312,12458
1659429647.716323,12501
1659429647.758334,12536
1659429647.796589,12541
1659429647.834843,12551
1659429647.873097,12564
1659429647.912035,12601
1659429647.950972,12610
1659429647.98991,12571
1659429648.032434,12430
1659429648.074957,12357
1659429648.115432,12358
1659429648.155906,12392
1659429648.194502,12428
1659429648.233098,12448
1659429648.271694,12455
1659429648.316779,12455
1659429648.361865,12478
1659429648.40695,12504
1659429648.439739,12538
1659429648.472529,12584
1659429648.517273,12632
1659429648.562017,12694
1659429648.606761,12730
1659429648.640062,12767
1659429648.673364,12794
1659429648.717425,12742
1659429648.761486,12634
1659429648.805546,12540
1659429648.843801,12513
1659429648.882055,12516
1659429648.920309,12522
1659429648.962833,12527
1659429649.005357,12537
1659429649.043611,12541
1659429649.081866,12555
1659429649.12012,12576
1659429649.161107,12614
1659429649.202093,12634
1659429649.240689,12658
1659429649.279285,12696
1659429649.317881,12704
1659429649.35716,12659
1659429649.396439,12543
1659429649.435718,12446
1659429649.476705,12437
1659429649.517691,12461
1659429649.556629,12486
1659429649.595566,12505
1659429649.634504,12509
1659429649.676003,12512
1659429649.717502,12533
1659429649.756781,12543
1659429649.79606,12563
1659429649.835339,12584
1659429649.876838,12608
1659429649.918337,12633
1659429649.957274,12648
1659429649.996212,12576
1659429650.035149,12432
1659429650.078869,12339
1659429650.122588,12323
1659429650.166307,12340
1659429650.200121,12366
1659429650.233935,12377
1659429650.278337,12378
1659429650.32274,12380
1659429650.367142,12398
1659429650.405738,12407
1659429650.444334,12431
1659429650.48293,12441
1659429650.523916,12462
1659429650.564903,12493
1659429650.604524,12469
1659429650.644145,12375
1659429650.683765,12251
1659429650.722361,12201
1659429650.760957,12206
1659429650.799553,12232
1659429650.841564,12258
1659429650.883575,12267
1659429650.923196,12277
1659429650.962816,12280
1659429651.002437,12300
1659429651.043936,12320
1659429651.085435,12339
1659429651.126934,12365
1659429651.168433,12395
1659429651.207371,12419
1659429651.246308,12401
1659429651.285246,12297
1659429651.326232,12201
1659429651.367219,12180
1659429651.405132,12181
1659429651.443045,12219
1659429651.480958,12260
1659429651.520236,12269
1659429651.559515,12271
1659429651.598794,12284
1659429651.640806,12309
1659429651.682817,12344
1659429651.721072,12390
1659429651.759326,12419
1659429651.79758,12448
1659429651.839592,12497
1659429651.881603,12493
1659429651.926347,12418
1659429651.971091,12318
1659429652.015835,12287
1659429652.054089,12291
1659429652.092344,12325
1659429652.130598,12368
1659429652.172609,12404
1659429652.214621,12447
1659429652.253558,12474
1659429652.292495,12509
1659429652.331433,12540
1659429652.371907,12556
1659429652.412382,12586
1659429652.450978,12616
1659429652.489574,12646
1659429652.528169,12643
1659429652.566765,12562
1659429652.605361,12416
1659429652.643957,12308
1659429652.685456,12296
1659429652.726955,12315
1659429652.766234,12344
1659429652.805513,12371
1659429652.844792,12371
1659429652.886291,12370
1659429652.92779,12395
1659429652.966386,12419
1659429653.004982,12438
1659429653.043578,12468
1659429653.083199,12491
1659429653.122819,12532
1659429653.16244,12549
1659429653.204451,12524
1659429653.246463,12407
1659429653.287449,12289
1659429653.328436,12247
1659429653.367032,12236
1659429653.405628,12261
1659429653.444224,12284
1659429653.488968,12301
1659429653.533711,12301
1659429653.578455,12315
1659429653.611757,12355
1659429653.645059,12386
1659429653.689461,12408
1659429653.733864,12431
1659429653.778266,12463
1659429653.811055,12495
1659429653.843845,12515
1659429653.888589,12468
1659429653.933332,12343
1659429653.978076,12271
1659429654.017355,12245
1659429654.056634,12250
1659429654.095913,12273
1659429654.137925,12297
1659429654.179936,12303
1659429654.218874,12310
1659429654.257811,12330
1659429654.296748,12351
1659429654.338248,12388
1659429654.379747,12409
1659429654.419367,12423
1659429654.458988,12467
1659429654.498608,12489
1659429654.537204,12505
1659429654.5758,12518
1659429654.614396,12468
1659429654.65487,12358
1659429654.695345,12287
1659429654.733941,12276
1659429654.772537,12280
1659429654.811132,12308
1659429654.853144,12321
1659429654.895155,12339
1659429654.933751,12349
1659429654.972347,12364
1659429655.010943,12408
1659429655.052442,12446
1659429655.093941,12482
1659429655.132879,12499
1659429655.171816,12531
1659429655.210753,12551
1659429655.252765,12567
1659429655.294776,12604
1659429655.33303,12609
1659429655.371285,12544
1659429655.409539,12445
1659429655.454283,12393
1659429655.499027,12396
1659429655.543771,12417
1659429655.584758,12450
1659429655.625744,12481
1659429655.66434,12513
1659429655.702936,12551
1659429655.741532,12606
1659429655.780469,12645
1659429655.819407,12699
1659429655.858344,12746
1659429655.900356,12791
1659429655.942367,12823
1659429655.98028,12852
1659429656.018193,12890
1659429656.056105,12911
1659429656.098117,12875
1659429656.140128,12748
1659429656.179066,12667
1659429656.218003,12657
1659429656.256941,12670
1659429656.297108,12694
1659429656.337275,12726
1659429656.377442,12746
1659429656.417609,12769
1659429656.457776,12788
1659429656.496713,12820
1659429656.535651,12854
1659429656.574588,12887
1659429656.615062,12908
1659429656.655537,12936
1659429656.694816,12948
1659429656.734095,12976
1659429656.773374,12996
1659429656.815385,12967
1659429656.857397,12853
1659429656.895993,12766
1659429656.934588,12744
1659429656.973184,12737
1659429657.017928,12752
1659429657.062672,12782
1659429657.107416,12786
1659429657.148915,12799
1659429657.190414,12806
1659429657.228668,12830
1659429657.266923,12858
1659429657.305177,12889
1659429657.347701,12908
1659429657.390225,12945
1659429657.429504,12962
1659429657.468783,12979
1659429657.508062,13008
1659429657.546316,13002
1659429657.58457,12902
1659429657.622825,12788
1659429657.664836,12748
1659429657.706847,12737
1659429657.746126,12751
1659429657.785405,12781
1659429657.824684,12787
1659429657.865159,12800
1659429657.905633,12797
1659429657.944229,12813
1659429657.982825,12846
1659429658.021421,12863
1659429658.060017,12894
1659429658.098613,12925
1659429658.137208,12979
1659429658.178708,13031
1659429658.220207,13086
1659429658.258803,13111
1659429658.297399,13071
1659429658.335994,12961
1659429658.378006,12903
1659429658.420017,12904
1659429658.464078,12897
1659429658.508139,12904
1659429658.5522,12902
1659429658.586014,12914
1659429658.619828,12929
1659429658.66423,12951
1659429658.708632,12970
1659429658.753035,12993
1659429658.786336,13016
1659429658.819638,13033
1659429658.863358,13047
1659429658.907077,13067
1659429658.950796,13082
1659429658.989733,12992
1659429659.028671,12888
1659429659.067608,12818
1659429659.109107,12807
1659429659.150606,12827
1659429659.188861,12846
1659429659.227115,12855
1659429659.265369,12847
1659429659.304307,12857
1659429659.343244,12869
1659429659.382182,12891
1659429659.423681,12922
1659429659.46518,12932
1659429659.504117,12954
1659429659.543055,12966
1659429659.581992,12995
1659429659.621271,12997
1659429659.66055,12929
1659429659.699829,12783
1659429659.742353,12698
1659429659.784877,12667
1659429659.823814,12654
1659429659.862751,12667
1659429659.901689,12675
1659429659.943188,12691
1659429659.984687,12679
1659429660.027723,12686
1659429660.070759,12709
1659429660.109014,12730
1659429660.147268,12753
1659429660.185522,12777
1659429660.229925,12801
1659429660.274327,12818
1659429660.318729,12840
1659429660.352031,12773
1659429660.385333,12637
1659429660.42871,12548
1659429660.472088,12524
1659429660.515466,12519
1659429660.554403,12527
1659429660.593341,12554
1659429660.632278,12557
1659429660.674802,12580
1659429660.717325,12598
1659429660.756263,12624
1659429660.7952,12668
1659429660.834138,12691
1659429660.875637,12729
1659429660.917136,12773
1659429660.956415,12810
1659429660.995694,12845
1659429661.034973,12834
1659429661.076984,12718
1659429661.118996,12601
1659429661.156909,12564
1659429661.194821,12551
1659429661.232734,12577
1659429661.272013,12593
1659429661.311292,12601
1659429661.350571,12606
1659429661.391046,12617
1659429661.43152,12638
1659429661.470457,12655
1659429661.509395,12682
1659429661.548332,12701
1659429661.588089,12733
1659429661.627846,12758
1659429661.667604,12758
1659429661.707361,12652
1659429661.747118,12514
1659429661.791179,12459
1659429661.83524,12443
1659429661.8793,12454
1659429661.913627,12462
1659429661.947953,12487
1659429661.992014,12468
1659429662.036075,12468
1659429662.080136,12498
1659429662.11839,12518
1659429662.156644,12533
1659429662.194898,12550
1659429662.23691,12576
1659429662.278921,12599
1659429662.317517,12630
1659429662.356113,12569
1659429662.394709,12406
1659429662.433305,12309
1659429662.471901,12279
1659429662.510497,12287
1659429662.55302,12299
1659429662.595544,12320
1659429662.63414,12315
1659429662.672736,12324
1659429662.711332,12336
1659429662.752319,12357
1659429662.793305,12394
1659429662.832584,12419
1659429662.871863,12454
1659429662.911142,12476
1659429662.953666,12500
1659429662.99619,12522
1659429663.034786,12446
1659429663.073381,12310
1659429663.111977,12233
1659429663.153989,12222
1659429663.196,12231
1659429663.234596,12271
1659429663.273192,12279
1659429663.311788,12279
1659429663.354312,12304
1659429663.396835,12321
1659429663.43509,12359
1659429663.473344,12392
1659429663.511598,12439
1659429663.556342,12474
1659429663.601086,12510
1659429663.64583,12521
1659429663.686305,12507
1659429663.726779,12447
1659429663.765375,12329
1659429663.803971,12265
1659429663.842566,12263
1659429663.88509,12284
1659429663.927614,12314
1659429663.96621,12336
1659429664.004806,12341
1659429664.043402,12354
1659429664.082339,12388
1659429664.121277,12420
1659429664.160214,12459
1659429664.202225,12469
1659429664.244237,12490
1659429664.282833,12524
1659429664.321429,12549
1659429664.360024,12558
1659429664.402036,12473
1659429664.444047,12374
1659429664.482302,12317
1659429664.520556,12334
1659429664.55881,12361
1659429664.597748,12391
1659429664.636685,12426
1659429664.675622,12427
1659429664.716097,12439
1659429664.756572,12460
1659429664.795851,12503
1659429664.835129,12537
1659429664.874408,12611
1659429664.915907,12657
1659429664.957407,12710
1659429665.001126,12771
1659429665.044845,12790
1659429665.088564,12721
1659429665.121354,12611
1659429665.154143,12575
1659429665.198887,12567
1659429665.243631,12599
1659429665.288375,12626
1659429665.327654,12603
1659429665.366933,12581
1659429665.406212,12552
1659429665.447711,12578
1659429665.48921,12597
1659429665.528147,12618
1659429665.567085,12649
1659429665.606022,12685
1659429665.647009,12700
1659429665.687996,12691
1659429665.726933,12580
1659429665.765871,12455
1659429665.804808,12426
1659429665.844087,12424
1659429665.883366,12446
1659429665.922645,12477
1659429665.963119,12491
1659429666.003594,12484
1659429666.042531,12492
1659429666.081469,12524
1659429666.120406,12530
1659429666.163442,12566
1659429666.206478,12583
1659429666.245074,12610
1659429666.28367,12654
1659429666.322266,12604
1659429666.361203,12442
1659429666.400141,12306
1659429666.439078,12269
1659429666.48109,12259
1659429666.523101,12284
1659429666.565113,12318
1659429666.607124,12322
1659429666.64572,12338
1659429666.684316,12336
1659429666.722912,12350
1659429666.76424,12373
1659429666.805568,12397
1659429666.846897,12426
1659429666.888225,12466
1659429666.929553,12495
1659429666.970881,12439
1659429667.008282,12302
1659429667.045682,12176
1659429667.083083,12147
1659429667.120483,12138
1659429667.16147,12149
1659429667.202457,12186
1659429667.243443,12197
1659429667.28443,12205
1659429667.323709,12220
1659429667.362988,12257
1659429667.402267,12283
1659429667.447011,12311
1659429667.491755,12329
1659429667.536499,12355
1659429667.568776,12404
1659429667.601053,12423
1659429667.645797,12346
1659429667.690541,12210
1659429667.735285,12156
1659429667.77388,12149
1659429667.812476,12171
1659429667.851072,12196
1659429667.892571,12218
1659429667.934071,12243
1659429667.972325,12254
1659429668.010579,12290
1659429668.048833,12326
1659429668.090333,12369
1659429668.131832,12443
1659429668.170086,12501
1659429668.20834,12562
1659429668.246595,12611
1659429668.285532,12666
1659429668.32447,12655
1659429668.363407,12565
1659429668.405931,12461
1659429668.448454,12441
1659429668.487392,12447
1659429668.526329,12482
1659429668.565267,12503
1659429668.606254,12510
1659429668.64724,12541
1659429668.686519,12562
1659429668.725798,12598
1659429668.765077,12627
1659429668.807089,12653
1659429668.8491,12698
1659429668.887696,12726
1659429668.926292,12756
1659429668.964888,12751
1659429669.006387,12653
1659429669.047886,12539
1659429669.086823,12512
1659429669.125761,12525
1659429669.164698,12544
1659429669.208417,12582
1659429669.252137,12599
1659429669.295856,12602
1659429669.32967,12623
1659429669.363484,12639
1659429669.408228,12667
1659429669.452972,12696
1659429669.497716,12718
1659429669.539215,12744
1659429669.580714,12785
1659429669.619651,12794
1659429669.658589,12743
1659429669.697526,12623
1659429669.737147,12529
1659429669.776767,12519
1659429669.816388,12532
1659429669.857887,12561
1659429669.899386,12576
1659429669.937982,12592
1659429669.976578,12603
1659429670.015174,12616
1659429670.056673,12648
1659429670.098172,12670
1659429670.136768,12696
1659429670.175364,12714
1659429670.213959,12738
1659429670.252897,12756
1659429670.291834,12779
1659429670.330772,12716
1659429670.372783,12599
1659429670.414795,12533
1659429670.453049,12531
1659429670.491303,12555
1659429670.529557,12575
1659429670.570544,12596
1659429670.611531,12603
1659429670.651493,12598
1659429670.691455,12619
1659429670.731417,12646
1659429670.775478,12671
1659429670.819539,12696
1659429670.8636,12724
1659429670.904587,12737
1659429670.945573,12764
1659429670.984852,12775
1659429671.024131,12709
1659429671.06341,12606
1659429671.104397,12547
1659429671.145384,12545
1659429671.18398,12555
1659429671.222575,12589
1659429671.261171,12602
1659429671.30045,12607
1659429671.339729,12611
1659429671.379008,12630
1659429671.419995,12648
1659429671.460982,12674
1659429671.498895,12685
1659429671.536807,12706
1659429671.57472,12728
1659429671.617756,12747
1659429671.660792,12725
1659429671.69973,12625
1659429671.738667,12546
1659429671.777605,12543
1659429671.816542,12563
1659429671.855479,12602
1659429671.894417,12617
1659429671.935916,12635
1659429671.977415,12637
1659429672.017377,12657
1659429672.057339,12692
1659429672.097301,12738
1659429672.137264,12802
1659429672.177226,12858
1659429672.218725,12899
1659429672.260224,12938
1659429672.301723,12953
1659429672.343222,12900
1659429672.385233,12810
1659429672.427245,12762
1659429672.465841,12741
1659429672.504437,12745
1659429672.543032,12764
1659429672.581628,12756
1659429672.620224,12770
1659429672.65882,12765
1659429672.700832,12784
1659429672.742843,12800
1659429672.78178,12820
1659429672.820718,12840
1659429672.859655,12867
1659429672.901667,12868
1659429672.943678,12812
1659429672.982615,12691
1659429673.021553,12617
1659429673.06049,12604
1659429673.10199,12613
1659429673.143489,12634
1659429673.182768,12660
1659429673.222047,12668
1659429673.261326,12676
1659429673.302825,12674
1659429673.344324,12695
1659429673.382578,12711
1659429673.420832,12740
1659429673.459087,12768
1659429673.503489,12796
1659429673.547891,12802
1659429673.592294,12703
1659429673.625596,12573
1659429673.658897,12509
1659429673.702958,12485
1659429673.747019,12483
1659429673.79108,12505
1659429673.823357,12512
1659429673.855634,12521
1659429673.900378,12533
1659429673.945122,12555
1659429673.989865,12578
1659429674.028461,12599
1659429674.067057,12621
1659429674.105653,12643
1659429674.147664,12663
1659429674.189676,12654
1659429674.228613,12557
1659429674.267551,12441
1659429674.306488,12381
1659429674.3485,12368
1659429674.390511,12369
1659429674.428765,12390
1659429674.46702,12410
1659429674.505274,12448
1659429674.544211,12480
1659429674.583149,12526
1659429674.622086,12577
1659429674.664098,12617
1659429674.706109,12652
1659429674.744022,12678
1659429674.781935,12712
1659429674.819847,12729
1659429674.861346,12694
1659429674.902846,12559
1659429674.942125,12445
1659429674.981404,12417
1659429675.020683,12424
1659429675.064743,12449
1659429675.108804,12481
1659429675.152865,12499
1659429675.187191,12525
1659429675.221518,12549
1659429675.266262,12587
1659429675.311006,12608
1659429675.355749,12632
1659429675.396736,12661
1659429675.437723,12682
1659429675.476319,12707
1659429675.514915,12713
1659429675.55351,12673
1659429675.592789,12522
1659429675.632068,12435
1659429675.671347,12417
1659429675.712847,12424
1659429675.754346,12447
1659429675.793283,12470
1659429675.832221,12485
1659429675.871158,12484
1659429675.912657,12502
1659429675.954156,12512
1659429675.99241,12545
1659429676.030665,12579
1659429676.068919,12601
1659429676.10854,12621
1659429676.14816,12654
1659429676.187781,12683
1659429676.229792,12684
1659429676.271804,12589
1659429676.310058,12468
1659429676.348312,12417
1659429676.386567,12424
1659429676.428578,12431
1659429676.470589,12473
1659429676.51021,12476
1659429676.54983,12481
1659429676.589451,12489
1659429676.629925,12515
1659429676.6704,12553
1659429676.708654,12572
1659429676.746909,12607
1659429676.785163,12623
1659429676.826662,12657
1659429676.868161,12686
1659429676.912222,12712
1659429676.956283,12731
1659429677.000343,12673
1659429677.039622,12551
1659429677.078901,12487
1659429677.11818,12490
1659429677.159167,12506
1659429677.200154,12548
1659429677.23875,12559
1659429677.277346,12564
1659429677.315942,12587
1659429677.354537,12603
1659429677.393133,12626
1659429677.431729,12651
1659429677.471008,12681
1659429677.510287,12703
1659429677.549566,12736
1659429677.591065,12766
1659429677.632564,12793
1659429677.674063,12804
1659429677.715563,12778
1659429677.7545,12679
1659429677.793437,12611
1659429677.832375,12602
1659429677.874386,12630
1659429677.916398,12705
1659429677.954652,12770
1659429677.992906,12813
1659429678.031161,12852
1659429678.070098,12899
1659429678.109035,12947
1659429678.147973,12970
1659429678.18896,12991
1659429678.229946,13002
1659429678.27469,12991
1659429678.319434,12995
1659429678.364178,13009
1659429678.39748,13031
1659429678.430782,12991
1659429678.475867,12893
1659429678.520952,12817
1659429678.566038,12818
1659429678.598827,12852
1659429678.631617,12873
1659429678.676361,12888
1659429678.721105,12894
1659429678.765848,12892
1659429678.804444,12895
1659429678.84304,12928
1659429678.881636,12947
1659429678.92416,12965
1659429678.966684,12990
1659429679.00528,13005
1659429679.043875,13033
1659429679.082471,13033
1659429679.12397,12931
1659429679.165469,12790
1659429679.204065,12731
1659429679.242661,12713
1659429679.281257,12729
1659429679.320194,12730
1659429679.359132,12739
1659429679.398069,12744
1659429679.440593,12746
1659429679.483117,12748
1659429679.522054,12768
1659429679.560992,12798
1659429679.599929,12809
1659429679.640916,12821
1659429679.681903,12853
1659429679.721182,12853
1659429679.760461,12815
1659429679.79974,12679
1659429679.841751,12583
1659429679.883762,12582
1659429679.921675,12586
1659429679.959588,12592
1659429679.997501,12615
1659429680.038487,12625
1659429680.079474,12630
1659429680.118412,12654
1659429680.157349,12686
1659429680.196287,12726
1659429680.240006,12777
1659429680.283725,12823
1659429680.327444,12858
1659429680.361258,12902
1659429680.395072,12931
1659429680.439475,12854
1659429680.483877,12714
1659429680.528279,12615
1659429680.566534,12591
1659429680.604788,12612
1659429680.643042,12628
1659429680.685054,12646
1659429680.727065,12647
1659429680.766686,12633
1659429680.806306,12643
1659429680.845927,12666
1659429680.886914,12693
1659429680.9279,12712
1659429680.967179,12740
1659429681.006458,12763
1659429681.045737,12736
1659429681.084333,12639
1659429681.122929,12522
1659429681.161525,12484
1659429681.203024,12496
1659429681.244523,12510
1659429681.283119,12530
1659429681.321715,12532
1659429681.360311,12549
1659429681.40181,12557
1659429681.443309,12571
1659429681.481563,12591
1659429681.519818,12602
1659429681.558072,12626
1659429681.600596,12651
1659429681.643119,12685
1659429681.682398,12666
1659429681.721677,12557
1659429681.760956,12439
1659429681.802455,12392
1659429681.843955,12389
1659429681.882892,12396
1659429681.921829,12420
1659429681.960767,12422
1659429682.005852,12426
1659429682.050938,12427
1659429682.096023,12452
1659429682.138035,12477
1659429682.180046,12500
1659429682.218642,12515
1659429682.257238,12550
1659429682.295834,12593
1659429682.337333,12614
1659429682.378832,12576
1659429682.417086,12462
1659429682.455341,12405
1659429682.493595,12406
1659429682.533557,12433
1659429682.573519,12471
1659429682.613481,12499
1659429682.653443,12527
1659429682.693405,12546
1659429682.734905,12583
1659429682.776404,12616
1659429682.814999,12671
1659429682.853595,12723
1659429682.892191,12761
1659429682.931129,12799
1659429682.970066,12843
1659429683.009003,12866
1659429683.051015,12807
1659429683.093026,12698
1659429683.131622,12643
1659429683.170218,12623
1659429683.208814,12646
1659429683.24741,12655
1659429683.286006,12679
1659429683.324602,12691
1659429683.365588,12698
1659429683.406575,12718
1659429683.448586,12740
1659429683.490598,12760
1659429683.529194,12778
1659429683.56779,12809
1659429683.606386,12833
1659429683.650446,12840
1659429683.694507,12735
1659429683.738568,12620
1659429683.771357,12578
1659429683.804147,12577
1659429683.848207,12601
1659429683.892268,12618
1659429683.936329,12630
1659429683.975266,12633
1659429684.014204,12669
1659429684.053141,12676
1659429684.095153,12695
1659429684.137164,12732
1659429684.17576,12757
1659429684.214356,12791
1659429684.252952,12820
1659429684.292572,12844
1659429684.332193,12764
1659429684.371814,12621
1659429684.4128,12535
1659429684.453787,12508
1659429684.492724,12507
1659429684.531662,12521
1659429684.570599,12547
1659429684.609878,12557
1659429684.649157,12560
1659429684.688436,12562
1659429684.729423,12595
1659429684.77041,12619
1659429684.808664,12638
1659429684.846918,12679
1659429684.885173,12711
1659429684.928209,12752
1659429684.971245,12742
1659429685.015647,12637
1659429685.06005,12520
1659429685.104452,12451
1659429685.137241,12437
1659429685.170031,12450
1659429685.215116,12471
1659429685.260202,12493
1659429685.305287,12511
1659429685.339101,12506
1659429685.372915,12530
1659429685.416976,12567
1659429685.461037,12595
1659429685.505098,12625
1659429685.544035,12660
1659429685.582973,12728
1659429685.62191,12792
1659429685.662897,12856
1659429685.703883,12855
1659429685.741796,12754
1659429685.779709,12678
1659429685.817622,12649
1659429685.856559,12642
1659429685.895497,12655
1659429685.934434,12661
1659429685.976958,12665
1659429686.019481,12684
1659429686.057736,12699
1659429686.09599,12717
1659429686.134244,12745
1659429686.176256,12766
1659429686.218267,12804
1659429686.257205,12835
1659429686.296142,12861
1659429686.33508,12886
1659429686.376579,12798
1659429686.418078,12682
1659429686.457015,12625
1659429686.495953,12630
1659429686.53489,12649
1659429686.575877,12683
1659429686.616864,12692
1659429686.655118,12693
1659429686.693372,12716
1659429686.731627,12731
1659429686.776029,12760
1659429686.820431,12779
1659429686.864834,12802
1659429686.898135,12826
1659429686.931437,12855
1659429686.975156,12878
1659429687.018876,12881
1659429687.062595,12773
1659429687.101191,12650
1659429687.139786,12609
1659429687.178382,12608
1659429687.220394,12639
1659429687.262405,12657
1659429687.301001,12660
1659429687.339597,12666
1659429687.378193,12677
1659429687.420717,12705
1659429687.46324,12720
1659429687.502519,12752
1659429687.541798,12776
1659429687.581077,12792
1659429687.620015,12823
1659429687.658952,12845
1659429687.69789,12794
1659429687.738876,12662
1659429687.779863,12595
1659429687.82003,12580
1659429687.860197,12591
1659429687.900364,12616
1659429687.940531,12634
1659429687.980698,12645
1659429688.021685,12640
1659429688.062672,12658
1659429688.101609,12689
1659429688.140547,12727
1659429688.179484,12758
1659429688.219105,12795
1659429688.258725,12843
1659429688.298346,12885
1659429688.339333,12882
1659429688.380319,12796
1659429688.419257,12717
1659429688.458194,12727
1659429688.497132,12742
1659429688.539143,12778
1659429688.581154,12809
1659429688.625557,12825
1659429688.669959,12835
1659429688.714361,12847
1659429688.748176,12877
1659429688.78199,12906
1659429688.826392,12950
1659429688.870794,12985
1659429688.915197,13013
1659429688.947986,13029
1659429688.980775,13007
1659429689.024495,12881
1659429689.068214,12775
1659429689.111933,12739
1659429689.151212,12739
1659429689.190491,12776
1659429689.22977,12795
1659429689.270757,12813
1659429689.311743,12824
1659429689.350681,12823
1659429689.389618,12835
1659429689.428556,12866
1659429689.467493,12896
1659429689.506431,12914
1659429689.545368,12942
1659429689.587379,12950
1659429689.629391,12882
1659429689.667645,12756
1659429689.7059,12677
1659429689.744154,12679
1659429689.786165,12697
1659429689.828177,12735
1659429689.866773,12748
1659429689.905369,12726
1659429689.943964,12707
1659429689.981877,12690
1659429690.01979,12721
1659429690.057703,12755
1659429690.100739,12799
1659429690.143775,12812
1659429690.185274,12822
1659429690.226773,12789
1659429690.264686,12643
1659429690.302599,12520
1659429690.340511,12494
1659429690.384914,12483
1659429690.429316,12489
1659429690.473718,12516
1659429690.507533,12521
1659429690.541347,12546
1659429690.585749,12573
1659429690.630151,12586
1659429690.674554,12582
1659429690.707855,12586
1659429690.741157,12619
1659429690.786242,12651
1659429690.831328,12664
1659429690.876413,12531
1659429690.914668,12353
1659429690.952922,12212
1659429690.991176,12147
1659429691.0337,12129
1659429691.076224,12137
1659429691.115161,12138
1659429691.154099,12168
1659429691.193036,12209
1659429691.234023,12202
1659429691.27501,12275
1659429691.313606,12469
1659429691.352201,12713
1659429691.390797,12953
1659429691.429735,13276
1659429691.468672,14410
1659429691.50761,15108
