LocalTimestamp,PG
1659434667.458376,8489
1659434667.496648,8632
1659434667.53492,9068
1659434667.576952,9222
1659434667.618983,9212
1659434667.66204,9209
1659434667.705096,9241
1659434667.743711,9270
1659434667.782325,9233
1659434667.820939,9265
1659434667.865021,9304
1659434667.909102,9321
1659434667.953184,9360
1659434667.985989,9357
1659434668.018794,9350
1659434668.062876,9356
1659434668.106957,9395
1659434668.151039,9355
1659434668.189995,9255
1659434668.228951,9128
1659434668.267906,8903
1659434668.309938,8411
1659434668.351969,7901
1659434668.390583,7850
1659434668.429198,7821
1659434668.467812,7789
1659434668.508818,7721
1659434668.549824,7716
1659434668.589805,7802
1659434668.629786,7948
1659434668.669767,8112
1659434668.70804,8283
1659434668.746312,8450
1659434668.784585,8583
1659434668.826103,8593
1659434668.867622,8470
1659434668.906236,8549
1659434668.94485,8536
1659434668.983465,8534
1659434669.025496,8546
1659434669.067527,8579
1659434669.1058,8572
1659434669.144072,8481
1659434669.182345,8456
1659434669.223864,8472
1659434669.265382,8531
1659434669.303655,8601
1659434669.341927,8623
1659434669.3802,8607
1659434669.422231,8682
1659434669.464262,8693
1659434669.502877,8702
1659434669.541491,8744
1659434669.580105,8908
1659434669.624528,9045
1659434669.668952,9128
1659434669.713375,9160
1659434669.74618,9246
1659434669.778985,9326
1659434669.824092,9399
1659434669.869199,9474
1659434669.914305,9506
1659434669.956337,9543
1659434669.998368,9562
1659434670.036982,9581
1659434670.075597,9644
1659434670.114211,9704
1659434670.153167,9725
1659434670.192122,9727
1659434670.231078,9750
1659434670.272597,9724
1659434670.314116,9707
1659434670.352388,9694
1659434670.390661,9699
1659434670.428933,9707
1659434670.467889,9724
1659434670.506845,9717
1659434670.545801,9700
1659434670.587832,9715
1659434670.629864,9735
1659434670.66882,9755
1659434670.707775,9771
1659434670.746731,9781
1659434670.78825,9776
1659434670.829769,9807
1659434670.869066,9827
1659434670.908364,9849
1659434670.947662,9858
1659434670.989693,9848
1659434671.031724,9859
1659434671.07068,9867
1659434671.109636,9879
1659434671.148592,9882
1659434671.189598,9879
1659434671.230605,9869
1659434671.26956,9872
1659434671.308516,9902
1659434671.347472,9901
1659434671.391212,9920
1659434671.434952,9906
1659434671.478692,9930
1659434671.521236,9955
1659434671.56378,9967
1659434671.602052,9967
1659434671.640325,9966
1659434671.678597,9971
1659434671.717553,9981
1659434671.756509,10009
1659434671.795465,10002
1659434671.836984,10012
1659434671.878503,10012
1659434671.918142,10007
1659434671.957781,10034
1659434671.997421,10048
1659434672.038427,10053
1659434672.079433,10032
1659434672.118047,10000
1659434672.156661,9984
1659434672.195276,9986
1659434672.23389,10001
1659434672.272504,10002
1659434672.311118,10013
1659434672.352637,10019
1659434672.394156,10024
1659434672.43277,10028
1659434672.471384,10041
1659434672.509998,10039
1659434672.551517,10040
1659434672.593036,10048
1659434672.630966,10053
1659434672.668897,10064
1659434672.706828,10062
1659434672.749372,10039
1659434672.791916,10032
1659434672.836339,10031
1659434672.880763,10059
1659434672.925186,10065
1659434672.957991,10077
1659434672.990796,10065
1659434673.035219,10036
1659434673.079643,10023
1659434673.124066,10014
1659434673.163705,9996
1659434673.203345,9999
1659434673.242984,9979
1659434673.284503,9979
1659434673.326021,9980
1659434673.364977,9970
1659434673.403933,9977
1659434673.442889,9980
1659434673.484921,9974
1659434673.526952,9981
1659434673.565224,9977
1659434673.603497,9988
1659434673.641769,9987
1659434673.680383,9987
1659434673.718997,9990
1659434673.757612,10015
1659434673.799643,10014
1659434673.841675,9991
1659434673.879947,9954
1659434673.918219,9916
1659434673.956492,9911
1659434673.995448,9925
1659434674.034404,9943
1659434674.073359,9958
1659434674.115391,9979
1659434674.157422,10001
1659434674.196036,10026
1659434674.234651,10048
1659434674.273265,10058
1659434674.315296,10066
1659434674.357327,10075
1659434674.399359,10082
1659434674.44139,10099
1659434674.479663,10113
1659434674.517935,10112
1659434674.556208,10115
1659434674.600289,10103
1659434674.644371,10089
1659434674.688452,10066
1659434674.722283,9976
1659434674.756113,9856
1659434674.800536,9808
1659434674.844959,9782
1659434674.889383,9761
1659434674.927655,9786
1659434674.965928,9759
1659434675.0042,9726
1659434675.046232,9658
1659434675.088263,9613
1659434675.126877,9589
1659434675.165491,9505
1659434675.204106,9439
1659434675.246137,9330
1659434675.288168,9248
1659434675.326782,9114
1659434675.365396,8964
1659434675.404011,8883
1659434675.442625,8810
1659434675.481239,8804
1659434675.519853,8776
1659434675.560859,8754
1659434675.601866,8726
1659434675.641163,8748
1659434675.680461,8757
1659434675.719759,8774
1659434675.760765,8833
1659434675.801771,8866
1659434675.840727,8886
1659434675.879683,8884
1659434675.918639,8886
1659434675.959132,8898
1659434675.999626,8930
1659434676.039607,8921
1659434676.079588,8926
1659434676.119569,8932
1659434676.160575,8932
1659434676.201581,8924
1659434676.240196,8891
1659434676.27881,8862
1659434676.317424,8829
1659434676.362189,8764
1659434676.406954,8674
1659434676.451719,8633
1659434676.486062,8618
1659434676.520405,8617
1659434676.564486,8619
1659434676.608568,8642
1659434676.65265,8653
1659434676.694681,8654
1659434676.736712,8671
1659434676.775326,8694
1659434676.813941,8696
1659434676.852555,8709
1659434676.891169,8710
1659434676.929783,8731
1659434676.968397,8727
1659434677.010429,8720
1659434677.05246,8726
1659434677.091416,8714
1659434677.130372,8718
1659434677.169328,8683
1659434677.207258,8651
1659434677.245189,8640
1659434677.28312,8629
1659434677.325664,8633
1659434677.368208,8627
1659434677.407164,8633
1659434677.44612,8645
1659434677.485075,8621
1659434677.526594,8627
1659434677.568113,8640
1659434677.607411,8661
1659434677.646708,8685
1659434677.686006,8683
1659434677.728037,8668
1659434677.770069,8676
1659434677.807999,8682
1659434677.84593,8696
1659434677.883861,8708
1659434677.928284,8716
1659434677.972708,8736
1659434678.017131,8718
1659434678.059675,8697
1659434678.102219,8682
1659434678.14015,8656
1659434678.17808,8656
1659434678.216011,8676
1659434678.256505,8707
1659434678.296998,8739
1659434678.336638,8758
1659434678.376277,8761
1659434678.415916,8744
1659434678.454189,8779
1659434678.492461,8791
1659434678.530734,8818
1659434678.573278,8828
1659434678.615822,8828
1659434678.654778,8815
1659434678.693733,8823
1659434678.732689,8837
1659434678.771303,8837
1659434678.809918,8859
1659434678.848532,8859
1659434678.890051,8858
1659434678.931569,8851
1659434678.971209,8832
1659434679.010848,8824
1659434679.050487,8819
1659434679.090981,8816
1659434679.131474,8801
1659434679.17043,8822
1659434679.209386,8809
1659434679.248342,8812
1659434679.289861,8793
1659434679.33138,8788
1659434679.370677,8809
1659434679.409975,8842
1659434679.449273,8874
1659434679.493354,8883
1659434679.537436,8887
1659434679.581518,8849
1659434679.623036,8847
1659434679.664555,8843
1659434679.703169,8836
1659434679.741784,8819
1659434679.780398,8818
1659434679.819354,8794
1659434679.85831,8792
1659434679.897265,8803
1659434679.939809,8836
1659434679.982353,8837
1659434680.021309,8859
1659434680.060265,8877
1659434680.099221,8864
1659434680.140227,8865
1659434680.181233,8848
1659434680.220189,8848
1659434680.259145,8836
1659434680.298101,8818
1659434680.336715,8813
1659434680.375329,8828
1659434680.413944,8838
1659434680.455975,8859
1659434680.498006,8831
1659434680.53662,8781
1659434680.575235,8765
1659434680.613849,8760
1659434680.65588,8747
1659434680.697912,8745
1659434680.736526,8750
1659434680.77514,8752
1659434680.813754,8740
1659434680.855785,8746
1659434680.897817,8726
1659434680.937114,8716
1659434680.976412,8728
1659434681.01571,8743
1659434681.059449,8753
1659434681.103189,8757
1659434681.14693,8788
1659434681.187936,8831
1659434681.228942,8839
1659434681.267214,8830
1659434681.305487,8825
1659434681.343759,8789
1659434681.382032,8744
1659434681.420304,8714
1659434681.458576,8707
1659434681.500608,8711
1659434681.542639,8724
1659434681.581595,8717
1659434681.620551,8708
1659434681.659507,8694
1659434681.698121,8703
1659434681.736735,8697
1659434681.775349,8715
1659434681.816868,8713
1659434681.858387,8714
1659434681.898368,8713
1659434681.938349,8704
1659434681.97833,8681
1659434682.019336,8683
1659434682.060343,8693
1659434682.098957,8706
1659434682.137571,8701
1659434682.176185,8696
1659434682.218216,8679
1659434682.260248,8672
1659434682.299204,8660
1659434682.33816,8652
1659434682.377115,8645
1659434682.417609,8623
1659434682.458103,8633
1659434682.50039,8630
1659434682.542678,8643
1659434682.584966,8654
1659434682.627253,8661
1659434682.665184,8650
1659434682.703115,8646
1659434682.741045,8640
1659434682.780001,8652
1659434682.818957,8665
1659434682.857913,8660
1659434682.899945,8643
1659434682.941976,8636
1659434682.980248,8611
1659434683.018521,8599
1659434683.056793,8586
1659434683.099337,8566
1659434683.141881,8565
1659434683.181179,8581
1659434683.220476,8573
1659434683.259774,8562
1659434683.30078,8551
1659434683.341786,8532
1659434683.385868,8542
1659434683.42995,8548
1659434683.474031,8550
1659434683.508374,8540
1659434683.542717,8544
1659434683.586798,8546
1659434683.63088,8555
1659434683.674962,8575
1659434683.713576,8565
1659434683.75219,8545
1659434683.790804,8523
1659434683.832323,8502
1659434683.873842,8499
1659434683.912456,8483
1659434683.95107,8494
1659434683.989684,8499
1659434684.031203,8496
1659434684.072722,8494
1659434684.11202,8500
1659434684.151317,8500
1659434684.190615,8500
1659434684.229229,8515
1659434684.267843,8533
1659434684.306457,8545
1659434684.347976,8544
1659434684.389495,8544
1659434684.428792,8544
1659434684.46809,8532
1659434684.507388,8543
1659434684.548394,8535
1659434684.5894,8521
1659434684.627331,8497
1659434684.665262,8469
1659434684.703192,8470
1659434684.744199,8467
1659434684.785205,8470
1659434684.824502,8454
1659434684.8638,8465
1659434684.903098,8471
1659434684.947179,8466
1659434684.991261,8485
1659434685.035342,8494
1659434685.06866,8501
1659434685.101978,8497
1659434685.146743,8503
1659434685.191508,8507
1659434685.236273,8508
1659434685.270103,8505
1659434685.303933,8506
1659434685.348356,8506
1659434685.39278,8501
1659434685.437203,8500
1659434685.475817,8478
1659434685.514432,8459
1659434685.553046,8453
1659434685.594565,8442
1659434685.636083,8449
1659434685.674698,8454
1659434685.713312,8453
1659434685.751926,8447
1659434685.79447,8441
1659434685.837014,8456
1659434685.875628,8452
1659434685.914242,8478
1659434685.952856,8468
1659434685.991471,8464
1659434686.030085,8483
1659434686.068699,8498
1659434686.110218,8509
1659434686.151736,8516
1659434686.190692,8487
1659434686.229648,8490
1659434686.268604,8517
1659434686.310635,8526
1659434686.352667,8544
1659434686.391964,8560
1659434686.431262,8571
1659434686.47056,8571
1659434686.512078,8579
1659434686.553597,8586
1659434686.59187,8590
1659434686.630142,8582
1659434686.668415,8574
1659434686.710958,8583
1659434686.753502,8603
1659434686.792117,8612
1659434686.830731,8641
1659434686.869345,8649
1659434686.913085,8658
1659434686.956825,8681
1659434687.000565,8668
1659434687.041571,8682
1659434687.082577,8695
1659434687.119739,8703
1659434687.156901,8700
1659434687.194063,8683
1659434687.231225,8666
1659434687.27018,8659
1659434687.309136,8653
1659434687.348092,8649
1659434687.390124,8657
1659434687.432155,8652
1659434687.470769,8640
1659434687.509383,8638
1659434687.547997,8651
1659434687.589004,8641
1659434687.63001,8644
1659434687.675117,8669
1659434687.720224,8682
1659434687.765331,8688
1659434687.798648,8684
1659434687.831965,8693
1659434687.875705,8692
1659434687.919446,8703
1659434687.963185,8712
1659434688.002483,8714
1659434688.04178,8707
1659434688.081078,8684
1659434688.122084,8666
1659434688.163091,8665
1659434688.201021,8647
1659434688.238952,8643
1659434688.276883,8637
1659434688.316522,8630
1659434688.356161,8617
1659434688.395801,8617
1659434688.437832,8626
1659434688.479863,8625
1659434688.518819,8622
1659434688.557775,8638
1659434688.596731,8648
1659434688.635687,8654
1659434688.674643,8642
1659434688.713599,8646
1659434688.755118,8657
1659434688.796636,8652
1659434688.834909,8676
1659434688.873181,8669
1659434688.911454,8636
1659434688.953998,8622
1659434688.996542,8617
1659434689.035156,8625
1659434689.07377,8611
1659434689.112384,8619
1659434689.15339,8605
1659434689.194396,8594
1659434689.23882,8582
1659434689.283243,8580
1659434689.327667,8573
1659434689.361497,8560
1659434689.395327,8561
1659434689.439409,8564
1659434689.48349,8551
1659434689.527572,8561
1659434689.566869,8563
1659434689.606167,8556
1659434689.645465,8558
1659434689.687496,8579
1659434689.729527,8586
1659434689.768142,8583
1659434689.806756,8572
1659434689.84537,8555
1659434689.886889,8546
1659434689.928408,8535
1659434689.967705,8528
1659434690.007003,8527
1659434690.0463,8532
1659434690.084573,8528
1659434690.122845,8528
1659434690.161118,8517
1659434690.202124,8523
1659434690.24313,8526
1659434690.282086,8531
1659434690.321042,8540
1659434690.359998,8541
1659434690.401517,8547
1659434690.443035,8548
1659434690.481308,8543
1659434690.51958,8542
1659434690.557853,8542
1659434690.599372,8551
1659434690.64089,8560
1659434690.68053,8551
1659434690.720169,8527
1659434690.759808,8517
1659434690.800815,8503
1659434690.841821,8495
1659434690.880777,8498
1659434690.919733,8486
1659434690.958688,8487
1659434691.003453,8492
1659434691.048219,8490
1659434691.092984,8494
1659434691.126301,8486
1659434691.159619,8482
1659434691.203701,8474
1659434691.247782,8485
1659434691.291864,8486
1659434691.325181,8496
1659434691.358499,8503
1659434691.402239,8496
1659434691.445979,8506
1659434691.489719,8506
1659434691.528333,8521
1659434691.566947,8512
1659434691.605561,8497
1659434691.648618,8471
1659434691.691674,8469
1659434691.730289,8454
1659434691.768903,8447
1659434691.807517,8456
1659434691.849036,8452
1659434691.890554,8454
1659434691.930194,8455
1659434691.969833,8455
1659434692.009472,8460
1659434692.048087,8444
1659434692.086701,8440
1659434692.125315,8457
1659434692.167346,8464
1659434692.209378,8465
1659434692.248675,8451
1659434692.287973,8461
1659434692.327271,8471
1659434692.368277,8473
1659434692.409283,8476
1659434692.447897,8476
1659434692.486511,8457
1659434692.525125,8431
1659434692.567669,8421
1659434692.610213,8414
1659434692.648486,8415
1659434692.686758,8409
1659434692.725031,8408
1659434692.76877,8398
1659434692.81251,8404
1659434692.856251,8408
1659434692.895548,8399
1659434692.934846,8403
1659434692.974143,8406
1659434693.012416,8415
1659434693.050688,8412
1659434693.088961,8419
1659434693.127917,8425
1659434693.166873,8425
1659434693.205828,8416
1659434693.24786,8428
1659434693.289891,8447
1659434693.328505,8442
1659434693.367119,8424
1659434693.405734,8410
1659434693.44674,8397
1659434693.487746,8389
1659434693.526702,8377
1659434693.565658,8377
1659434693.604614,8377
1659434693.646132,8390
1659434693.687651,8371
1659434693.731733,8364
1659434693.775815,8364
1659434693.819896,8359
1659434693.858852,8363
1659434693.897808,8362
1659434693.936764,8375
1659434693.978283,8383
1659434694.019801,8383
1659434694.058757,8394
1659434694.097713,8407
1659434694.136669,8417
1659434694.175967,8433
1659434694.215264,8425
1659434694.254562,8421
1659434694.296081,8406
1659434694.3376,8403
1659434694.376214,8402
1659434694.414828,8410
1659434694.453442,8405
1659434694.494961,8389
1659434694.536479,8385
1659434694.574752,8381
1659434694.613024,8392
1659434694.651297,8383
1659434694.689911,8391
1659434694.728525,8402
1659434694.767139,8405
1659434694.809683,8409
1659434694.852227,8412
1659434694.891183,8416
1659434694.930139,8416
1659434694.969095,8424
1659434695.010614,8435
1659434695.052133,8438
1659434695.096898,8446
1659434695.141663,8444
1659434695.186428,8430
1659434695.220771,8413
1659434695.255113,8400
1659434695.299195,8391
1659434695.343277,8390
1659434695.387358,8379
1659434695.420676,8378
1659434695.453993,8389
1659434695.498417,8390
1659434695.54284,8388
1659434695.587264,8386
1659434695.625536,8388
1659434695.663808,8408
1659434695.702081,8417
1659434695.744112,8432
1659434695.786144,8432
1659434695.824758,8438
1659434695.863372,8425
1659434695.901986,8445
1659434695.942992,8454
1659434695.983999,8458
1659434696.022613,8467
1659434696.061227,8447
1659434696.099841,8432
1659434696.139139,8417
1659434696.178436,8410
1659434696.217734,8393
1659434696.259253,8387
1659434696.300771,8387
1659434696.339044,8385
1659434696.377316,8387
1659434696.415589,8388
1659434696.458133,8392
1659434696.500677,8394
1659434696.539633,8398
1659434696.578588,8408
1659434696.617544,8412
1659434696.658551,8414
1659434696.699557,8414
1659434696.738513,8424
1659434696.777468,8427
1659434696.816424,8425
1659434696.857431,8436
1659434696.898437,8437
1659434696.937051,8436
1659434696.975665,8421
1659434697.014279,8422
1659434697.058361,8406
1659434697.102443,8411
1659434697.146524,8407
1659434697.179329,8405
1659434697.212134,8388
1659434697.256216,8401
1659434697.300297,8414
1659434697.344379,8418
1659434697.383677,8409
1659434697.422975,8420
1659434697.462272,8427
1659434697.504816,8431
1659434697.54736,8451
1659434697.585632,8443
1659434697.623905,8447
1659434697.662177,8462
1659434697.704721,8472
1659434697.747265,8474
1659434697.785879,8466
1659434697.824494,8471
1659434697.863108,8459
1659434697.901722,8446
1659434697.940336,8432
1659434697.97895,8418
1659434698.021494,8412
1659434698.064038,8402
1659434698.102994,8403
1659434698.14195,8398
1659434698.180906,8386
1659434698.221399,8377
1659434698.261893,8374
1659434698.301191,8388
1659434698.340488,8396
1659434698.379786,8407
1659434698.42233,8412
1659434698.464874,8410
1659434698.503488,8415
1659434698.542102,8408
1659434698.580716,8411
1659434698.62514,8418
1659434698.669563,8414
1659434698.713986,8398
1659434698.746791,8381
1659434698.779596,8351
1659434698.823678,8325
1659434698.86776,8316
1659434698.911841,8306
1659434698.950455,8293
1659434698.98907,8284
1659434699.027684,8276
1659434699.070228,8275
1659434699.112772,8278
1659434699.151044,8278
1659434699.189317,8275
1659434699.227589,8284
1659434699.268595,8288
1659434699.309602,8286
1659434699.348557,8298
1659434699.387513,8290
1659434699.426469,8296
1659434699.465425,8285
1659434699.504381,8280
1659434699.543337,8279
1659434699.584856,8266
1659434699.626374,8240
1659434699.664989,8221
1659434699.703603,8221
1659434699.742217,8210
1659434699.784248,8199
1659434699.82628,8199
1659434699.865236,8204
1659434699.904191,8229
1659434699.943147,8238
1659434699.984666,8241
1659434700.026185,8233
1659434700.065141,8257
1659434700.104097,8257
1659434700.143053,8273
1659434700.183546,8262
1659434700.22404,8264
1659434700.268121,8260
1659434700.312203,8266
1659434700.356285,8264
1659434700.395241,8268
1659434700.434197,8275
1659434700.473152,8266
1659434700.514159,8266
1659434700.555165,8257
1659434700.594463,8239
1659434700.63376,8245
1659434700.673058,8243
1659434700.714576,8249
1659434700.756095,8242
1659434700.795735,8234
1659434700.835374,8223
1659434700.875013,8218
1659434700.913969,8210
1659434700.952925,8208
1659434700.991881,8217
1659434701.034425,8205
1659434701.076969,8211
1659434701.115241,8208
1659434701.153514,8211
1659434701.191786,8228
1659434701.2304,8229
1659434701.269015,8220
1659434701.307629,8206
1659434701.350685,8187
1659434701.393742,8181
1659434701.432014,8174
1659434701.470287,8154
1659434701.508559,8151
1659434701.549053,8156
1659434701.589546,8146
1659434701.629186,8139
1659434701.668825,8123
1659434701.708464,8130
1659434701.750496,8135
1659434701.792527,8150
1659434701.836951,8170
1659434701.881374,8164
1659434701.925797,8184
1659434701.959115,8185
1659434701.992432,8180
1659434702.037197,8178
1659434702.081963,8169
1659434702.126728,8160
1659434702.164658,8129
1659434702.202589,8103
1659434702.24052,8089
1659434702.283576,8081
1659434702.326633,8076
1659434702.364905,8081
1659434702.403178,8091
1659434702.44145,8078
1659434702.481944,8089
1659434702.522438,8081
1659434702.561393,8075
1659434702.600349,8069
1659434702.639305,8074
1659434702.677577,8073
1659434702.71585,8082
1659434702.754122,8097
1659434702.795641,8104
1659434702.83716,8109
1659434702.876116,8120
1659434702.915072,8124
1659434702.954028,8117
1659434702.995547,8101
1659434703.037065,8086
1659434703.07568,8074
1659434703.114294,8056
1659434703.152908,8045
1659434703.194939,8050
1659434703.23697,8052
1659434703.276268,8055
1659434703.315566,8055
1659434703.354863,8062
1659434703.395357,8068
1659434703.435851,8089
1659434703.474807,8094
1659434703.513762,8110
1659434703.552718,8117
1659434703.597142,8118
1659434703.641565,8131
1659434703.685988,8137
1659434703.719819,8136
1659434703.753649,8143
1659434703.79773,8134
1659434703.841812,8129
1659434703.885894,8113
1659434703.919211,8110
1659434703.952529,8099
1659434703.996952,8084
1659434704.041376,8085
1659434704.085799,8083
1659434704.125438,8087
1659434704.165078,8094
1659434704.204717,8095
1659434704.246748,8094
1659434704.28878,8096
1659434704.327735,8098
1659434704.366691,8105
1659434704.405647,8108
1659434704.44392,8128
1659434704.482192,8150
1659434704.520465,8166
1659434704.562496,8167
1659434704.604527,8170
1659434704.643142,8167
1659434704.681756,8154
1659434704.72037,8151
1659434704.761376,8140
1659434704.802382,8139
1659434704.840997,8141
1659434704.879611,8148
1659434704.918225,8148
1659434704.960769,8156
1659434705.003313,8159
1659434705.041927,8151
1659434705.080541,8153
1659434705.119155,8155
1659434705.160674,8156
1659434705.202193,8159
1659434705.24149,8171
1659434705.280788,8175
1659434705.320086,8194
1659434705.364167,8187
1659434705.408249,8199
1659434705.452331,8214
1659434705.494362,8224
1659434705.536393,8225
1659434705.575007,8227
1659434705.613622,8222
1659434705.652236,8212
1659434705.692729,8198
1659434705.733223,8183
1659434705.771837,8172
1659434705.810452,8185
1659434705.849066,8183
1659434705.888021,8192
1659434705.926977,8183
1659434705.965933,8184
1659434706.007452,8190
1659434706.048971,8202
1659434706.086902,8211
1659434706.124832,8224
1659434706.162763,8233
1659434706.202061,8229
1659434706.241358,8238
1659434706.280656,8251
1659434706.321662,8259
1659434706.362668,8279
1659434706.401624,8288
1659434706.44058,8291
1659434706.479536,8294
1659434706.52208,8290
1659434706.564624,8280
1659434706.603238,8275
1659434706.641852,8268
1659434706.680466,8261
1659434706.724548,8260
1659434706.76863,8261
1659434706.812711,8266
1659434706.846029,8265
1659434706.879346,8262
1659434706.923428,8266
1659434706.96751,8261
1659434707.011591,8262
1659434707.053623,8266
1659434707.095654,8274
1659434707.134952,8288
1659434707.174249,8290
1659434707.213547,8302
1659434707.252161,8302
1659434707.290775,8308
1659434707.32939,8311
1659434707.370396,8318
1659434707.411402,8326
1659434707.451383,8330
1659434707.491364,8310
1659434707.531345,8288
1659434707.572864,8285
1659434707.614383,8264
1659434707.653338,8261
1659434707.692294,8263
1659434707.73125,8268
1659434707.769865,8260
1659434707.808479,8266
1659434707.847093,8265
1659434707.889124,8255
1659434707.931155,8271
1659434707.969428,8279
1659434708.0077,8283
1659434708.045973,8296
1659434708.087492,8305
1659434708.12901,8324
1659434708.167283,8320
1659434708.205555,8317
1659434708.243828,8324
1659434708.285859,8323
1659434708.327891,8326
1659434708.366846,8326
1659434708.405802,8326
1659434708.444758,8313
1659434708.486789,8304
1659434708.528821,8295
1659434708.572903,8294
1659434708.616984,8288
1659434708.661066,8288
1659434708.700364,8275
1659434708.739661,8275
1659434708.778959,8273
1659434708.817231,8266
1659434708.855504,8271
1659434708.893776,8258
1659434708.932049,8256
1659434708.970321,8257
1659434709.008594,8261
1659434709.047891,8264
1659434709.087189,8269
1659434709.126486,8261
1659434709.167493,8261
1659434709.208499,8264
1659434709.249505,8255
1659434709.290511,8245
1659434709.329125,8239
1659434709.367739,8233
1659434709.406354,8240
1659434709.451119,8243
1659434709.495884,8237
1659434709.540649,8235
1659434709.574479,8235
1659434709.608309,8230
1659434709.652733,8222
1659434709.697156,8230
1659434709.741579,8230
1659434709.775409,8239
1659434709.80924,8225
1659434709.853321,8221
1659434709.897403,8210
1659434709.941485,8206
1659434709.981124,8205
1659434710.020763,8204
1659434710.060403,8221
1659434710.101409,8229
1659434710.142415,8237
1659434710.181029,8227
1659434710.219643,8230
1659434710.258258,8230
1659434710.299264,8228
1659434710.34027,8223
1659434710.379568,8228
1659434710.418865,8228
1659434710.458163,8222
1659434710.496777,8246
1659434710.535391,8231
1659434710.574005,8238
1659434710.615524,8255
1659434710.657043,8249
1659434710.69634,8256
1659434710.735638,8257
1659434710.774936,8275
1659434710.81748,8278
1659434710.860023,8289
1659434710.898296,8299
1659434710.936568,8297
1659434710.974841,8286
1659434711.019948,8260
1659434711.065055,8245
1659434711.110161,8224
1659434711.148776,8212
1659434711.18739,8199
1659434711.226004,8203
1659434711.26701,8193
1659434711.308016,8184
1659434711.346972,8190
1659434711.385928,8177
1659434711.424884,8174
1659434711.463156,8167
1659434711.501429,8167
1659434711.539701,8172
1659434711.58122,8185
1659434711.622739,8190
1659434711.662378,8186
1659434711.702018,8185
1659434711.741657,8185
1659434711.782663,8197
1659434711.823669,8199
1659434711.861942,8195
1659434711.900214,8204
1659434711.938487,8176
1659434711.978126,8153
1659434712.017765,8139
1659434712.057405,8120
1659434712.098411,8112
1659434712.139417,8109
1659434712.179911,8106
1659434712.220404,8102
1659434712.25936,8104
1659434712.298316,8103
1659434712.337272,8113
1659434712.381695,8123
1659434712.426119,8129
1659434712.470542,8144
1659434712.503347,8159
1659434712.536152,8162
1659434712.580917,8170
1659434712.625682,8186
1659434712.670447,8200
1659434712.709062,8210
1659434712.747676,8238
1659434712.78629,8223
1659434712.827296,8232
1659434712.868302,8229
1659434712.907942,8231
1659434712.947581,8227
1659434712.98722,8221
1659434713.028739,8213
1659434713.070258,8198
1659434713.108872,8206
1659434713.147486,8207
1659434713.1861,8215
1659434713.225398,8223
1659434713.264696,8227
1659434713.303993,8233
1659434713.346537,8243
1659434713.389081,8243
1659434713.427354,8237
1659434713.465626,8255
1659434713.503898,8261
1659434713.544905,8261
1659434713.585911,8272
1659434713.624867,8269
1659434713.663823,8267
1659434713.702779,8246
1659434713.744297,8238
1659434713.785816,8237
1659434713.82443,8239
1659434713.863045,8247
1659434713.901659,8249
1659434713.94369,8272
1659434713.985721,8292
1659434714.027496,8307
1659434714.069271,8325
1659434714.111047,8333
1659434714.152822,8352
1659434714.19434,8346
1659434714.235859,8351
1659434714.275157,8362
1659434714.314454,8382
1659434714.353752,8402
1659434714.392025,8420
1659434714.430297,8450
1659434714.468569,8462
1659434714.510601,8477
1659434714.552632,8468
1659434714.591246,8467
1659434714.62986,8479
1659434714.668475,8454
1659434714.70743,8465
1659434714.746386,8463
1659434714.785342,8465
1659434714.825836,8466
1659434714.866329,8479
1659434714.905969,8489
1659434714.945608,8489
1659434714.985247,8488
1659434715.026766,8486
1659434715.068285,8500
1659434715.112367,8506
1659434715.156448,8516
1659434715.20053,8517
1659434715.233848,8538
1659434715.267165,8544
1659434715.31193,8553
1659434715.356695,8543
1659434715.40146,8554
1659434715.434778,8551
1659434715.468096,8553
1659434715.512177,8541
1659434715.556259,8538
1659434715.600341,8548
1659434715.639296,8552
1659434715.678252,8559
1659434715.717208,8572
1659434715.757702,8575
1659434715.798195,8590
1659434715.837493,8582
1659434715.876791,8592
1659434715.916088,8614
1659434715.955044,8629
1659434715.994,8637
1659434716.032956,8658
1659434716.07345,8661
1659434716.113943,8660
1659434716.153241,8660
1659434716.192538,8665
1659434716.231836,8654
1659434716.273867,8670
1659434716.315899,8665
1659434716.354171,8662
1659434716.392444,8658
1659434716.430716,8640
1659434716.470014,8638
1659434716.509311,8637
1659434716.548609,8652
1659434716.59064,8652
1659434716.632672,8656
1659434716.674703,8649
1659434716.716734,8657
1659434716.755348,8669
1659434716.793963,8680
1659434716.832577,8698
1659434716.877342,8699
1659434716.922107,8692
1659434716.966872,8696
1659434716.998652,8697
1659434717.030432,8695
1659434717.074513,8686
1659434717.118595,8698
1659434717.162677,8691
1659434717.202316,8701
1659434717.241956,8690
1659434717.281595,8684
1659434717.323114,8684
1659434717.364632,8677
1659434717.403588,8673
1659434717.442544,8661
1659434717.4815,8674
1659434717.523531,8675
1659434717.565563,8672
1659434717.603835,8666
1659434717.642108,8664
1659434717.68038,8671
1659434717.718652,8687
1659434717.756925,8684
1659434717.795197,8690
1659434717.837741,8699
1659434717.880285,8698
1659434717.918216,8701
1659434717.956147,8700
1659434717.994077,8697
1659434718.035084,8715
1659434718.07609,8717
1659434718.114704,8724
1659434718.153318,8742
1659434718.191932,8759
1659434718.233964,8767
1659434718.275995,8772
1659434718.314609,8784
1659434718.353224,8802
1659434718.391838,8807
1659434718.436603,8805
1659434718.481368,8791
1659434718.526133,8799
1659434718.558938,8797
1659434718.591743,8805
1659434718.636166,8809
1659434718.68059,8805
1659434718.725013,8805
1659434718.758843,8815
1659434718.792673,8825
1659434718.837097,8829
1659434718.88152,8831
1659434718.925944,8837
1659434718.964216,8842
1659434719.002488,8851
1659434719.040761,8859
1659434719.08228,8887
1659434719.123798,8919
1659434719.163096,8965
1659434719.202394,8977
1659434719.241691,8993
1659434719.280305,8981
1659434719.31892,8969
1659434719.357534,8952
1659434719.396148,8942
1659434719.434762,8924
1659434719.473376,8916
1659434719.5178,8901
1659434719.562223,8901
1659434719.606647,8896
1659434719.645602,8871
1659434719.684558,8873
1659434719.723514,8851
1659434719.765546,8827
1659434719.807577,8817
1659434719.846533,8788
1659434719.885489,8771
1659434719.924444,8756
1659434719.966476,8743
1659434720.008507,8738
1659434720.047122,8739
1659434720.085736,8727
1659434720.12435,8709
1659434720.163306,8709
1659434720.202261,8696
1659434720.241217,8694
1659434720.281711,8697
1659434720.322205,8696
1659434720.361502,8714
1659434720.4008,8722
1659434720.440098,8729
1659434720.482129,8720
1659434720.52416,8726
1659434720.562433,8720
1659434720.600705,8711
1659434720.638978,8694
1659434720.679984,8697
1659434720.72099,8691
1659434720.760971,8695
1659434720.800952,8704
1659434720.840933,8719
1659434720.881939,8706
1659434720.922945,8708
1659434720.967369,8712
1659434721.011792,8699
1659434721.056216,8693
1659434721.09483,8685
1659434721.133444,8674
1659434721.172058,8672
1659434721.213064,8676
1659434721.254071,8676
1659434721.292685,8678
1659434721.331299,8648
1659434721.369913,8636
1659434721.409211,8638
1659434721.448508,8631
1659434721.487806,8616
1659434721.5283,8624
1659434721.568793,8630
1659434721.607407,8617
1659434721.646022,8618
1659434721.684636,8623
1659434721.727692,8619
1659434721.770749,8614
1659434721.809363,8611
1659434721.847977,8620
1659434721.886591,8627
1659434721.925547,8639
1659434721.964503,8661
1659434722.003459,8651
1659434722.044978,8650
1659434722.086497,8642
1659434722.124769,8621
1659434722.163041,8620
1659434722.201314,8611
1659434722.243858,8605
1659434722.286402,8598
1659434722.325016,8601
1659434722.36363,8604
1659434722.402244,8595
1659434722.443763,8603
1659434722.485282,8601
1659434722.526801,8582
1659434722.568319,8571
1659434722.609838,8569
1659434722.651357,8556
1659434722.690313,8541
1659434722.729269,8547
1659434722.768225,8552
1659434722.807181,8561
1659434722.846136,8565
1659434722.885092,8561
1659434722.927124,8560
1659434722.969155,8569
1659434723.008453,8588
1659434723.04775,8592
1659434723.087048,8619
1659434723.128567,8612
1659434723.170085,8629
1659434723.21485,8611
1659434723.259616,8604
1659434723.304381,8599
1659434723.338211,8592
1659434723.372041,8582
1659434723.416123,8597
1659434723.460204,8592
1659434723.504286,8570
1659434723.542558,8568
1659434723.580831,8557
1659434723.619103,8544
1659434723.660622,8532
1659434723.702141,8511
1659434723.740072,8497
1659434723.778002,8484
1659434723.815933,8494
1659434723.854889,8497
1659434723.893845,8488
1659434723.932801,8493
1659434723.974832,8494
1659434724.016864,8504
1659434724.05582,8497
1659434724.094775,8487
1659434724.133731,8488
1659434724.174737,8481
1659434724.215744,8484
1659434724.254699,8511
1659434724.293655,8530
1659434724.332611,8525
1659434724.371567,8528
1659434724.410523,8496
1659434724.449479,8478
1659434724.490998,8470
1659434724.532516,8470
1659434724.571131,8462
1659434724.609745,8459
1659434724.648359,8452
1659434724.69039,8453
1659434724.732422,8477
1659434724.776162,8465
1659434724.819902,8467
1659434724.863642,8467
1659434724.897472,8466
1659434724.931302,8476
1659434724.976067,8468
1659434725.020832,8439
1659434725.065597,8421
1659434725.098915,8399
1659434725.132232,8382
1659434725.176314,8360
1659434725.220396,8358
1659434725.264477,8346
1659434725.304116,8344
1659434725.343756,8354
1659434725.383395,8329
1659434725.424914,8338
1659434725.466433,8344
1659434725.505047,8339
1659434725.543661,8338
1659434725.582275,8342
1659434725.623794,8353
1659434725.665313,8341
1659434725.704269,8335
1659434725.743225,8334
1659434725.782181,8317
1659434725.821136,8293
1659434725.860092,8274
1659434725.899048,8255
1659434725.94108,8240
1659434725.983111,8224
1659434726.021725,8209
1659434726.060339,8205
1659434726.098953,8203
1659434726.137909,8212
1659434726.176865,8220
1659434726.215821,8211
1659434726.258365,8221
1659434726.300909,8200
1659434726.342428,8193
1659434726.383946,8197
1659434726.422219,8190
1659434726.460491,8195
1659434726.498764,8194
1659434726.540795,8194
1659434726.582827,8173
1659434726.622124,8158
1659434726.661422,8143
1659434726.700719,8127
1659434726.744459,8127
1659434726.788199,8122
1659434726.831939,8122
1659434726.864744,8121
1659434726.897549,8131
1659434726.941972,8141
1659434726.986396,8151
1659434727.030819,8157
1659434727.06875,8179
1659434727.106681,8196
1659434727.144612,8199
1659434727.187155,8210
1659434727.229699,8215
1659434727.268655,8217
1659434727.307611,8227
1659434727.346567,8233
1659434727.387573,8225
1659434727.42858,8214
1659434727.467535,8210
1659434727.506491,8209
1659434727.545447,8209
1659434727.584403,8215
1659434727.623359,8212
1659434727.662315,8220
1659434727.703834,8217
1659434727.745353,8223
1659434727.783967,8223
1659434727.822581,8238
1659434727.861195,8239
1659434727.902201,8249
1659434727.943207,8244
1659434727.98148,8257
1659434728.019752,8278
1659434728.058025,8282
1659434728.099544,8302
1659434728.141062,8317
1659434728.180018,8323
1659434728.218974,8316
1659434728.25793,8303
1659434728.302353,8302
1659434728.346777,8303
1659434728.3912,8304
1659434728.424518,8319
1659434728.457835,8321
1659434728.502942,8329
1659434728.548049,8328
1659434728.593156,8343
1659434728.632112,8356
1659434728.671067,8369
1659434728.710023,8368
1659434728.752055,8379
1659434728.794086,8384
1659434728.833042,8385
1659434728.871998,8402
1659434728.910954,8398
1659434728.95196,8421
1659434728.992966,8433
1659434729.03158,8426
1659434729.070194,8422
1659434729.108809,8408
1659434729.148448,8410
1659434729.188087,8409
1659434729.227727,8415
1659434729.268733,8426
1659434729.309739,8420
1659434729.348011,8430
1659434729.386284,8428
1659434729.424556,8426
1659434729.466075,8434
1659434729.507594,8451
1659434729.546892,8463
1659434729.586189,8485
1659434729.625487,8501
1659434729.666493,8513
1659434729.707499,8528
1659434729.746113,8519
1659434729.784728,8529
1659434729.823342,8514
1659434729.868448,8500
1659434729.913555,8494
1659434729.958662,8475
1659434729.996935,8461
1659434730.035207,8462
1659434730.07348,8468
1659434730.115511,8469
1659434730.157542,8481
1659434730.196498,8476
1659434730.235454,8472
1659434730.27441,8471
1659434730.312341,8480
1659434730.350271,8484
1659434730.388202,8485
1659434730.429208,8500
1659434730.470215,8505
1659434730.509512,8511
1659434730.54881,8509
1659434730.588107,8514
1659434730.629626,8519
1659434730.671145,8511
1659434730.710101,8490
1659434730.749057,8483
1659434730.788013,8475
1659434730.830044,8476
1659434730.872075,8465
1659434730.910348,8463
1659434730.94862,8459
1659434730.986893,8464
1659434731.028412,8461
1659434731.06993,8461
1659434731.109228,8479
1659434731.148525,8482
1659434731.187823,8495
1659434731.231563,8491
1659434731.275303,8505
1659434731.319043,8500
1659434731.351848,8511
1659434731.384653,8516
1659434731.429418,8513
1659434731.474183,8509
1659434731.518948,8490
1659434731.56098,8483
1659434731.603011,8471
1659434731.641625,8477
1659434731.680239,8477
1659434731.718853,8486
1659434731.758493,8477
1659434731.798132,8476
1659434731.837771,8489
1659434731.87929,8479
1659434731.920809,8493
1659434731.959765,8493
1659434731.998721,8505
1659434732.037677,8515
1659434732.080221,8518
1659434732.122765,8527
1659434732.161037,8531
1659434732.199309,8542
1659434732.237582,8534
1659434732.275854,8521
1659434732.314127,8498
1659434732.352399,8471
1659434732.393918,8470
1659434732.435437,8454
1659434732.474735,8455
1659434732.514032,8471
1659434732.55333,8478
1659434732.594336,8483
1659434732.635342,8486
1659434732.673956,8497
1659434732.71257,8512
1659434732.751184,8517
1659434732.793216,8520
1659434732.835247,8520
1659434732.879329,8520
1659434732.923411,8528
1659434732.967492,8525
1659434733.001323,8530
1659434733.035152,8527
1659434733.079918,8513
1659434733.124683,8494
1659434733.169448,8467
1659434733.208062,8471
1659434733.246676,8454
1659434733.28529,8446
1659434733.326297,8454
1659434733.367303,8451
1659434733.4066,8455
1659434733.445898,8454
1659434733.485196,8464
1659434733.523468,8459
1659434733.56174,8460
1659434733.600013,8464
1659434733.641019,8465
1659434733.682025,8472
1659434733.720298,8458
1659434733.75857,8458
1659434733.796843,8463
1659434733.838874,8467
1659434733.880905,8448
1659434733.91952,8422
1659434733.958134,8407
1659434733.996748,8379
1659434734.036387,8371
1659434734.076027,8352
1659434734.115666,8342
1659434734.157185,8353
1659434734.198704,8351
1659434734.237318,8347
1659434734.275932,8355
1659434734.314546,8361
1659434734.35709,8366
1659434734.399634,8373
1659434734.444057,8381
1659434734.488481,8395
1659434734.532904,8403
1659434734.565197,8411
1659434734.597489,8417
1659434734.641912,8425
1659434734.686336,8426
1659434734.730759,8410
1659434734.765102,8392
1659434734.799444,8376
1659434734.843184,8370
1659434734.886924,8370
1659434734.930664,8358
1659434734.969962,8357
1659434735.009259,8345
1659434735.048557,8354
1659434735.090588,8361
1659434735.13262,8367
1659434735.171234,8382
1659434735.209848,8397
1659434735.248462,8409
1659434735.290494,8416
1659434735.332525,8424
1659434735.371823,8433
1659434735.41112,8433
1659434735.450418,8454
1659434735.48869,8461
1659434735.526963,8474
1659434735.565235,8466
1659434735.604191,8455
1659434735.643147,8446
1659434735.682103,8448
1659434735.723622,8436
1659434735.765141,8425
1659434735.806659,8446
1659434735.848178,8434
1659434735.886792,8440
1659434735.925406,8450
1659434735.96402,8449
1659434736.008444,8463
1659434736.052867,8462
1659434736.097291,8462
1659434736.129583,8460
1659434736.161875,8475
1659434736.206299,8479
1659434736.250722,8495
1659434736.295146,8509
1659434736.328976,8498
1659434736.362806,8485
1659434736.407229,8457
1659434736.451653,8455
1659434736.496076,8450
1659434736.535032,8463
1659434736.573988,8469
1659434736.612944,8476
1659434736.654462,8481
1659434736.695981,8486
1659434736.734937,8502
1659434736.773893,8511
1659434736.812849,8527
1659434736.851121,8553
1659434736.889394,8569
1659434736.927666,8581
1659434736.969185,8588
1659434737.010704,8597
1659434737.048635,8601
1659434737.086565,8606
1659434737.124496,8624
1659434737.163452,8622
1659434737.202408,8619
1659434737.241364,8594
1659434737.283908,8583
1659434737.326452,8586
1659434737.36797,8576
1659434737.409489,8573
1659434737.448103,8580
1659434737.486717,8580
1659434737.525332,8573
1659434737.567876,8596
1659434737.61042,8601
1659434737.649375,8611
1659434737.688331,8625
1659434737.727287,8609
1659434737.771711,8612
1659434737.816134,8608
1659434737.860557,8626
1659434737.893362,8639
1659434737.926167,8655
1659434737.970591,8644
1659434738.015014,8628
1659434738.059438,8608
1659434738.09771,8597
1659434738.135982,8592
1659434738.174255,8586
1659434738.216799,8602
1659434738.259343,8608
1659434738.298299,8605
1659434738.337255,8602
1659434738.37621,8612
1659434738.417729,8626
1659434738.459248,8635
1659434738.498204,8651
1659434738.53716,8640
1659434738.576116,8643
1659434738.618659,8638
1659434738.661203,8656
1659434738.699818,8665
1659434738.738432,8690
1659434738.777046,8680
1659434738.81566,8652
1659434738.854274,8650
1659434738.892889,8634
1659434738.933895,8641
1659434738.974901,8655
1659434739.013515,8651
1659434739.052129,8652
1659434739.090744,8652
1659434739.132775,8649
1659434739.174806,8648
1659434739.213762,8661
1659434739.252718,8675
1659434739.291674,8680
1659434739.33268,8695
1659434739.373686,8680
1659434739.411959,8693
1659434739.450231,8691
1659434739.488504,8700
1659434739.533269,8709
1659434739.578034,8687
1659434739.622799,8667
1659434739.66483,8642
1659434739.706862,8628
1659434739.745476,8605
1659434739.78409,8602
1659434739.822704,8598
1659434739.864223,8592
1659434739.905742,8589
1659434739.944698,8575
1659434739.983654,8588
1659434740.022609,8597
1659434740.061224,8606
1659434740.099838,8597
1659434740.138452,8597
1659434740.179971,8618
1659434740.221489,8614
1659434740.263265,8633
1659434740.30504,8635
1659434740.346815,8622
1659434740.38859,8594
1659434740.426862,8572
1659434740.465135,8561
1659434740.503407,8539
1659434740.543046,8528
1659434740.582686,8521
1659434740.622325,8516
1659434740.663331,8521
1659434740.704338,8513
1659434740.743293,8523
1659434740.782249,8515
1659434740.821205,8509
1659434740.864262,8514
1659434740.907318,8532
1659434740.945932,8528
1659434740.984547,8533
1659434741.023161,8545
1659434741.061775,8549
1659434741.100389,8557
1659434741.139003,8523
1659434741.180009,8492
1659434741.221016,8476
1659434741.259972,8458
1659434741.298928,8446
1659434741.337883,8433
1659434741.379402,8431
1659434741.420921,8432
1659434741.459535,8434
1659434741.498149,8426
1659434741.536763,8425
1659434741.578795,8442
1659434741.620826,8443
1659434741.659782,8449
1659434741.698738,8454
1659434741.737694,8463
1659434741.779725,8457
1659434741.821757,8475
1659434741.866522,8463
1659434741.911287,8461
1659434741.956052,8450
1659434741.994666,8430
1659434742.03328,8410
1659434742.071894,8389
1659434742.113413,8369
1659434742.154932,8366
1659434742.19423,8358
1659434742.233527,8356
1659434742.272825,8355
1659434742.313318,8358
1659434742.353812,8373
1659434742.392768,8369
1659434742.431724,8386
1659434742.47068,8373
1659434742.508952,8385
1659434742.547225,8400
1659434742.585497,8397
1659434742.627528,8404
1659434742.66956,8416
1659434742.707832,8431
1659434742.746105,8436
1659434742.784377,8423
1659434742.822991,8408
1659434742.861605,8389
1659434742.90022,8384
1659434742.941738,8375
1659434742.983257,8370
1659434743.022213,8366
1659434743.061169,8354
1659434743.100125,8358
1659434743.142156,8358
1659434743.184188,8366
1659434743.223485,8373
1659434743.262783,8405
1659434743.30208,8415
1659434743.342574,8412
1659434743.383068,8409
1659434743.427833,8412
1659434743.472598,8423
1659434743.517363,8439
1659434743.555635,8442
1659434743.593908,8431
1659434743.63218,8422
1659434743.674724,8399
1659434743.717268,8388
1659434743.755883,8378
1659434743.794497,8370
1659434743.833111,8374
1659434743.875142,8369
1659434743.917173,8373
1659434743.955788,8369
1659434743.994402,8387
1659434744.033016,8397
1659434744.072314,8403
1659434744.111611,8415
1659434744.150909,8423
1659434744.193453,8450
1659434744.235997,8468
1659434744.274953,8485
1659434744.313908,8506
1659434744.352864,8504
1659434744.393871,8518
1659434744.434877,8516
1659434744.473833,8496
1659434744.512789,8486
1659434744.551744,8463
1659434744.590358,8463
1659434744.628973,8448
1659434744.667587,8475
1659434744.709618,8482
1659434744.75165,8476
1659434744.793169,8480
1659434744.834687,8481
1659434744.87296,8493
1659434744.911232,8504
1659434744.949505,8514
1659434744.99427,8534
1659434745.039035,8547
1659434745.0838,8557
1659434745.118143,8565
1659434745.152485,8583
1659434745.196567,8581
1659434745.240649,8602
1659434745.28473,8585
1659434745.318048,8572
1659434745.351365,8563
1659434745.396131,8547
1659434745.440896,8541
1659434745.485661,8535
1659434745.524616,8534
1659434745.563572,8536
1659434745.602528,8547
1659434745.641143,8542
1659434745.679757,8541
1659434745.718371,8552
1659434745.756985,8556
1659434745.795599,8561
1659434745.834213,8557
1659434745.874707,8574
1659434745.915201,8572
1659434745.954157,8587
1659434745.993112,8584
1659434746.032068,8594
1659434746.0741,8610
1659434746.116131,8605
1659434746.154745,8606
1659434746.193359,8582
1659434746.231974,8565
1659434746.274005,8553
1659434746.316036,8546
1659434746.361143,8538
1659434746.40625,8543
1659434746.451357,8545
1659434746.484162,8547
1659434746.516967,8548
1659434746.56139,8561
1659434746.605814,8547
1659434746.650237,8555
1659434746.689193,8572
1659434746.728149,8589
1659434746.767104,8612
1659434746.808111,8603
1659434746.849117,8610
1659434746.887731,8585
1659434746.926345,8582
1659434746.964959,8575
1659434747.006991,8566
1659434747.049022,8557
1659434747.087295,8533
1659434747.125567,8528
1659434747.16384,8511
1659434747.202796,8488
1659434747.241751,8475
1659434747.280707,8482
1659434747.322739,8479
1659434747.36477,8468
1659434747.403726,8475
1659434747.442682,8484
1659434747.481637,8489
1659434747.523669,8484
1659434747.5657,8490
1659434747.604998,8506
1659434747.644295,8536
1659434747.683593,8541
1659434747.722207,8545
1659434747.760822,8549
1659434747.799436,8536
1659434747.840442,8500
1659434747.881448,8460
1659434747.923479,8440
1659434747.965511,8424
1659434748.004467,8412
1659434748.043422,8413
1659434748.082378,8413
1659434748.126118,8412
1659434748.169858,8406
1659434748.213598,8422
1659434748.246916,8423
1659434748.280233,8437
1659434748.324657,8463
1659434748.36908,8475
1659434748.413503,8483
1659434748.447334,8493
1659434748.481164,8491
1659434748.525245,8491
1659434748.569327,8501
1659434748.613409,8496
1659434748.652023,8467
1659434748.690637,8457
1659434748.729251,8441
1659434748.770257,8423
1659434748.811264,8413
1659434748.850561,8396
1659434748.889859,8394
1659434748.929157,8393
1659434748.967771,8392
1659434749.006385,8406
1659434749.044999,8411
1659434749.086005,8426
1659434749.127012,8433
1659434749.164942,8449
1659434749.202873,8448
1659434749.240804,8464
1659434749.28386,8483
1659434749.326917,8493
1659434749.365189,8491
1659434749.403462,8483
1659434749.441734,8469
1659434749.48274,8443
1659434749.523746,8429
1659434749.563386,8409
1659434749.603025,8400
1659434749.642664,8396
1659434749.685208,8409
1659434749.727752,8412
1659434749.766025,8406
1659434749.804297,8412
1659434749.84257,8405
1659434749.887676,8411
1659434749.932783,8400
1659434749.97789,8405
1659434750.010695,8403
1659434750.0435,8414
1659434750.087924,8437
1659434750.132347,8451
1659434750.17677,8457
1659434750.218801,8463
1659434750.260833,8446
1659434750.299789,8416
1659434750.338745,8396
1659434750.377701,8389
1659434750.415631,8382
1659434750.453562,8391
1659434750.491493,8374
1659434750.534037,8364
1659434750.576581,8368
1659434750.615537,8370
1659434750.654492,8386
1659434750.693448,8406
1659434750.734967,8417
1659434750.776486,8427
1659434750.815784,8431
1659434750.855081,8443
1659434750.894379,8445
1659434750.933335,8459
1659434750.972291,8458
1659434751.011246,8442
1659434751.05174,8422
1659434751.092234,8395
1659434751.13119,8381
1659434751.170146,8373
1659434751.209101,8359
1659434751.251645,8348
1659434751.294189,8336
1659434751.332803,8330
1659434751.371418,8321
1659434751.410032,8339
1659434751.450525,8347
1659434751.491019,8361
1659434751.536126,8366
1659434751.581233,8364
1659434751.626339,8366
1659434751.659144,8385
1659434751.691949,8402
1659434751.736715,8414
1659434751.78148,8405
1659434751.826245,8367
1659434751.864859,8337
1659434751.903473,8322
1659434751.942087,8304
1659434751.983606,8301
1659434752.025125,8293
1659434752.063397,8291
1659434752.10167,8282
1659434752.139942,8295
1659434752.182486,8309
1659434752.22503,8317
1659434752.263303,8329
1659434752.301575,8344
1659434752.339847,8368
1659434752.378462,8378
1659434752.417076,8382
1659434752.45569,8404
1659434752.497209,8404
1659434752.538728,8408
1659434752.578025,8404
1659434752.617323,8388
1659434752.65662,8371
1659434752.694893,8342
1659434752.733165,8324
1659434752.771438,8309
1659434752.812956,8307
1659434752.854475,8307
1659434752.893773,8310
1659434752.93307,8304
1659434752.972368,8313
1659434753.0144,8316
1659434753.056431,8325
1659434753.101196,8335
1659434753.145961,8340
1659434753.190726,8357
1659434753.224556,8359
1659434753.258386,8361
1659434753.302126,8369
1659434753.345866,8371
1659434753.389606,8372
1659434753.423436,8387
1659434753.457266,8376
1659434753.50169,8352
1659434753.546113,8332
1659434753.590537,8321
1659434753.629493,8302
1659434753.668448,8304
1659434753.707404,8296
1659434753.74841,8295
1659434753.789417,8306
1659434753.829056,8301
1659434753.868695,8311
1659434753.908335,8313
1659434753.949853,8332
1659434753.991372,8336
1659434754.030328,8354
1659434754.069284,8358
1659434754.10824,8352
1659434754.147879,8363
1659434754.187519,8370
1659434754.227158,8386
1659434754.268164,8398
1659434754.30917,8390
1659434754.347101,8368
1659434754.385032,8357
1659434754.422962,8345
1659434754.461918,8328
1659434754.500874,8340
1659434754.53983,8330
1659434754.581349,8334
1659434754.622868,8324
1659434754.663361,8324
1659434754.703855,8331
1659434754.742811,8324
1659434754.781767,8330
1659434754.820723,8324
1659434754.865146,8327
1659434754.90957,8342
1659434754.953993,8356
1659434754.986798,8351
1659434755.019603,8361
1659434755.064709,8373
1659434755.109816,8359
1659434755.154923,8340
1659434755.187728,8311
1659434755.220533,8297
1659434755.264615,8284
1659434755.308697,8281
1659434755.352778,8279
1659434755.392076,8278
1659434755.431373,8278
1659434755.470671,8276
1659434755.513215,8282
1659434755.555759,8295
1659434755.593689,8302
1659434755.63162,8303
1659434755.669551,8308
1659434755.711582,8318
1659434755.753614,8322
1659434755.792228,8326
1659434755.830842,8334
1659434755.869456,8332
1659434755.908412,8338
1659434755.947368,8308
1659434755.986324,8286
1659434756.027843,8276
1659434756.069361,8265
1659434756.11088,8260
1659434756.152399,8255
1659434756.190671,8256
1659434756.228944,8244
1659434756.267216,8241
1659434756.306856,8242
1659434756.346495,8247
1659434756.386134,8269
1659434756.428166,8283
1659434756.470197,8305
1659434756.509153,8290
1659434756.548109,8297
1659434756.587065,8304
1659434756.628071,8315
1659434756.669077,8323
1659434756.708716,8313
1659434756.748356,8297
1659434756.787995,8257
1659434756.829001,8227
1659434756.870008,8204
1659434756.914431,8180
1659434756.958854,8183
1659434757.003278,8178
1659434757.036083,8181
1659434757.068888,8174
1659434757.113311,8177
1659434757.157734,8182
1659434757.202158,8200
1659434757.241114,8208
1659434757.28007,8220
1659434757.319026,8233
1659434757.361057,8237
1659434757.403088,8242
1659434757.441702,8248
1659434757.480317,8257
1659434757.518931,8265
1659434757.56045,8251
1659434757.601968,8222
1659434757.641266,8191
1659434757.680563,8178
1659434757.719861,8158
1659434757.758475,8154
1659434757.79709,8159
1659434757.835704,8160
1659434757.876197,8161
1659434757.916691,8163
1659434757.955305,8166
1659434757.993919,8165
1659434758.032533,8170
1659434758.071489,8177
1659434758.110445,8175
1659434758.149401,8178
1659434758.19092,8175
1659434758.232439,8189
1659434758.273957,8189
1659434758.315476,8174
1659434758.354432,8147
1659434758.393388,8131
1659434758.432344,8126
1659434758.474375,8110
1659434758.516407,8110
1659434758.554679,8104
1659434758.592952,8103
1659434758.631224,8110
1659434758.675647,8101
1659434758.720071,8119
1659434758.764494,8114
1659434758.797299,8123
1659434758.830104,8129
1659434758.873844,8148
1659434758.917584,8147
1659434758.961324,8159
1659434759.000622,8172
1659434759.039919,8174
1659434759.079217,8188
1659434759.121248,8153
1659434759.16328,8130
1659434759.201552,8112
1659434759.239824,8101
1659434759.278097,8091
1659434759.319616,8084
1659434759.361134,8092
1659434759.400432,8100
1659434759.43973,8112
1659434759.479027,8114
1659434759.517641,8115
1659434759.556256,8130
1659434759.59487,8135
1659434759.637926,8140
1659434759.680983,8146
1659434759.719939,8165
1659434759.758894,8178
1659434759.79785,8185
1659434759.838857,8199
1659434759.879863,8192
1659434759.91916,8181
1659434759.958458,8160
1659434759.997756,8152
1659434760.039787,8144
1659434760.081818,8141
1659434760.119749,8144
1659434760.15768,8147
1659434760.195611,8149
1659434760.237129,8154
1659434760.278648,8176
1659434760.316921,8180
1659434760.355193,8189
1659434760.393466,8204
1659434760.437547,8194
1659434760.481629,8218
1659434760.525711,8220
1659434760.567742,8228
1659434760.609773,8238
1659434760.649413,8254
1659434760.689052,8249
1659434760.728691,8223
1659434760.769697,8213
1659434760.810704,8201
1659434760.849659,8208
1659434760.888615,8198
1659434760.927571,8205
1659434760.966869,8220
1659434761.006166,8218
1659434761.045464,8221
1659434761.085958,8225
1659434761.126451,8236
1659434761.164724,8243
1659434761.202996,8254
1659434761.241269,8263
1659434761.280225,8280
1659434761.31918,8293
1659434761.358136,8294
1659434761.401876,8294
1659434761.445616,8305
1659434761.489356,8285
1659434761.523186,8262
1659434761.557016,8243
1659434761.601782,8233
1659434761.646547,8231
1659434761.691312,8236
1659434761.724629,8233
1659434761.757947,8233
1659434761.80237,8239
1659434761.846794,8234
1659434761.891217,8239
1659434761.930173,8238
1659434761.969129,8259
1659434762.008085,8248
1659434762.049603,8256
1659434762.091122,8267
1659434762.130078,8272
1659434762.169034,8289
1659434762.20799,8285
1659434762.246604,8269
1659434762.285218,8255
1659434762.323833,8221
1659434762.365351,8218
1659434762.40687,8213
1659434762.445484,8204
1659434762.484098,8198
1659434762.522712,8208
1659434762.565257,8203
1659434762.6078,8223
1659434762.646415,8217
1659434762.685029,8214
1659434762.723643,8224
1659434762.765162,8229
1659434762.80668,8229
1659434762.845978,8235
1659434762.885276,8243
1659434762.924573,8239
1659434762.967117,8248
1659434763.009661,8238
1659434763.048275,8219
1659434763.08689,8195
1659434763.125504,8185
1659434763.167022,8168
1659434763.208541,8145
1659434763.247839,8134
1659434763.287137,8138
1659434763.326434,8134
1659434763.370174,8138
1659434763.413914,8140
1659434763.457654,8149
1659434763.490972,8144
1659434763.524289,8153
1659434763.569054,8167
1659434763.613819,8166
1659434763.658584,8182
1659434763.696857,8200
1659434763.735129,8208
1659434763.773402,8214
1659434763.81492,8207
1659434763.856439,8198
1659434763.896079,8171
1659434763.935718,8160
1659434763.975357,8145
1659434764.016363,8134
1659434764.05737,8139
1659434764.095984,8140
1659434764.134598,8141
1659434764.173212,8137
1659434764.21251,8138
1659434764.251807,8138
1659434764.291105,8139
1659434764.332624,8155
1659434764.374143,8161
1659434764.412757,8174
1659434764.451371,8171
1659434764.489985,8186
1659434764.530479,8197
1659434764.570972,8203
1659434764.608903,8211
1659434764.646834,8194
1659434764.684765,8181
1659434764.726283,8158
1659434764.767802,8157
1659434764.8071,8152
1659434764.846397,8156
1659434764.885695,8159
1659434764.927214,8164
1659434764.968733,8182
1659434765.013156,8178
1659434765.057579,8190
1659434765.102003,8192
1659434765.141642,8199
1659434765.181281,8199
1659434765.220921,8204
1659434765.262952,8212
1659434765.304983,8218
1659434765.343256,8231
1659434765.381528,8244
1659434765.419801,8233
1659434765.461832,8225
1659434765.503863,8188
1659434765.542478,8173
1659434765.581092,8165
1659434765.619706,8165
1659434765.65832,8171
1659434765.696934,8178
1659434765.735548,8192
1659434765.778092,8201
1659434765.820636,8209
1659434765.859251,8210
1659434765.897865,8220
1659434765.936479,8232
1659434765.974751,8235
1659434766.013024,8242
1659434766.051296,8243
1659434766.093328,8262
1659434766.135359,8261
1659434766.173973,8292
1659434766.212587,8275
1659434766.251201,8259
1659434766.293233,8245
1659434766.335264,8233
1659434766.37422,8231
1659434766.413176,8226
1659434766.452132,8221
1659434766.493907,8225
1659434766.535682,8227
1659434766.577457,8233
1659434766.619232,8227
1659434766.660238,8239
1659434766.701245,8253
1659434766.740201,8253
1659434766.779156,8270
1659434766.818112,8273
1659434766.856385,8283
1659434766.894657,8293
1659434766.93293,8297
1659434766.974961,8294
1659434767.016992,8292
1659434767.055265,8276
1659434767.093537,8259
1659434767.13181,8261
1659434767.173841,8243
1659434767.215872,8238
1659434767.259954,8258
1659434767.304036,8260
1659434767.348117,8269
1659434767.381948,8260
1659434767.415778,8272
1659434767.460201,8289
1659434767.504624,8298
1659434767.549048,8321
1659434767.587662,8328
1659434767.626276,8349
1659434767.66489,8354
1659434767.706409,8368
1659434767.747928,8386
1659434767.7862,8381
1659434767.824473,8387
1659434767.862745,8387
1659434767.904777,8384
1659434767.946808,8376
1659434767.985422,8369
1659434768.024036,8366
1659434768.06265,8363
1659434768.101606,8364
1659434768.140562,8372
1659434768.179518,8372
1659434768.221037,8384
1659434768.262556,8396
1659434768.30117,8405
1659434768.339784,8409
1659434768.378398,8420
1659434768.421455,8422
1659434768.464511,8431
1659434768.503125,8437
1659434768.54174,8446
1659434768.580354,8465
1659434768.61931,8459
1659434768.658266,8452
1659434768.697222,8421
1659434768.739765,8415
1659434768.782309,8405
1659434768.824341,8395
1659434768.866372,8390
1659434768.904303,8388
1659434768.942234,8392
1659434768.980164,8389
1659434769.024929,8396
1659434769.069695,8397
1659434769.11446,8394
1659434769.147264,8397
1659434769.180069,8405
1659434769.224151,8408
1659434769.268233,8406
1659434769.312315,8417
1659434769.346145,8414
1659434769.379975,8428
1659434769.42474,8417
1659434769.469505,8399
1659434769.51427,8387
1659434769.552542,8366
1659434769.590815,8355
1659434769.629087,8350
1659434769.671631,8354
1659434769.714175,8352
1659434769.753131,8366
1659434769.792087,8360
1659434769.831043,8369
1659434769.872049,8366
1659434769.913055,8369
1659434769.952011,8370
1659434769.990967,8375
1659434770.029923,8378
1659434770.068196,8385
1659434770.106468,8392
1659434770.14474,8397
1659434770.186259,8394
1659434770.227778,8394
1659434770.266734,8375
1659434770.30569,8356
1659434770.344646,8340
1659434770.385652,8325
1659434770.426658,8325
1659434770.465272,8318
1659434770.503886,8315
1659434770.5425,8306
1659434770.584019,8306
1659434770.625538,8308
1659434770.664836,8303
1659434770.704133,8323
1659434770.743431,8328
1659434770.787513,8336
1659434770.831594,8348
1659434770.875676,8344
1659434770.908993,8360
1659434770.942311,8365
1659434770.986734,8357
1659434771.031158,8354
1659434771.075581,8334
1659434771.117613,8306
1659434771.159644,8288
1659434771.198258,8279
1659434771.236872,8268
1659434771.275486,8272
1659434771.314442,8263
1659434771.353398,8261
1659434771.392354,8270
1659434771.432848,8261
1659434771.473341,8258
1659434771.512639,8260
1659434771.551937,8287
1659434771.591234,8299
1659434771.633778,8327
1659434771.676322,8335
1659434771.717841,8332
1659434771.75936,8338
1659434771.800878,8339
1659434771.842397,8330
1659434771.876227,8300
1659434771.910057,8270
1659434771.954823,8250
1659434771.999588,8236
1659434772.044353,8222
1659434772.082967,8211
1659434772.121581,8208
1659434772.160195,8192
1659434772.201201,8189
1659434772.242208,8188
1659434772.281847,8181
1659434772.321486,8181
1659434772.361126,8173
1659434772.401619,8172
1659434772.442113,8176
1659434772.480727,8184
1659434772.519341,8181
1659434772.557956,8193
1659434772.596911,8184
1659434772.635867,8166
1659434772.674823,8142
1659434772.716854,8114
1659434772.758886,8101
1659434772.797842,8091
1659434772.836797,8085
1659434772.875753,8081
1659434772.917272,8086
1659434772.958791,8092
1659434772.998089,8088
1659434773.037386,8097
1659434773.076684,8094
1659434773.114956,8104
1659434773.153229,8124
1659434773.191501,8122
1659434773.234045,8120
1659434773.276589,8133
1659434773.318108,8153
1659434773.359627,8156
1659434773.397557,8155
1659434773.435488,8141
1659434773.473419,8116
1659434773.517501,8096
1659434773.561582,8069
1659434773.605664,8058
1659434773.639494,8063
1659434773.673324,8062
1659434773.717064,8064
1659434773.760804,8064
1659434773.804544,8055
1659434773.8435,8043
1659434773.882456,8054
1659434773.921412,8064
1659434773.963443,8066
1659434774.005474,8086
1659434774.044089,8093
1659434774.082703,8096
1659434774.121317,8102
1659434774.163348,8111
1659434774.205379,8115
1659434774.245019,8116
1659434774.284658,8103
1659434774.324298,8075
1659434774.362228,8061
1659434774.400159,8051
1659434774.43809,8052
1659434774.479609,8045
1659434774.521127,8054
1659434774.559741,8057
1659434774.598356,8068
1659434774.63697,8073
1659434774.679001,8081
1659434774.721033,8081
1659434774.759647,8091
1659434774.798261,8104
1659434774.836875,8111
1659434774.878906,8116
1659434774.920938,8143
1659434774.959894,8147
1659434774.99885,8152
1659434775.037806,8169
1659434775.080349,8172
1659434775.122893,8165
1659434775.161849,8153
1659434775.200805,8134
1659434775.239761,8114
1659434775.284184,8120
1659434775.328608,8120
1659434775.373031,8122
1659434775.405324,8135
1659434775.437616,8133
1659434775.482381,8132
1659434775.527146,8145
1659434775.571911,8151
1659434775.613943,8157
1659434775.655974,8165
1659434775.694247,8179
1659434775.732519,8183
1659434775.770791,8201
1659434775.809747,8202
1659434775.848703,8203
1659434775.887659,8210
1659434775.928665,8201
1659434775.969671,8177
1659434776.008627,8159
1659434776.047583,8147
1659434776.086539,8143
1659434776.128571,8142
1659434776.170602,8145
1659434776.209216,8142
1659434776.24783,8150
1659434776.286444,8147
1659434776.325058,8149
1659434776.363673,8154
1659434776.402287,8168
1659434776.444318,8173
1659434776.48635,8187
1659434776.525306,8188
1659434776.564261,8194
1659434776.603217,8207
1659434776.644223,8208
1659434776.68523,8228
1659434776.723844,8211
1659434776.762458,8193
1659434776.801072,8164
1659434776.843103,8150
1659434776.885135,8138
1659434776.924091,8125
1659434776.963047,8134
1659434777.002002,8133
1659434777.043265,8145
1659434777.084527,8131
1659434777.12579,8131
1659434777.167053,8139
1659434777.209084,8146
1659434777.251115,8150
1659434777.290071,8155
1659434777.329027,8168
1659434777.367983,8175
1659434777.406939,8178
1659434777.445895,8176
1659434777.484851,8184
1659434777.526882,8197
1659434777.568913,8183
1659434777.607869,8163
1659434777.646825,8128
1659434777.685781,8115
1659434777.726787,8105
1659434777.767793,8095
1659434777.811875,8088
1659434777.855957,8083
1659434777.900038,8093
1659434777.932843,8089
1659434777.965648,8091
1659434778.00973,8098
1659434778.053812,8099
1659434778.097893,8114
1659434778.132236,8118
1659434778.166579,8130
1659434778.211002,8136
1659434778.255425,8141
1659434778.299849,8132
1659434778.338805,8136
1659434778.377761,8158
1659434778.416717,8141
1659434778.458748,8127
1659434778.500779,8097
1659434778.540077,8081
1659434778.579375,8073
1659434778.618672,8069
1659434778.657286,8067
1659434778.6959,8075
1659434778.734515,8079
1659434778.776546,8086
1659434778.818577,8073
1659434778.85685,8082
1659434778.895122,8097
1659434778.933395,8112
1659434778.974913,8121
1659434779.016432,8127
1659434779.05573,8135
1659434779.095027,8144
1659434779.134325,8144
1659434779.172256,8152
1659434779.210186,8163
1659434779.248117,8149
1659434779.288611,8138
1659434779.329104,8104
1659434779.371649,8083
1659434779.414192,8086
1659434779.452806,8072
1659434779.491421,8071
1659434779.530035,8067
1659434779.574117,8067
1659434779.618198,8066
1659434779.66228,8070
1659434779.695597,8072
1659434779.728915,8088
1659434779.77368,8093
1659434779.818445,8096
1659434779.86321,8106
1659434779.901141,8104
1659434779.939072,8120
1659434779.977003,8118
1659434780.019547,8130
1659434780.06209,8128
1659434780.100705,8104
1659434780.139319,8080
1659434780.177933,8055
1659434780.218426,8037
1659434780.25892,8025
1659434780.297876,8024
1659434780.336832,8021
1659434780.375788,8018
1659434780.414744,8029
1659434780.4537,8027
1659434780.492656,8031
1659434780.534174,8034
1659434780.575693,8028
1659434780.614991,8032
1659434780.654288,8028
1659434780.693586,8032
1659434780.735617,8023
1659434780.777649,8022
1659434780.816263,8019
1659434780.854877,8028
1659434780.893491,8011
1659434780.935523,7984
1659434780.977554,7966
1659434781.01651,7942
1659434781.055466,7936
1659434781.094422,7923
1659434781.134915,7911
1659434781.175409,7916
1659434781.214023,7908
1659434781.252637,7911
1659434781.291251,7915
1659434781.336016,7924
1659434781.380781,7924
1659434781.425547,7926
1659434781.458864,7924
1659434781.492182,7934
1659434781.536605,7951
1659434781.581028,7955
1659434781.625452,7961
1659434781.667483,7967
1659434781.709515,7969
1659434781.748129,7962
1659434781.786743,7945
1659434781.825357,7916
1659434781.864655,7898
1659434781.903952,7906
1659434781.94325,7904
1659434781.985281,7905
1659434782.027313,7909
1659434782.066268,7913
1659434782.105224,7911
1659434782.14418,7904
1659434782.182453,7916
1659434782.220725,7920
1659434782.258998,7938
1659434782.300516,7955
1659434782.342035,7950
1659434782.383554,7954
1659434782.425073,7941
1659434782.466079,7938
1659434782.507085,7950
1659434782.545699,7937
1659434782.584314,7921
1659434782.622928,7908
1659434782.662225,7894
1659434782.701523,7878
1659434782.740821,7866
1659434782.782339,7853
1659434782.823858,7843
1659434782.862131,7853
1659434782.900403,7838
1659434782.938675,7827
1659434782.98122,7810
1659434783.023763,7805
1659434783.062719,7804
1659434783.101675,7810
1659434783.140631,7811
1659434783.181637,7812
1659434783.222643,7818
1659434783.261941,7809
1659434783.301239,7808
1659434783.340536,7814
1659434783.381542,7804
1659434783.422549,7783
1659434783.461163,7754
1659434783.499777,7728
1659434783.538391,7714
1659434783.582814,7702
1659434783.627238,7702
1659434783.671661,7712
1659434783.704466,7708
1659434783.737271,7703
1659434783.781695,7699
1659434783.826118,7685
1659434783.870541,7685
1659434783.91206,7691
1659434783.953579,7689
1659434783.99356,7694
1659434784.033541,7689
1659434784.073522,7696
1659434784.111794,7698
1659434784.150067,7715
1659434784.188339,7709
1659434784.230883,7698
1659434784.273427,7686
1659434784.312042,7657
1659434784.350656,7634
1659434784.38927,7623
1659434784.431301,7605
1659434784.473333,7598
1659434784.512289,7599
1659434784.551244,7593
1659434784.5902,7582
1659434784.629156,7570
1659434784.668112,7570
1659434784.707068,7572
1659434784.747562,7578
1659434784.788055,7572
1659434784.827353,7574
1659434784.86665,7581
1659434784.905948,7574
1659434784.948492,7573
1659434784.991036,7575
1659434785.02965,7572
1659434785.068264,7576
1659434785.106879,7560
1659434785.147885,7534
1659434785.188891,7507
1659434785.233656,7504
1659434785.278421,7490
1659434785.323186,7483
1659434785.355991,7477
1659434785.388796,7485
1659434785.433219,7486
1659434785.477643,7489
1659434785.522066,7495
1659434785.560339,7496
1659434785.598611,7516
1659434785.636883,7519
1659434785.67789,7527
1659434785.718896,7519
1659434785.757169,7507
1659434785.795441,7507
1659434785.833713,7504
1659434785.872669,7510
1659434785.911625,7504
1659434785.950581,7505
1659434785.9921,7486
1659434786.033619,7463
1659434786.072574,7433
1659434786.11153,7412
1659434786.150486,7412
1659434786.192518,7402
1659434786.234549,7390
1659434786.273505,7375
1659434786.312461,7371
1659434786.351417,7359
1659434786.390373,7351
1659434786.429328,7347
1659434786.468284,7339
1659434786.510316,7346
1659434786.552347,7335
1659434786.591303,7317
1659434786.630259,7313
1659434786.669215,7296
1659434786.709708,7290
1659434786.750202,7289
1659434786.794284,7276
1659434786.838365,7249
1659434786.882447,7229
1659434786.91679,7203
1659434786.951132,7191
1659434786.994531,7183
1659434787.037929,7165
1659434787.081327,7170
1659434787.120625,7172
1659434787.159922,7165
1659434787.19922,7164
1659434787.240739,7165
1659434787.282258,7168
1659434787.321897,7164
1659434787.361536,7169
1659434787.401175,7146
1659434787.442694,7137
1659434787.484213,7143
1659434787.523852,7144
1659434787.563492,7147
1659434787.603131,7157
1659434787.641403,7157
1659434787.679676,7134
1659434787.717948,7117
1659434787.756562,7094
1659434787.795177,7093
1659434787.833791,7087
1659434787.876335,7079
1659434787.918879,7084
1659434787.95681,7082
1659434787.99474,7082
1659434788.032671,7068
1659434788.073164,7076
1659434788.113658,7076
1659434788.153297,7069
1659434788.192937,7078
1659434788.232576,7082
1659434788.274095,7085
1659434788.315614,7075
1659434788.360037,7060
1659434788.40446,7063
1659434788.448884,7063
1659434788.482201,7057
1659434788.515519,7052
1659434788.559942,7032
1659434788.604366,7016
1659434788.648789,7016
1659434788.68672,7003
1659434788.724651,6997
1659434788.762581,7003
1659434788.805638,7003
1659434788.848694,7007
1659434788.886967,7006
1659434788.925239,7016
1659434788.963512,7018
1659434789.001784,7027
1659434789.040057,7036
1659434789.078329,7040
1659434789.12036,7053
1659434789.162392,7055
1659434789.200664,7067
1659434789.238937,7071
1659434789.277209,7067
1659434789.318728,7080
1659434789.360247,7094
1659434789.399203,7095
1659434789.438159,7082
1659434789.477114,7076
1659434789.515729,7064
1659434789.554343,7069
1659434789.592957,7064
1659434789.634476,7066
1659434789.675994,7076
1659434789.718026,7073
1659434789.760057,7073
1659434789.799355,7078
1659434789.838652,7085
1659434789.87795,7082
1659434789.92169,7091
1659434789.96543,7085
1659434790.00917,7081
1659434790.042487,7086
1659434790.075805,7097
1659434790.120228,7091
1659434790.164652,7089
1659434790.209075,7090
1659434790.242905,7091
1659434790.276735,7078
1659434790.321159,7060
1659434790.365582,7045
1659434790.410006,7039
1659434790.449303,7034
1659434790.488601,7031
1659434790.527898,7033
1659434790.568905,7032
1659434790.609911,7029
1659434790.64955,7024
1659434790.689189,7017
1659434790.728829,7012
1659434790.77086,7013
1659434790.812891,7028
1659434790.851847,7027
1659434790.890803,7042
1659434790.929759,7042
1659434790.968032,7041
1659434791.006304,7053
1659434791.044576,7057
1659434791.086608,7062
1659434791.128639,7059
1659434791.166912,7055
1659434791.205184,7033
1659434791.243457,7031
1659434791.284463,7028
1659434791.325469,7023
1659434791.363741,7027
1659434791.402014,7034
1659434791.440286,7034
1659434791.48283,7035
1659434791.525374,7035
1659434791.563988,7038
1659434791.602602,7043
1659434791.641217,7054
1659434791.682735,7051
1659434791.724254,7071
1659434791.763552,7071
1659434791.80285,7088
1659434791.842147,7084
1659434791.886229,7090
1659434791.93031,7098
1659434791.974392,7098
1659434792.016423,7098
1659434792.058455,7089
1659434792.097411,7083
1659434792.136367,7072
1659434792.175323,7060
1659434792.214689,7057
1659434792.254055,7058
1659434792.29342,7059
1659434792.332786,7062
1659434792.372152,7063
1659434792.411108,7053
1659434792.450064,7064
1659434792.48902,7073
1659434792.530539,7087
1659434792.572057,7099
1659434792.61033,7101
1659434792.648602,7112
1659434792.686875,7118
1659434792.726172,7116
1659434792.76547,7127
1659434792.804768,7134
1659434792.845774,7137
1659434792.88678,7151
1659434792.926078,7132
1659434792.965375,7115
1659434793.004673,7102
1659434793.047217,7097
1659434793.089761,7090
1659434793.128375,7098
1659434793.166989,7096
1659434793.205603,7093
1659434793.246609,7099
1659434793.287616,7094
1659434793.326913,7101
1659434793.366211,7106
1659434793.405509,7111
1659434793.44754,7112
1659434793.489571,7123
1659434793.533653,7120
1659434793.577735,7118
1659434793.621816,7127
1659434793.661114,7124
1659434793.700412,7130
1659434793.739709,7124
1659434793.781228,7120
1659434793.822747,7096
1659434793.861019,7087
1659434793.899292,7075
1659434793.937564,7061
1659434793.980621,7064
1659434794.023677,7063
1659434794.062633,7082
1659434794.101589,7081
1659434794.140545,7074
1659434794.179501,7078
1659434794.218457,7077
1659434794.257412,7081
1659434794.298419,7078
1659434794.339425,7093
1659434794.378722,7094
1659434794.41802,7104
1659434794.457318,7101
1659434794.49559,7100
1659434794.533863,7109
1659434794.572135,7113
1659434794.6169,7106
1659434794.661665,7086
1659434794.70643,7080
1659434794.73821,7069
1659434794.76999,7072
1659434794.814413,7070
1659434794.858837,7060
1659434794.90326,7078
1659434794.942216,7080
1659434794.981172,7069
1659434795.020128,7072
1659434795.062159,7072
1659434795.104191,7080
1659434795.142805,7083
1659434795.181419,7083
1659434795.220033,7089
1659434795.261552,7103
1659434795.303071,7098
1659434795.341685,7103
1659434795.380299,7107
1659434795.418913,7106
1659434795.457186,7110
1659434795.495458,7116
1659434795.533731,7104
1659434795.576274,7099
1659434795.618818,7083
1659434795.657433,7076
1659434795.696047,7065
1659434795.734661,7071
1659434795.775667,7069
1659434795.816673,7067
1659434795.855629,7079
1659434795.894585,7071
1659434795.933541,7077
1659434795.975572,7077
1659434796.017604,7074
1659434796.056901,7077
1659434796.096199,7088
1659434796.135497,7094
1659434796.177015,7094
1659434796.218534,7105
1659434796.258173,7101
1659434796.297813,7114
1659434796.337452,7112
1659434796.381534,7112
1659434796.425615,7119
1659434796.469697,7116
1659434796.512241,7103
1659434796.554785,7080
1659434796.593399,7087
1659434796.632013,7079
1659434796.670627,7087
1659434796.712146,7081
1659434796.753665,7079
1659434796.790827,7082
1659434796.827989,7083
1659434796.865151,7076
1659434796.902313,7080
1659434796.941268,7083
1659434796.980224,7080
1659434797.01918,7093
1659434797.060699,7099
1659434797.102218,7093
1659434797.140832,7101
1659434797.179446,7106
1659434797.21806,7105
1659434797.263167,7110
1659434797.308274,7113
1659434797.353381,7115
1659434797.394387,7108
1659434797.435393,7095
1659434797.474349,7080
1659434797.513305,7079
1659434797.552261,7072
1659434797.594292,7082
1659434797.636323,7085
1659434797.674938,7075
1659434797.713552,7077
1659434797.752166,7085
1659434797.790438,7081
1659434797.828711,7082
1659434797.866983,7083
1659434797.908502,7099
1659434797.950021,7098
1659434797.988293,7098
1659434798.026566,7106
1659434798.064838,7116
1659434798.104136,7114
1659434798.143434,7117
1659434798.182731,7124
1659434798.224762,7127
1659434798.266794,7125
1659434798.305066,7120
1659434798.343339,7112
1659434798.381611,7097
1659434798.422617,7087
1659434798.463624,7085
1659434798.503605,7071
1659434798.543586,7081
1659434798.583567,7081
1659434798.624573,7077
1659434798.665579,7087
1659434798.709319,7079
1659434798.753059,7085
1659434798.796799,7085
1659434798.836097,7092
1659434798.875394,7098
1659434798.914692,7100
1659434798.955698,7100
1659434798.996704,7103
1659434799.033866,7114
1659434799.071028,7114
1659434799.10819,7120
1659434799.145352,7107
1659434799.184308,7117
1659434799.223264,7121
1659434799.262219,7125
1659434799.303738,7113
1659434799.345257,7088
1659434799.387288,7090
1659434799.42932,7084
1659434799.468617,7070
1659434799.507915,7071
1659434799.547213,7077
1659434799.591636,7074
1659434799.636059,7072
1659434799.680483,7075
1659434799.7138,7069
1659434799.747118,7087
1659434799.792225,7083
1659434799.837332,7081
1659434799.882438,7094
1659434799.920711,7087
1659434799.958983,7094
1659434799.997256,7098
1659434800.038774,7095
1659434800.080293,7100
1659434800.118907,7107
1659434800.157521,7111
1659434800.196136,7114
1659434800.238167,7119
1659434800.280198,7103
1659434800.318471,7086
1659434800.356743,7086
1659434800.395016,7078
1659434800.434313,7077
1659434800.473611,7078
1659434800.512909,7082
1659434800.553915,7076
1659434800.594921,7085
1659434800.634219,7083
1659434800.673516,7091
1659434800.712814,7101
1659434800.751428,7104
1659434800.790042,7114
1659434800.828656,7105
1659434800.870688,7112
1659434800.912719,7115
1659434800.953213,7118
1659434800.993706,7115
1659434801.032662,7125
1659434801.071618,7126
1659434801.110574,7127
1659434801.154997,7136
1659434801.199421,7111
1659434801.243844,7105
1659434801.276649,7101
1659434801.309454,7095
1659434801.350717,7096
1659434801.391979,7094
1659434801.433242,7107
1659434801.474504,7098
1659434801.513802,7117
1659434801.553099,7109
1659434801.592397,7108
1659434801.633403,7114
1659434801.674409,7112
1659434801.713365,7116
1659434801.752321,7120
1659434801.791277,7128
1659434801.833821,7123
1659434801.876365,7133
1659434801.914979,7131
1659434801.953593,7138
1659434801.992207,7149
1659434802.033726,7138
1659434802.075245,7140
1659434802.114542,7116
1659434802.15384,7101
1659434802.193138,7091
1659434802.236878,7089
1659434802.280618,7084
1659434802.324358,7078
1659434802.358188,7082
1659434802.392018,7079
1659434802.436783,7087
1659434802.481548,7079
1659434802.526313,7079
1659434802.566807,7090
1659434802.6073,7089
1659434802.646256,7092
1659434802.685212,7089
1659434802.724168,7098
1659434802.763807,7092
1659434802.803447,7111
1659434802.843086,7097
1659434802.884092,7099
1659434802.925098,7108
1659434802.963713,7107
1659434803.002327,7094
1659434803.040941,7073
1659434803.083485,7061
1659434803.126029,7053
1659434803.164985,7051
1659434803.203941,7043
1659434803.242897,7036
1659434803.284159,7050
1659434803.325422,7049
1659434803.366684,7049
1659434803.407947,7050
1659434803.45049,7046
1659434803.493034,7054
1659434803.530965,7060
1659434803.568896,7062
1659434803.606827,7059
1659434803.644501,7066
1659434803.682175,7067
1659434803.71985,7067
1659434803.757524,7070
1659434803.799043,7073
1659434803.840562,7083
1659434803.884644,7077
1659434803.928725,7074
1659434803.972807,7056
1659434804.00715,7042
1659434804.041492,7037
1659434804.085916,7025
1659434804.130339,7027
1659434804.174762,7023
1659434804.211412,7024
1659434804.248061,7026
1659434804.28471,7025
1659434804.32136,7034
1659434804.363904,7027
1659434804.406447,7040
1659434804.444378,7040
1659434804.482309,7044
1659434804.52024,7051
1659434804.558854,7055
1659434804.597468,7055
1659434804.636082,7052
1659434804.677601,7071
1659434804.71912,7067
1659434804.761151,7070
1659434804.803183,7056
1659434804.841797,7038
1659434804.880411,7022
1659434804.919025,7012
1659434804.961056,7013
1659434805.003088,7008
1659434805.042044,7020
1659434805.081,7015
1659434805.119955,7015
1659434805.164721,7014
1659434805.209486,7025
1659434805.254251,7020
1659434805.288081,7031
1659434805.321911,7036
1659434805.366334,7049
1659434805.410758,7061
1659434805.455181,7069
1659434805.495675,7091
1659434805.536168,7111
1659434805.575124,7145
1659434805.61408,7198
1659434805.653036,7334
1659434805.692334,7505
1659434805.731631,7615
1659434805.770929,7726
1659434805.811935,7814
1659434805.852941,7903
1659434805.891556,7977
1659434805.93017,8060
1659434805.968784,8160
1659434806.010815,8201
1659434806.052846,8227
1659434806.091461,8235
1659434806.130075,8238
1659434806.168689,8223
1659434806.207645,8208
1659434806.246601,8221
1659434806.285557,8224
1659434806.327588,8236
1659434806.369619,8229
1659434806.408575,8227
1659434806.447531,8235
1659434806.486487,8234
1659434806.528518,8245
1659434806.57055,8244
1659434806.609506,8241
1659434806.648462,8207
1659434806.687418,8186
1659434806.728424,8136
1659434806.76943,8101
1659434806.81317,8076
1659434806.85691,8061
1659434806.90065,8044
1659434806.939264,8025
1659434806.977878,8021
1659434807.016492,8006
1659434807.058524,8000
1659434807.100555,7993
1659434807.139169,7996
1659434807.177783,8003
1659434807.216398,8011
1659434807.257916,8031
1659434807.299435,8040
1659434807.338733,8039
1659434807.37803,8051
1659434807.417328,8056
1659434807.4556,8049
1659434807.493873,8046
1659434807.532145,8046
1659434807.574689,8045
1659434807.617233,8029
1659434807.656189,7991
1659434807.695145,7963
1659434807.734101,7951
1659434807.774595,7940
1659434807.815088,7929
1659434807.854044,7914
1659434807.893,7917
1659434807.931956,7900
1659434807.97057,7909
1659434808.009184,7895
1659434808.047798,7882
1659434808.089317,7880
1659434808.130836,7884
1659434808.171549,7889
1659434808.212262,7892
1659434808.252976,7896
1659434808.293689,7894
1659434808.334402,7900
1659434808.375116,7904
1659434808.415829,7904
1659434808.456493,7914
1659434808.497158,7898
1659434808.537822,7874
1659434808.578487,7852
1659434808.619151,7822
1659434808.659816,7806
1659434808.70048,7807
1659434808.741145,7806
1659434808.781809,7797
1659434808.820765,7806
1659434808.859721,7801
1659434808.898677,7811
1659434808.937633,7808
1659434808.976589,7806
1659434809.015545,7821
1659434809.057063,7817
1659434809.098582,7828
1659434809.137538,7828
1659434809.176494,7836
1659434809.21545,7849
1659434809.256969,7871
1659434809.298487,7875
1659434809.337102,7886
1659434809.375716,7873
1659434809.41433,7843
1659434809.459095,7810
1659434809.50386,7784
1659434809.548625,7767
1659434809.582455,7758
1659434809.616286,7756
1659434809.660367,7757
1659434809.704449,7761
1659434809.74853,7767
1659434809.781848,7763
1659434809.815166,7763
1659434809.859589,7775
1659434809.904012,7785
1659434809.948436,7801
1659434809.986708,7814
1659434810.024981,7827
1659434810.063253,7838
1659434810.104772,7843
1659434810.146291,7850
1659434810.184905,7865
1659434810.223519,7886
1659434810.262133,7887
1659434810.300406,7870
1659434810.338678,7841
1659434810.376951,7819
1659434810.418469,7812
1659434810.459988,7801
1659434810.498602,7802
1659434810.537216,7809
1659434810.575831,7820
1659434810.618375,7820
1659434810.660918,7828
1659434810.699533,7839
1659434810.738147,7843
1659434810.776761,7845
1659434810.81828,7861
1659434810.859799,7869
1659434810.898754,7869
1659434810.93771,7878
1659434810.976666,7886
1659434811.020406,7886
1659434811.064146,7897
1659434811.107886,7909
1659434811.141716,7921
1659434811.175546,7917
1659434811.21997,7886
1659434811.264393,7874
1659434811.308816,7860
1659434811.34931,7862
1659434811.389804,7855
1659434811.429101,7872
1659434811.468399,7873
1659434811.507697,7893
1659434811.549728,7889
1659434811.591759,7898
1659434811.630715,7913
1659434811.669671,7922
1659434811.708627,7939
1659434811.747583,7954
1659434811.786539,7968
1659434811.825495,7978
1659434811.868039,7988
1659434811.910583,7996
1659434811.949197,7996
1659434811.987811,8007
1659434812.026425,8022
1659434812.065381,8032
1659434812.104337,8025
1659434812.143293,8001
1659434812.184812,7994
1659434812.22633,7985
1659434812.264261,7986
1659434812.302192,7987
1659434812.340122,7981
1659434812.382154,7990
1659434812.424185,7990
1659434812.463483,7997
1659434812.50278,7991
1659434812.542078,7988
1659434812.582572,7995
1659434812.623065,8005
1659434812.662021,8002
1659434812.700977,7996
1659434812.739933,8007
1659434812.782477,8005
1659434812.825021,8013
1659434812.869102,8016
1659434812.913184,8019
1659434812.957266,8024
1659434812.995538,8021
1659434813.033811,8007
1659434813.072083,7999
1659434813.114627,7987
1659434813.157171,7974
1659434813.195443,7981
1659434813.233716,7975
1659434813.271988,7968
1659434813.313507,7980
1659434813.355026,7973
1659434813.393982,7984
1659434813.432938,7985
1659434813.471894,7995
1659434813.510166,8011
1659434813.548439,8006
1659434813.586711,8006
1659434813.627205,7997
1659434813.667698,8013
1659434813.706996,8013
1659434813.746294,8027
1659434813.785591,8018
1659434813.824205,8024
1659434813.862819,8044
1659434813.901434,8025
1659434813.943465,7999
1659434813.985496,7968
1659434814.024794,7960
1659434814.064091,7949
1659434814.103389,7958
1659434814.144908,7952
1659434814.186427,7948
1659434814.224699,7953
1659434814.262972,7953
1659434814.301244,7949
1659434814.345667,7952
1659434814.390091,7949
1659434814.434514,7948
1659434814.476546,7949
1659434814.518577,7952
1659434814.557191,7958
1659434814.595805,7973
1659434814.634419,7975
1659434814.675426,7969
1659434814.716432,7989
1659434814.755729,7982
1659434814.795027,7996
1659434814.834325,7992
1659434814.873281,7971
1659434814.912236,7944
1659434814.951192,7931
1659434814.993224,7924
1659434815.035255,7914
1659434815.074211,7915
1659434815.113167,7922
1659434815.152123,7920
1659434815.193642,7933
1659434815.23516,7926
1659434815.274458,7922
1659434815.313756,7934
1659434815.353053,7934
1659434815.392351,7929
1659434815.431648,7936
1659434815.470946,7941
1659434815.51144,7934
1659434815.551933,7947
1659434815.590547,7942
1659434815.629162,7955
1659434815.667776,7950
1659434815.71032,7958
1659434815.752864,7964
1659434815.796945,7954
1659434815.841027,7932
1659434815.885109,7908
1659434815.917401,7906
1659434815.949693,7898
1659434815.994117,7890
1659434816.03854,7893
1659434816.082963,7883
1659434816.121578,7894
1659434816.160192,7896
1659434816.198806,7900
1659434816.240838,7910
1659434816.282869,7917
1659434816.321483,7913
1659434816.360097,7913
1659434816.398711,7918
1659434816.440743,7918
1659434816.482774,7927
1659434816.521046,7938
1659434816.559319,7935
1659434816.597591,7944
1659434816.636547,7935
1659434816.675503,7944
1659434816.714459,7936
1659434816.75649,7909
1659434816.798522,7895
1659434816.836452,7888
1659434816.874383,7886
1659434816.912314,7892
1659434816.951612,7903
1659434816.990909,7895
1659434817.030207,7897
1659434817.071726,7898
1659434817.113244,7895
1659434817.151517,7900
1659434817.189789,7904
1659434817.228062,7899
1659434817.271118,7909
1659434817.314175,7912
1659434817.356206,7921
1659434817.398237,7921
1659434817.43651,7929
1659434817.474782,7926
1659434817.513055,7927
1659434817.557478,7935
1659434817.601902,7933
1659434817.646325,7924
1659434817.680668,7902
1659434817.71501,7878
1659434817.75875,7862
1659434817.80249,7865
1659434817.84623,7868
1659434817.885186,7864
1659434817.924142,7873
1659434817.963098,7859
1659434818.004617,7862
1659434818.046135,7866
1659434818.08475,7859
1659434818.123364,7858
1659434818.161978,7863
1659434818.204009,7868
1659434818.246041,7877
1659434818.28568,7879
1659434818.325319,7879
1659434818.364959,7882
1659434818.403573,7886
1659434818.442187,7890
1659434818.480801,7891
1659434818.522833,7886
1659434818.564864,7878
1659434818.604503,7858
1659434818.644143,7841
1659434818.683782,7831
1659434818.725301,7821
1659434818.766819,7816
1659434818.805092,7818
1659434818.843364,7831
1659434818.881637,7819
1659434818.923156,7819
1659434818.964674,7824
1659434819.00363,7817
1659434819.042586,7814
1659434819.081542,7810
1659434819.122548,7819
1659434819.163554,7822
1659434819.204561,7823
1659434819.245567,7824
1659434819.284523,7819
1659434819.323479,7831
1659434819.362435,7822
1659434819.401391,7821
1659434819.440346,7815
1659434819.479302,7811
1659434819.520821,7797
1659434819.56234,7780
1659434819.604371,7763
1659434819.646403,7757
1659434819.685017,7746
1659434819.723631,7735
1659434819.762245,7732
1659434819.806669,7729
1659434819.851092,7722
1659434819.895515,7713
1659434819.929345,7705
1659434819.963176,7695
1659434820.007257,7695
1659434820.051339,7697
1659434820.09542,7698
1659434820.128225,7687
1659434820.16103,7707
1659434820.205112,7695
1659434820.249194,7699
1659434820.293275,7698
1659434820.332573,7700
1659434820.371871,7710
1659434820.411168,7701
1659434820.452174,7699
1659434820.493181,7680
1659434820.532478,7667
1659434820.571776,7658
1659434820.611073,7648
1659434820.652592,7652
1659434820.694111,7651
1659434820.733409,7657
1659434820.772706,7647
1659434820.812004,7647
1659434820.851301,7646
1659434820.890599,7646
1659434820.929897,7653
1659434820.971416,7657
1659434821.012934,7669
1659434821.051548,7673
1659434821.090163,7689
1659434821.128777,7687
1659434821.170808,7686
1659434821.212839,7709
1659434821.252137,7706
1659434821.291435,7705
1659434821.330732,7707
1659434821.371226,7701
1659434821.41172,7692
1659434821.450675,7681
1659434821.489631,7680
1659434821.528587,7680
1659434821.571644,7687
1659434821.6147,7693
1659434821.653314,7694
1659434821.691929,7692
1659434821.730543,7698
1659434821.774966,7701
1659434821.81939,7706
1659434821.863813,7708
1659434821.904819,7715
1659434821.945825,7725
1659434821.98444,7726
1659434822.023054,7729
1659434822.061668,7742
1659434822.09994,7736
1659434822.138213,7744
1659434822.176485,7747
1659434822.219029,7737
1659434822.261573,7724
1659434822.299845,7716
1659434822.338118,7715
1659434822.37639,7715
1659434822.416884,7726
1659434822.457378,7718
1659434822.496675,7718
1659434822.535973,7718
1659434822.575271,7723
1659434822.613543,7714
1659434822.651815,7724
1659434822.690088,7727
1659434822.732119,7728
1659434822.774151,7736
1659434822.813107,7738
1659434822.852062,7742
1659434822.891018,7751
1659434822.932537,7746
1659434822.974056,7760
1659434823.01267,7746
1659434823.051284,7736
1659434823.089898,7708
1659434823.132442,7699
1659434823.174986,7690
1659434823.213259,7683
1659434823.251531,7692
1659434823.289804,7688
1659434823.33081,7700
1659434823.371816,7687
1659434823.41624,7676
1659434823.460663,7686
1659434823.505086,7677
1659434823.543359,7680
1659434823.581631,7678
1659434823.619904,7677
1659434823.661422,7674
1659434823.702941,7682
1659434823.74258,7671
1659434823.78222,7664
1659434823.821859,7668
1659434823.863378,7665
1659434823.904897,7658
1659434823.943853,7626
1659434823.982808,7614
1659434824.021764,7589
1659434824.061404,7587
1659434824.101043,7577
1659434824.140682,7569
1659434824.182714,7582
1659434824.224745,7583
1659434824.263017,7577
1659434824.30129,7568
1659434824.339562,7564
1659434824.378518,7571
1659434824.417474,7574
1659434824.45643,7576
1659434824.498974,7579
1659434824.541518,7578
1659434824.57979,7572
1659434824.618063,7571
1659434824.656335,7561
1659434824.700759,7557
1659434824.745182,7559
1659434824.789605,7545
1659434824.831637,7520
1659434824.873668,7501
1659434824.912282,7494
1659434824.950897,7480
1659434824.989511,7474
1659434825.028467,7477
1659434825.067422,7474
1659434825.106378,7469
1659434825.148922,7473
1659434825.191466,7467
1659434825.23008,7470
1659434825.268695,7466
1659434825.307309,7471
1659434825.348828,7468
1659434825.390346,7476
1659434825.428961,7474
1659434825.467575,7482
1659434825.506189,7486
1659434825.544803,7481
1659434825.583417,7497
1659434825.622031,7491
1659434825.664063,7478
1659434825.706094,7472
1659434825.744708,7454
1659434825.783322,7447
1659434825.821937,7435
1659434825.862943,7432
1659434825.903949,7425
1659434825.942221,7443
1659434825.980494,7438
1659434826.018766,7446
1659434826.060798,7447
1659434826.102829,7445
1659434826.141785,7454
1659434826.180741,7450
1659434826.219697,7459
1659434826.263778,7459
1659434826.30786,7465
1659434826.351942,7469
1659434826.393973,7473
1659434826.436004,7484
1659434826.47496,7477
1659434826.513916,7487
1659434826.552872,7495
1659434826.594391,7497
1659434826.63591,7481
1659434826.674866,7466
1659434826.713821,7463
1659434826.752777,7457
1659434826.791733,7466
1659434826.830689,7467
1659434826.869645,7465
1659434826.910651,7474
1659434826.951658,7462
1659434826.991297,7468
1659434827.030936,7470
1659434827.070575,7473
1659434827.112607,7473
1659434827.154638,7481
1659434827.192911,7490
1659434827.231183,7493
1659434827.269455,7505
1659434827.309095,7512
1659434827.348734,7523
1659434827.388374,7529
1659434827.430405,7533
1659434827.472436,7550
1659434827.51105,7536
1659434827.549664,7521
1659434827.588279,7514
1659434827.629797,7514
1659434827.671316,7514
1659434827.70993,7515
1659434827.748545,7529
1659434827.787159,7523
1659434827.828678,7541
1659434827.870196,7535
1659434827.914278,7530
1659434827.95836,7539
1659434828.002441,7547
1659434828.035759,7550
1659434828.069077,7556
1659434828.1135,7561
1659434828.157923,7565
1659434828.202347,7582
1659434828.241302,7580
1659434828.280258,7588
1659434828.319214,7597
1659434828.361758,7608
1659434828.404302,7604
1659434828.442575,7609
1659434828.480847,7600
1659434828.51912,7573
1659434828.560638,7574
1659434828.602157,7561
1659434828.640771,7561
1659434828.679385,7567
1659434828.718,7565
1659434828.756272,7571
1659434828.794544,7571
1659434828.832817,7572
1659434828.873003,7576
1659434828.913189,7580
1659434828.953375,7581
1659434828.993561,7583
1659434829.033747,7595
1659434829.072361,7594
1659434829.110976,7607
1659434829.14959,7601
1659434829.190084,7600
1659434829.230577,7615
1659434829.275684,7614
1659434829.320791,7628
1659434829.365898,7633
1659434829.398703,7638
1659434829.431508,7633
1659434829.475931,7626
1659434829.520354,7606
1659434829.564778,7601
1659434829.602452,7603
1659434829.640127,7608
1659434829.677801,7602
1659434829.715476,7600
1659434829.757507,7610
1659434829.799538,7603
1659434829.837811,7603
1659434829.876083,7612
1659434829.914356,7616
1659434829.9569,7619
1659434829.999444,7620
1659434830.038399,7620
1659434830.077355,7617
1659434830.116311,7629
1659434830.156805,7627
1659434830.197298,7634
1659434830.236254,7633
1659434830.27521,7636
1659434830.314166,7645
1659434830.357223,7631
1659434830.400279,7625
1659434830.438893,7612
1659434830.477507,7602
1659434830.516122,7598
1659434830.55764,7602
1659434830.599159,7595
1659434830.638798,7586
1659434830.678438,7590
1659434830.718077,7593
1659434830.762159,7578
1659434830.806241,7581
1659434830.850322,7581
1659434830.892354,7587
1659434830.934385,7591
1659434830.973341,7594
1659434831.012297,7594
1659434831.051253,7603
1659434831.089525,7601
1659434831.127797,7603
1659434831.16607,7608
1659434831.207076,7612
1659434831.248082,7615
1659434831.287038,7625
1659434831.325994,7606
1659434831.36495,7595
1659434831.406469,7567
1659434831.447988,7553
1659434831.486602,7553
1659434831.525216,7542
1659434831.56383,7537
1659434831.603469,7533
1659434831.643109,7516
1659434831.682748,7505
1659434831.723754,7514
1659434831.76476,7506
1659434831.803716,7497
1659434831.842672,7506
1659434831.881628,7493
1659434831.92366,7490
1659434831.965691,7489
1659434832.003622,7498
1659434832.041552,7504
1659434832.079483,7522
1659434832.119977,7526
1659434832.16047,7532
1659434832.205235,7534
1659434832.25,7527
1659434832.294766,7514
1659434832.333038,7504
1659434832.37131,7489
1659434832.409583,7489
1659434832.451102,7490
1659434832.49262,7492
1659434832.531918,7495
1659434832.571216,7504
1659434832.610513,7504
1659434832.652032,7500
1659434832.693551,7525
1659434832.731482,7515
1659434832.769413,7529
1659434832.807343,7529
1659434832.847324,7524
1659434832.887305,7533
1659434832.927286,7535
1659434832.968805,7536
1659434833.010324,7531
1659434833.04928,7534
1659434833.088236,7541
1659434833.127192,7542
1659434833.16871,7533
1659434833.210229,7510
1659434833.249527,7496
1659434833.288824,7492
1659434833.328122,7488
1659434833.366394,7473
1659434833.404667,7491
1659434833.442939,7494
1659434833.484458,7493
1659434833.525977,7510
1659434833.564249,7514
1659434833.602522,7530
1659434833.640794,7524
1659434833.682826,7524
1659434833.724857,7542
1659434833.769622,7545
1659434833.814387,7558
1659434833.859152,7548
1659434833.89247,7561
1659434833.925787,7565
1659434833.969869,7557
1659434834.013951,7557
1659434834.058032,7548
1659434834.091862,7542
1659434834.125693,7517
1659434834.170799,7504
1659434834.215906,7484
1659434834.261013,7485
1659434834.299285,7472
1659434834.337558,7488
1659434834.37583,7477
1659434834.416837,7473
1659434834.457843,7480
1659434834.496799,7474
1659434834.535755,7479
1659434834.57471,7487
1659434834.616229,7490
1659434834.657748,7491
1659434834.696362,7492
1659434834.734976,7491
1659434834.773591,7498
1659434834.812546,7501
1659434834.851502,7506
1659434834.890458,7508
1659434834.93249,7513
1659434834.974521,7514
1659434835.013135,7513
1659434835.051749,7506
1659434835.090364,7491
1659434835.129661,7479
1659434835.168959,7472
1659434835.208256,7477
1659434835.249775,7477
1659434835.291294,7486
1659434835.335034,7483
1659434835.378774,7486
1659434835.422514,7497
1659434835.455319,7492
1659434835.488124,7499
1659434835.532547,7500
1659434835.57697,7503
1659434835.621394,7512
1659434835.659666,7522
1659434835.697939,7532
1659434835.736211,7530
1659434835.778755,7537
1659434835.821299,7543
1659434835.860255,7554
1659434835.899211,7550
1659434835.938167,7558
1659434835.979173,7573
1659434836.020179,7561
1659434836.059477,7551
1659434836.098774,7534
1659434836.138072,7531
1659434836.180616,7529
1659434836.22316,7533
1659434836.261774,7535
1659434836.300388,7527
1659434836.339002,7524
1659434836.3783,7516
1659434836.417598,7513
1659434836.456895,7520
1659434836.498414,7523
1659434836.539933,7535
1659434836.578547,7528
1659434836.617161,7525
1659434836.655775,7518
1659434836.694731,7512
1659434836.733687,7511
1659434836.772643,7499
1659434836.814162,7517
1659434836.85568,7509
1659434836.896174,7508
1659434836.936668,7496
1659434836.975965,7476
1659434837.015263,7468
1659434837.054561,7461
1659434837.096592,7456
1659434837.138623,7455
1659434837.177238,7461
1659434837.215852,7451
1659434837.254466,7443
1659434837.298889,7439
1659434837.343313,7432
1659434837.387736,7434
1659434837.422079,7428
1659434837.456421,7425
1659434837.500845,7409
1659434837.545268,7409
1659434837.589691,7409
1659434837.628306,7403
1659434837.66692,7414
1659434837.705534,7413
1659434837.747053,7420
1659434837.788572,7427
1659434837.826502,7412
1659434837.864433,7397
1659434837.902364,7376
1659434837.940636,7370
1659434837.978909,7351
1659434838.017181,7353
1659434838.056479,7342
1659434838.095776,7325
1659434838.135074,7327
1659434838.179156,7321
1659434838.223237,7326
1659434838.267319,7318
1659434838.309863,7323
1659434838.352407,7319
1659434838.391363,7319
1659434838.430319,7304
1659434838.469275,7296
1659434838.510793,7291
1659434838.552312,7272
1659434838.590926,7263
1659434838.62954,7256
1659434838.668155,7256
1659434838.707794,7253
1659434838.747433,7234
1659434838.787073,7211
1659434838.827566,7185
1659434838.86806,7178
1659434838.906674,7160
1659434838.945288,7145
1659434838.983902,7140
1659434839.025421,7128
1659434839.06694,7135
1659434839.106238,7125
1659434839.145535,7129
1659434839.184833,7134
1659434839.223105,7141
1659434839.261378,7149
1659434839.29965,7169
1659434839.341169,7161
1659434839.382688,7166
1659434839.421985,7173
1659434839.461283,7166
1659434839.500581,7170
1659434839.542099,7188
1659434839.583618,7186
1659434839.622574,7182
1659434839.66153,7172
1659434839.700486,7160
1659434839.74303,7137
1659434839.785574,7137
1659434839.829314,7130
1659434839.873054,7133
1659434839.916794,7134
1659434839.955749,7128
1659434839.994705,7121
1659434840.033661,7124
1659434840.075692,7125
1659434840.117724,7130
1659434840.156338,7135
1659434840.194952,7134
1659434840.233566,7143
1659434840.272181,7153
1659434840.310795,7147
1659434840.349409,7155
1659434840.388706,7154
1659434840.428004,7154
1659434840.467302,7169
1659434840.508308,7156
1659434840.549314,7148
1659434840.58827,7127
1659434840.627226,7124
1659434840.666182,7118
1659434840.708726,7127
1659434840.75127,7115
1659434840.789542,7112
1659434840.827815,7116
1659434840.866087,7106
1659434840.906581,7106
1659434840.947074,7103
1659434840.98603,7099
1659434841.024986,7102
1659434841.063942,7108
1659434841.105461,7108
1659434841.14698,7114
1659434841.191061,7114
1659434841.235143,7109
1659434841.279225,7112
1659434841.317839,7106
1659434841.356453,7111
1659434841.395067,7107
1659434841.436586,7092
1659434841.478105,7079
1659434841.516377,7061
1659434841.55465,7069
1659434841.592922,7063
1659434841.635978,7064
1659434841.679035,7067
1659434841.717649,7061
1659434841.756263,7058
1659434841.794878,7060
1659434841.833492,7056
1659434841.872106,7060
1659434841.91072,7072
1659434841.953264,7079
1659434841.995808,7080
1659434842.035105,7083
1659434842.074403,7087
1659434842.113701,7088
1659434842.154194,7080
1659434842.194688,7087
1659434842.233986,7086
1659434842.273283,7084
1659434842.312581,7081
1659434842.350853,7054
1659434842.389126,7053
1659434842.427398,7046
1659434842.47148,7038
1659434842.515562,7047
1659434842.559643,7044
1659434842.599283,7054
1659434842.638922,7042
1659434842.678561,7042
1659434842.72008,7042
1659434842.761599,7049
1659434842.800555,7050
1659434842.83951,7056
1659434842.878466,7066
1659434842.920498,7057
1659434842.962529,7077
1659434843.001143,7072
1659434843.039757,7070
1659434843.078372,7078
1659434843.116986,7078
1659434843.1556,7081
1659434843.194214,7075
1659434843.236758,7076
1659434843.279302,7062
1659434843.317575,7065
1659434843.355847,7057
1659434843.39412,7051
1659434843.435126,7072
1659434843.476132,7069
1659434843.515088,7072
1659434843.554044,7073
1659434843.592999,7071
1659434843.635031,7081
1659434843.677062,7085
1659434843.715676,7092
1659434843.754291,7098
1659434843.792905,7104
1659434843.83767,7120
1659434843.882435,7128
1659434843.9272,7124
1659434843.960005,7116
1659434843.99281,7125
1659434844.037233,7123
1659434844.081657,7133
1659434844.12608,7127
1659434844.15991,7120
1659434844.19374,7108
1659434844.235259,7098
1659434844.276778,7098
1659434844.318297,7097
1659434844.359815,7103
1659434844.400309,7102
1659434844.440803,7109
1659434844.479417,7101
1659434844.518031,7103
1659434844.556645,7101
1659434844.595601,7108
1659434844.634557,7114
1659434844.673513,7118
1659434844.71408,7116
1659434844.754647,7123
1659434844.795213,7122
1659434844.83578,7122
1659434844.876347,7121
1659434844.916914,7113
1659434844.957481,7119
1659434844.997462,7104
1659434845.037443,7088
1659434845.077424,7067
1659434845.117405,7072
1659434845.157386,7062
1659434845.201809,7063
1659434845.246233,7053
1659434845.290656,7052
1659434845.328331,7058
1659434845.366005,7055
1659434845.40368,7054
1659434845.441354,7057
1659434845.48031,7060
1659434845.519266,7065
1659434845.558222,7084
1659434845.602304,7080
1659434845.646385,7077
1659434845.690467,7086
1659434845.731473,7080
1659434845.772479,7083
1659434845.811435,7087
1659434845.850391,7093
1659434845.889347,7092
1659434845.931891,7084
1659434845.974435,7071
1659434846.013391,7059
1659434846.052346,7058
1659434846.091302,7048
1659434846.1306,7043
1659434846.169898,7056
1659434846.209195,7046
1659434846.251227,7047
1659434846.293258,7049
1659434846.33153,7045
1659434846.369803,7053
1659434846.408075,7050
1659434846.450619,7063
1659434846.493163,7061
1659434846.532119,7074
1659434846.571075,7067
1659434846.610031,7081
1659434846.647962,7087
1659434846.685892,7080
1659434846.723823,7077
1659434846.765342,7083
1659434846.806861,7078
1659434846.845133,7068
1659434846.883405,7061
1659434846.921678,7050
1659434846.963197,7040
1659434847.004715,7041
1659434847.043671,7027
1659434847.082627,7037
1659434847.121583,7028
1659434847.163102,7024
1659434847.204621,7026
1659434847.249044,7022
1659434847.293468,7022
1659434847.337891,7020
1659434847.376847,7030
1659434847.415803,7039
1659434847.454759,7046
1659434847.497303,7045
1659434847.539846,7038
1659434847.577777,7041
1659434847.615708,7029
1659434847.653639,7015
1659434847.692595,7011
1659434847.73155,7011
1659434847.770506,7008
1659434847.811512,7005
1659434847.852519,7002
1659434847.891475,7000
1659434847.930431,6990
1659434847.969386,6988
1659434848.010905,6985
1659434848.052424,6974
1659434848.091722,6974
1659434848.131019,6974
1659434848.170317,6972
1659434848.208931,6971
1659434848.247545,6970
1659434848.286159,6980
1659434848.327678,6986
1659434848.369197,6987
1659434848.408494,6999
1659434848.447792,6998
1659434848.48709,7004
1659434848.528096,7007
1659434848.569102,7005
1659434848.607716,7007
1659434848.646331,7004
1659434848.684945,7005
1659434848.727489,7003
1659434848.770033,6999
1659434848.814456,6988
1659434848.858879,6977
1659434848.903303,6979
1659434848.936108,6970
1659434848.968913,6970
1659434849.013336,6976
1659434849.057759,6975
1659434849.102183,6972
1659434849.140797,6982
1659434849.179411,6975
1659434849.218025,6978
1659434849.260057,6994
1659434849.302088,6989
1659434849.341386,6998
1659434849.380683,6994
1659434849.419981,6997
1659434849.4615,7006
1659434849.503018,7006
1659434849.541633,7013
1659434849.580247,7020
1659434849.618861,7026
1659434849.657817,7016
1659434849.696773,7019
1659434849.735729,7018
1659434849.77776,7015
1659434849.819791,7004
1659434849.858406,7012
1659434849.89702,7016
1659434849.935634,7027
1659434849.97664,7021
1659434850.017646,7020
1659434850.05626,7018
1659434850.094875,7020
1659434850.133489,7019
1659434850.171761,7008
1659434850.210034,7016
1659434850.248306,7018
1659434850.289825,7025
1659434850.331344,7012
1659434850.373888,7013
1659434850.416431,7020
1659434850.455046,7022
1659434850.49366,7035
1659434850.532274,7027
1659434850.576697,7039
1659434850.621121,7027
1659434850.665544,7031
1659434850.699374,7017
1659434850.733204,7015
1659434850.77797,7023
1659434850.822735,7019
1659434850.8675,7024
1659434850.89928,7023
1659434850.931059,7029
1659434850.975141,7028
1659434851.019223,7035
1659434851.063304,7032
1659434851.101918,7026
1659434851.140533,7045
1659434851.179147,7046
1659434851.220666,7049
1659434851.262184,7056
1659434851.30114,7051
1659434851.340096,7048
1659434851.379052,7057
1659434851.418008,7064
1659434851.456964,7061
1659434851.49592,7068
1659434851.536926,7061
1659434851.577932,7053
1659434851.617913,7058
1659434851.657894,7045
1659434851.697875,7037
1659434851.739394,7041
1659434851.780913,7038
1659434851.819869,7046
1659434851.858825,7050
1659434851.897781,7050
1659434851.939299,7046
1659434851.980818,7050
1659434852.020458,7052
1659434852.060097,7057
1659434852.099736,7078
1659434852.14023,7071
1659434852.180723,7082
1659434852.219679,7068
1659434852.258635,7069
1659434852.297591,7060
1659434852.342015,7072
1659434852.386438,7071
1659434852.430861,7074
1659434852.464179,7069
1659434852.497496,7062
1659434852.541578,7049
1659434852.58566,7051
1659434852.629741,7047
1659434852.67126,7058
1659434852.712779,7049
1659434852.751051,7050
1659434852.789324,7046
1659434852.827596,7044
1659434852.866552,7047
1659434852.905508,7055
1659434852.944464,7055
1659434852.987008,7059
1659434853.029552,7065
1659434853.068166,7060
1659434853.10678,7066
1659434853.145394,7073
1659434853.184008,7073
1659434853.222623,7078
1659434853.261237,7076
1659434853.302756,7078
1659434853.344274,7064
1659434853.382547,7055
1659434853.420819,7051
1659434853.459092,7049
1659434853.501123,7058
1659434853.543154,7049
1659434853.581427,7039
1659434853.619699,7042
1659434853.657972,7037
1659434853.700003,7038
1659434853.742034,7035
1659434853.780649,7045
1659434853.819263,7043
1659434853.857877,7058
1659434853.902642,7051
1659434853.947407,7051
1659434853.992172,7068
1659434854.033691,7058
1659434854.07521,7060
1659434854.113824,7057
1659434854.152438,7063
1659434854.191052,7059
1659434854.232571,7052
1659434854.27409,7046
1659434854.312362,7028
1659434854.350635,7033
1659434854.388907,7020
1659434854.427521,7029
1659434854.466136,7017
1659434854.50475,7008
1659434854.547294,7020
1659434854.589838,7027
1659434854.628794,7016
1659434854.66775,7009
1659434854.706706,7012
1659434854.748224,7018
1659434854.789743,7023
1659434854.828699,7016
1659434854.867655,7016
1659434854.906611,7020
1659434854.946592,7017
1659434854.986573,7021
1659434855.026554,7020
1659434855.06756,7029
1659434855.108566,7024
1659434855.147522,7020
1659434855.186478,7014
1659434855.225434,6998
1659434855.267978,6993
1659434855.310522,6989
1659434855.349136,6983
1659434855.38775,6995
1659434855.426364,6985
1659434855.466858,6986
1659434855.507352,6990
1659434855.552117,6985
1659434855.596882,6986
1659434855.641647,6983
1659434855.674452,6982
1659434855.707257,6979
1659434855.751338,6996
1659434855.79542,6987
1659434855.839502,6982
1659434855.879141,6988
1659434855.918781,6985
1659434855.95842,6985
1659434855.997991,6988
1659434856.037562,6991
1659434856.077133,6983
1659434856.116704,6982
1659434856.156275,6963
1659434856.195914,6958
1659434856.235553,6947
1659434856.275193,6946
1659434856.313465,6952
1659434856.351737,6933
1659434856.39001,6942
1659434856.432041,6930
1659434856.474073,6942
1659434856.512687,6940
1659434856.551301,6931
1659434856.589915,6942
1659434856.630922,6939
1659434856.671928,6944
1659434856.7102,6951
1659434856.748473,6948
1659434856.786745,6954
1659434856.828776,6959
1659434856.870808,6966
1659434856.909422,6963
1659434856.948036,6970
1659434856.98665,6962
1659434857.030732,6955
1659434857.074814,6952
1659434857.118895,6946
1659434857.161439,6953
1659434857.203983,6949
1659434857.242939,6953
1659434857.281895,6951
1659434857.320851,6953
1659434857.36237,6949
1659434857.403888,6948
1659434857.443528,6948
1659434857.483167,6954
1659434857.522806,6947
1659434857.561421,6957
1659434857.600035,6954
1659434857.638649,6958
1659434857.679142,6955
1659434857.719636,6954
1659434857.758592,6959
1659434857.797548,6953
1659434857.836504,6957
1659434857.879048,6959
1659434857.921592,6963
1659434857.959864,6953
1659434857.998137,6951
1659434858.036409,6940
1659434858.075707,6942
1659434858.115004,6949
1659434858.154302,6947
1659434858.195821,6948
1659434858.237339,6947
1659434858.276637,6953
1659434858.315935,6951
1659434858.355232,6960
1659434858.396751,6956
1659434858.43827,6958
1659434858.483035,6964
1659434858.5278,6957
1659434858.572565,6957
1659434858.611179,6964
1659434858.649794,6964
1659434858.688408,6962
1659434858.729414,6964
1659434858.77042,6965
1659434858.810059,6962
1659434858.849699,6969
1659434858.889338,6961
1659434858.927611,6957
1659434858.965883,6946
1659434859.004155,6949
1659434859.045162,6944
1659434859.086168,6952
1659434859.124782,6948
1659434859.163396,6943
1659434859.20201,6955
1659434859.244042,6955
1659434859.286073,6956
1659434859.325029,6960
1659434859.363985,6956
1659434859.402941,6963
1659434859.441897,6966
1659434859.480853,6969
1659434859.519809,6965
1659434859.561327,6973
1659434859.602846,6977
1659434859.641119,6972
1659434859.679391,6982
1659434859.717663,6980
1659434859.760207,6982
1659434859.802751,6975
1659434859.841365,6966
1659434859.87998,6979
1659434859.918594,6971
1659434859.959087,6966
1659434859.999581,6975
1659434860.043663,6979
1659434860.087744,6975
1659434860.131826,6974
1659434860.17044,6990
1659434860.209054,6981
1659434860.247669,6989
1659434860.289187,6974
1659434860.330706,6981
1659434860.369662,6990
1659434860.408618,6990
1659434860.447574,6990
1659434860.489605,6995
1659434860.531636,7001
1659434860.570251,6993
1659434860.608865,7012
1659434860.647479,7008
1659434860.686777,6995
1659434860.726074,6999
1659434860.765372,6992
1659434860.807916,6989
1659434860.85046,6992
1659434860.888391,6995
1659434860.926321,6997
1659434860.964252,6997
1659434861.005771,6997
1659434861.047289,6997
1659434861.086245,7003
1659434861.125201,7005
1659434861.164157,7019
1659434861.203113,7009
1659434861.242069,7009
1659434861.281025,7017
1659434861.32579,7020
1659434861.370555,7021
1659434861.41532,7016
1659434861.454276,7031
1659434861.493232,7027
1659434861.532188,7024
1659434861.571144,7024
1659434861.6101,7018
1659434861.649055,7020
1659434861.690574,7017
1659434861.732093,7007
1659434861.771049,7012
1659434861.810005,7007
1659434861.848961,7011
1659434861.887233,7018
1659434861.925506,7014
1659434861.963778,7011
1659434862.006322,7021
1659434862.048866,7021
1659434862.087138,7029
1659434862.125411,7039
1659434862.163683,7037
1659434862.20469,7040
1659434862.245696,7052
1659434862.290119,7046
1659434862.334543,7047
1659434862.378966,7045
1659434862.412796,7048
1659434862.446626,7051
1659434862.490366,7063
1659434862.534106,7046
1659434862.577846,7033
1659434862.611164,7033
1659434862.644481,7025
1659434862.689246,7022
1659434862.734011,7024
1659434862.778776,7028
1659434862.81739,7029
1659434862.856005,7040
1659434862.894619,7028
1659434862.936138,7035
1659434862.977656,7041
1659434863.016954,7039
1659434863.056252,7044
1659434863.095549,7039
1659434863.136043,7049
1659434863.176537,7044
1659434863.215151,7053
1659434863.253765,7048
1659434863.292379,7049
1659434863.331677,7063
1659434863.370974,7064
1659434863.410272,7067
1659434863.451791,7046
1659434863.493309,7034
1659434863.531582,7031
1659434863.569854,7031
1659434863.608127,7025
1659434863.647766,7024
1659434863.687405,7032
1659434863.727045,7025
1659434863.769076,7040
1659434863.811107,7028
1659434863.852114,7024
1659434863.89312,7035
1659434863.932418,7037
1659434863.971715,7035
1659434864.011013,7037
1659434864.053044,7044
1659434864.095075,7038
1659434864.134031,7055
1659434864.172987,7049
1659434864.211943,7045
1659434864.256025,7060
1659434864.300107,7050
1659434864.344188,7057
1659434864.376993,7045
1659434864.409798,7039
1659434864.453538,7034
1659434864.497278,7028
1659434864.541018,7021
1659434864.579632,7028
1659434864.618246,7037
1659434864.65686,7036
1659434864.699917,7035
1659434864.742973,7032
1659434864.781588,7030
1659434864.820202,7038
1659434864.858816,7043
1659434864.900335,7044
1659434864.941854,7041
1659434864.981493,7044
1659434865.021132,7037
1659434865.060771,7035
1659434865.099044,7041
1659434865.137316,7035
1659434865.175589,7027
1659434865.21762,7024
1659434865.259652,7017
1659434865.299291,7053
1659434865.33893,7454
1659434865.37857,7860
1659434865.419063,7725
1659434865.459557,7544
1659434865.498171,7404
1659434865.536785,7386
1659434865.575399,7255
1659434865.617943,7126
1659434865.660487,7118
1659434865.698418,7130
1659434865.736349,7149
1659434865.774279,7191
1659434865.818019,7235
1659434865.861759,7267
1659434865.905499,7304
1659434865.939329,7372
1659434865.97316,7402
1659434866.017241,7410
1659434866.061323,7384
1659434866.105405,7362
1659434866.14436,7384
1659434866.183316,7389
1659434866.222272,7394
1659434866.264816,7433
1659434866.30736,7416
1659434866.345974,7368
1659434866.384588,7360
1659434866.423203,7321
