LocalTimestamp,PG
1659443241.430053,8858
1659443241.47043,8787
1659443241.510808,8776
1659443241.551186,8886
1659443241.591564,9126
1659443241.631942,9523
1659443241.670515,10059
1659443241.709089,10464
1659443241.747662,10748
1659443241.786235,10968
1659443241.824809,11227
1659443241.863382,11517
1659443241.905369,11721
1659443241.947356,11947
1659443241.989343,12078
1659443242.031331,12228
1659443242.069221,12356
1659443242.107112,12596
1659443242.145003,12886
1659443242.184259,13050
1659443242.223515,13178
1659443242.262771,13255
1659443242.304758,13298
1659443242.346745,13278
1659443242.384977,13239
1659443242.423209,13255
1659443242.461442,13322
1659443242.503429,13428
1659443242.545416,13484
1659443242.584331,13559
1659443242.623245,13613
1659443242.66216,13635
1659443242.706195,13715
1659443242.750231,13826
1659443242.794266,13917
1659443242.836765,14020
1659443242.879264,14076
1659443242.918179,14106
1659443242.957093,14141
1659443242.996008,14104
1659443243.036459,14081
1659443243.07691,14078
1659443243.115825,14104
1659443243.15474,14133
1659443243.193655,14133
1659443243.232228,14161
1659443243.270802,14202
1659443243.309375,14232
1659443243.35085,14229
1659443243.392325,14262
1659443243.431922,14290
1659443243.47152,14305
1659443243.511118,14343
1659443243.553105,14358
1659443243.595092,14377
1659443243.633665,14348
1659443243.672239,14277
1659443243.710812,14246
1659443243.753311,14285
1659443243.79581,14344
1659443243.834725,14391
1659443243.87364,14418
1659443243.912555,14432
1659443243.951128,14444
1659443243.989702,14452
1659443244.028275,14485
1659443244.069238,14501
1659443244.110201,14543
1659443244.1527,14563
1659443244.195199,14573
1659443244.233773,14566
1659443244.272346,14465
1659443244.31092,14363
1659443244.355296,14330
1659443244.399673,14356
1659443244.444049,14391
1659443244.47682,14431
1659443244.50959,14493
1659443244.553967,14524
1659443244.598343,14538
1659443244.64272,14553
1659443244.676514,14588
1659443244.710308,14634
1659443244.750247,14706
1659443244.790186,14761
1659443244.830125,14800
1659443244.870064,14813
1659443244.910003,14743
1659443244.954379,14615
1659443244.998756,14524
1659443245.043133,14497
1659443245.08273,14529
1659443245.122328,14579
1659443245.161925,14610
1659443245.202888,14621
1659443245.243851,14649
1659443245.282083,14649
1659443245.320315,14680
1659443245.358547,14699
1659443245.39951,14711
1659443245.440473,14702
1659443245.479388,14670
1659443245.518303,14682
1659443245.557218,14629
1659443245.595791,14538
1659443245.634365,14509
1659443245.672938,14548
1659443245.714413,14604
1659443245.755888,14651
1659443245.795144,14677
1659443245.8344,14684
1659443245.873657,14689
1659443245.915644,14710
1659443245.957631,14741
1659443245.996204,14749
1659443246.034778,14773
1659443246.073351,14793
1659443246.115338,14812
1659443246.157325,14827
1659443246.195899,14762
1659443246.234472,14643
1659443246.273046,14585
1659443246.314521,14652
1659443246.355995,14755
1659443246.400713,14821
1659443246.445431,14860
1659443246.490149,14888
1659443246.529064,14914
1659443246.567979,14924
1659443246.606894,14944
1659443246.647345,14939
1659443246.687796,14937
1659443246.727052,14961
1659443246.766308,14966
1659443246.805564,14966
1659443246.848063,14885
1659443246.890562,14775
1659443246.929477,14730
1659443246.968392,14787
1659443247.007307,14808
1659443247.046563,14850
1659443247.085819,14890
1659443247.125075,14884
1659443247.16655,14870
1659443247.208025,14871
1659443247.246257,14902
1659443247.284489,14930
1659443247.322721,14961
1659443247.361978,14991
1659443247.401234,14999
1659443247.44049,14981
1659443247.482477,14871
1659443247.524464,14780
1659443247.562696,14707
1659443247.600928,14683
1659443247.63916,14696
1659443247.680635,14707
1659443247.722111,14720
1659443247.760684,14773
1659443247.799257,14823
1659443247.837831,14878
1659443247.879306,14941
1659443247.920781,14976
1659443247.965499,15008
1659443248.010217,15027
1659443248.054935,15037
1659443248.094191,15051
1659443248.133447,14999
1659443248.172703,14904
1659443248.213666,14883
1659443248.254629,14899
1659443248.293544,14891
1659443248.332458,14946
1659443248.371373,14996
1659443248.413872,15017
1659443248.456372,15039
1659443248.494262,15063
1659443248.532153,15075
1659443248.570044,15090
1659443248.608959,15121
1659443248.647873,15150
1659443248.686788,15176
1659443248.727751,15209
1659443248.768714,15228
1659443248.807629,15233
1659443248.846544,15193
1659443248.885459,15156
1659443248.924032,15148
1659443248.962605,15173
1659443249.001179,15224
1659443249.043166,15262
1659443249.085153,15270
1659443249.123727,15276
1659443249.1623,15276
1659443249.200873,15282
1659443249.242861,15290
1659443249.284847,15294
1659443249.326835,15312
1659443249.368822,15333
1659443249.407737,15345
1659443249.446651,15335
1659443249.485566,15261
1659443249.529943,15240
1659443249.574319,15251
1659443249.618696,15289
1659443249.651978,15327
1659443249.685261,15354
1659443249.729637,15343
1659443249.774014,15343
1659443249.81839,15362
1659443249.856964,15368
1659443249.895537,15366
1659443249.934111,15377
1659443249.975585,15400
1659443250.017061,15428
1659443250.057204,15456
1659443250.097348,15418
1659443250.137492,15422
1659443250.177635,15452
1659443250.217779,15486
1659443250.259766,15523
1659443250.301753,15546
1659443250.340668,15577
1659443250.379583,15587
1659443250.418498,15554
1659443250.459973,15554
1659443250.501448,15617
1659443250.540704,15661
1659443250.57996,15723
1659443250.619216,15697
1659443250.658131,15636
1659443250.697046,15569
1659443250.735961,15395
1659443250.776924,15185
1659443250.817887,15095
1659443250.85646,15133
1659443250.895033,15158
1659443250.933607,15190
1659443250.972522,15238
1659443251.011436,15234
1659443251.050351,15219
1659443251.092338,15203
1659443251.134326,15131
1659443251.172216,15001
1659443251.210107,14839
1659443251.247998,14662
1659443251.290497,14361
1659443251.332996,13512
1659443251.371228,12561
1659443251.40946,12031
1659443251.447692,11971
1659443251.489167,12306
1659443251.530642,12673
1659443251.575019,12959
1659443251.619395,13138
1659443251.663772,13249
1659443251.697566,13347
1659443251.731361,13418
1659443251.775054,13455
1659443251.818748,13433
1659443251.862442,13423
1659443251.901016,13467
1659443251.939589,13475
1659443251.978163,13392
1659443252.020662,13314
1659443252.063161,13282
1659443252.101051,13176
1659443252.138942,13174
1659443252.176833,13256
1659443252.218308,13394
1659443252.259783,13484
1659443252.299381,13521
1659443252.338978,13582
1659443252.378576,13628
1659443252.416808,13662
1659443252.45504,13680
1659443252.493272,13659
1659443252.536283,13542
1659443252.579294,13178
1659443252.618209,12379
1659443252.657124,11718
1659443252.696038,11426
1659443252.737514,11296
1659443252.778989,11255
1659443252.817903,11249
1659443252.856818,11381
1659443252.895733,11590
1659443252.938232,11763
1659443252.980731,11950
1659443253.018622,12137
1659443253.056513,12287
1659443253.094403,12419
1659443253.135878,12512
1659443253.177353,12553
1659443253.216268,12547
1659443253.255183,12345
1659443253.294098,12050
1659443253.338133,11986
1659443253.382168,12098
1659443253.426203,12234
1659443253.459998,12353
1659443253.493792,12442
1659443253.538851,12387
1659443253.583911,12273
1659443253.62897,12240
1659443253.669933,12260
1659443253.710896,12298
1659443253.749811,12378
1659443253.788726,12454
1659443253.82764,12540
1659443253.867238,12629
1659443253.906836,12637
1659443253.946433,12427
1659443253.987908,12167
1659443254.029383,12075
1659443254.067615,12096
1659443254.105847,12137
1659443254.144079,12270
1659443254.185554,12416
1659443254.227029,12518
1659443254.265944,12581
1659443254.304859,12645
1659443254.343774,12722
1659443254.382347,12815
1659443254.420921,12939
1659443254.459494,13053
1659443254.500457,13146
1659443254.54142,13230
1659443254.580335,13281
1659443254.61925,13272
1659443254.658165,13159
1659443254.69964,13085
1659443254.741115,13066
1659443254.780029,13069
1659443254.818944,13091
1659443254.857859,13194
1659443254.899334,13304
1659443254.940809,13374
1659443254.979724,13420
1659443255.018639,13469
1659443255.057554,13531
1659443255.09954,13562
1659443255.141527,13607
1659443255.186245,13649
1659443255.230963,13657
1659443255.275681,13677
1659443255.315211,13676
1659443255.35474,13627
1659443255.394269,13441
1659443255.433798,13264
1659443255.473328,13199
1659443255.51156,13182
1659443255.549792,13167
1659443255.588024,13146
1659443255.630523,13153
1659443255.673022,13233
1659443255.711937,13370
1659443255.750852,13473
1659443255.789767,13532
1659443255.829364,13545
1659443255.868962,13502
1659443255.908559,13389
1659443255.949522,13209
1659443255.990485,12977
1659443256.0294,12708
1659443256.068315,12186
1659443256.107229,11344
1659443256.149729,10571
1659443256.192228,10077
1659443256.231143,9750
1659443256.270057,9545
1659443256.308972,9455
1659443256.347204,9398
1659443256.385436,9327
1659443256.423668,9239
1659443256.465655,9205
1659443256.507643,9198
1659443256.546216,9233
1659443256.584789,9281
1659443256.623363,9333
1659443256.664838,9404
1659443256.706313,9465
1659443256.751372,9528
1659443256.796431,9451
1659443256.841491,9142
1659443256.875285,8885
1659443256.90908,8848
1659443256.953115,8909
1659443256.99715,8965
1659443257.041185,9087
1659443257.07498,9225
1659443257.108774,9351
1659443257.153151,9447
1659443257.197527,9537
1659443257.241904,9636
1659443257.279794,9755
1659443257.317685,9863
1659443257.355576,9934
1659443257.396539,10009
1659443257.437502,10123
1659443257.476417,10283
1659443257.515331,10449
1659443257.554246,10481
1659443257.59282,10592
1659443257.631393,10813
1659443257.669966,10961
1659443257.711442,11059
1659443257.752917,11131
1659443257.79149,11241
1659443257.830064,11406
1659443257.868637,11588
1659443257.90721,11722
1659443257.945784,11864
1659443257.984357,11988
1659443258.026856,12122
1659443258.069355,12271
1659443258.114415,12428
1659443258.159474,12564
1659443258.204533,12688
1659443258.236792,12771
1659443258.26905,12745
1659443258.314109,12694
1659443258.359169,12675
1659443258.404228,12694
1659443258.438022,12741
1659443258.471817,12787
1659443258.515852,12834
1659443258.559887,12848
1659443258.603922,12864
1659443258.642837,12881
1659443258.681752,12918
1659443258.720667,12942
1659443258.762142,12980
1659443258.803617,13014
1659443258.841507,13049
1659443258.879398,13078
1659443258.917289,13087
1659443258.956545,13005
1659443258.995801,12891
1659443259.035057,12844
1659443259.077556,12864
1659443259.120055,12905
1659443259.15897,12951
1659443259.197885,13005
1659443259.2368,13053
1659443259.278275,13087
1659443259.31975,13131
1659443259.359006,13181
1659443259.398262,13224
1659443259.437519,13272
1659443259.479506,13316
1659443259.521492,13364
1659443259.560066,13396
1659443259.598639,13427
1659443259.637213,13359
1659443259.678688,13271
1659443259.720163,13272
1659443259.759078,13297
1659443259.797993,13336
1659443259.836907,13391
1659443259.878382,13448
1659443259.919858,13494
1659443259.958431,13531
1659443259.997004,13560
1659443260.035578,13614
1659443260.079954,13658
1659443260.124331,13696
1659443260.168707,13727
1659443260.20199,13766
1659443260.235272,13799
1659443260.279649,13833
1659443260.324025,13830
1659443260.368402,13771
1659443260.410389,13769
1659443260.452376,13807
1659443260.490949,13846
1659443260.529523,13882
1659443260.568096,13927
1659443260.607626,13951
1659443260.647155,13971
1659443260.686684,13988
1659443260.726213,14011
1659443260.765743,14034
1659443260.80773,14055
1659443260.849717,14080
1659443260.88829,14109
1659443260.926864,14133
1659443260.965437,14158
1659443261.004693,14147
1659443261.043949,14065
1659443261.083206,14035
1659443261.124169,14065
1659443261.165132,14100
1659443261.203705,14138
1659443261.242279,14180
1659443261.280852,14202
1659443261.322839,14227
1659443261.364826,14254
1659443261.404082,14280
1659443261.443338,14294
1659443261.482594,14317
1659443261.520827,14344
1659443261.559059,14361
1659443261.597291,14382
1659443261.63979,14400
1659443261.682289,14409
1659443261.724788,14340
1659443261.767287,14287
1659443261.805178,14290
1659443261.843069,14316
1659443261.88096,14346
1659443261.923203,14380
1659443261.965446,14410
1659443262.007689,14429
1659443262.049932,14440
1659443262.088164,14454
1659443262.126396,14470
1659443262.164628,14498
1659443262.205591,14511
1659443262.246554,14526
1659443262.286151,14549
1659443262.325749,14572
1659443262.365346,14580
1659443262.407334,14559
1659443262.449321,14463
1659443262.488235,14432
1659443262.52715,14449
1659443262.566065,14478
1659443262.608052,14507
1659443262.650039,14536
1659443262.688954,14560
1659443262.727869,14582
1659443262.766783,14598
1659443262.810477,14610
1659443262.854171,14645
1659443262.897865,14650
1659443262.932172,14666
1659443262.966478,14692
1659443263.010172,14709
1659443263.053866,14732
1659443263.097559,14742
1659443263.129818,14733
1659443263.162076,14647
1659443263.206453,14634
1659443263.250829,14640
1659443263.295206,14656
1659443263.333779,14695
1659443263.372353,14717
1659443263.410926,14731
1659443263.452401,14742
1659443263.493876,14760
1659443263.533132,14768
1659443263.572388,14798
1659443263.611645,14802
1659443263.650218,14818
1659443263.688792,14830
1659443263.727365,14840
1659443263.76884,14862
1659443263.810315,14865
1659443263.849571,14828
1659443263.888827,14765
1659443263.928084,14761
1659443263.970071,14775
1659443264.012058,14793
1659443264.05029,14822
1659443264.088522,14832
1659443264.126754,14841
1659443264.167717,14845
1659443264.20868,14854
1659443264.247936,14869
1659443264.287192,14889
1659443264.326448,14903
1659443264.370484,14910
1659443264.414519,14940
1659443264.458554,14949
1659443264.491324,14966
1659443264.524095,14942
1659443264.568813,14861
1659443264.613531,14839
1659443264.658248,14839
1659443264.699211,14851
1659443264.740174,14870
1659443264.779772,14901
1659443264.81937,14919
1659443264.858967,14942
1659443264.897882,14936
1659443264.936797,14946
1659443264.975711,14967
1659443265.017699,14973
1659443265.059685,14989
1659443265.098259,14994
1659443265.136832,15013
1659443265.175406,15023
1659443265.217905,15040
1659443265.260404,15034
1659443265.298978,14962
1659443265.337551,14922
1659443265.376124,14916
1659443265.414698,14932
1659443265.453271,14951
1659443265.491845,14974
1659443265.53332,14988
1659443265.574795,15004
1659443265.614051,15006
1659443265.653307,15014
1659443265.692563,15021
1659443265.734038,15040
1659443265.775513,15065
1659443265.815657,15064
1659443265.855801,15074
1659443265.895944,15099
1659443265.936088,15096
1659443265.976232,15099
1659443266.014464,15058
1659443266.052696,14946
1659443266.090928,14894
1659443266.132915,14898
1659443266.174902,14906
1659443266.219279,14932
1659443266.263655,14981
1659443266.308032,15003
1659443266.34029,15024
1659443266.372549,15033
1659443266.416584,15046
1659443266.460619,15058
1659443266.504654,15073
1659443266.543569,15094
1659443266.582484,15102
1659443266.621398,15115
1659443266.662874,15125
1659443266.704349,15148
1659443266.742922,15158
1659443266.781496,15164
1659443266.820069,15133
1659443266.862568,15042
1659443266.905067,15007
1659443266.94364,15032
1659443266.982214,15051
1659443267.020787,15081
1659443267.059702,15107
1659443267.098617,15133
1659443267.137532,15137
1659443267.179519,15155
1659443267.221506,15163
1659443267.260079,15170
1659443267.298653,15188
1659443267.337226,15188
1659443267.377677,15209
1659443267.418128,15221
1659443267.457384,15237
1659443267.496641,15239
1659443267.535897,15246
1659443267.577884,15213
1659443267.619871,15126
1659443267.658444,15098
1659443267.697018,15112
1659443267.735591,15134
1659443267.780309,15150
1659443267.825027,15163
1659443267.869745,15158
1659443267.902515,15159
1659443267.935286,15153
1659443267.979662,15168
1659443268.024039,15200
1659443268.068415,15206
1659443268.102722,15222
1659443268.137028,15242
1659443268.181746,15250
1659443268.226464,15269
1659443268.271182,15262
1659443268.310097,15175
1659443268.349012,15082
1659443268.387926,15066
1659443268.429401,15059
1659443268.470876,15071
1659443268.510133,15108
1659443268.549389,15149
1659443268.588645,15158
1659443268.629096,15165
1659443268.669547,15177
1659443268.708462,15178
1659443268.747376,15202
1659443268.786291,15188
1659443268.824523,15184
1659443268.862756,15207
1659443268.900988,15222
1659443268.942975,15253
1659443268.984962,15245
1659443269.023876,15068
1659443269.062791,14795
1659443269.101706,14651
1659443269.143693,14628
1659443269.18568,14688
1659443269.224254,14797
1659443269.262827,14891
1659443269.301401,14927
1659443269.343388,14927
1659443269.385375,14936
1659443269.424289,14948
1659443269.463204,14991
1659443269.502119,15026
1659443269.543082,15041
1659443269.584045,15072
1659443269.622618,15089
1659443269.661192,15112
1659443269.699765,15130
1659443269.744142,15142
1659443269.788518,15114
1659443269.832895,15012
1659443269.87437,14974
1659443269.915845,14992
1659443269.954418,15022
1659443269.992992,15050
1659443270.031565,15079
1659443270.07048,15095
1659443270.109395,15082
1659443270.14831,15091
1659443270.190297,15105
1659443270.232284,15102
1659443270.270857,15120
1659443270.309431,15134
1659443270.348004,15127
1659443270.390503,15151
1659443270.433002,15164
1659443270.471917,15162
1659443270.510832,15082
1659443270.549747,15016
1659443270.587979,15005
1659443270.626211,15042
1659443270.664443,15075
1659443270.705918,15116
1659443270.747393,15135
1659443270.786308,15141
1659443270.825223,15143
1659443270.864138,15146
1659443270.906125,15160
1659443270.948112,15179
1659443270.987027,15194
1659443271.025941,15215
1659443271.064856,15223
1659443271.104385,15240
1659443271.143915,15228
1659443271.183444,15125
1659443271.222973,15034
1659443271.262502,15035
1659443271.307562,15070
1659443271.352621,15106
1659443271.39768,15140
1659443271.440691,15170
1659443271.483703,15186
1659443271.522276,15186
1659443271.560849,15199
1659443271.599423,15210
1659443271.640898,15233
1659443271.682373,15238
1659443271.721629,15246
1659443271.760885,15257
1659443271.800142,15281
1659443271.838715,15284
1659443271.877288,15224
1659443271.915862,15095
1659443271.956825,15036
1659443271.997788,15044
1659443272.037044,15059
1659443272.0763,15087
1659443272.115556,15135
1659443272.153447,15158
1659443272.191338,15171
1659443272.229228,15184
1659443272.271728,15194
1659443272.314227,15211
1659443272.353142,15235
1659443272.392056,15241
1659443272.430971,15255
1659443272.471934,15263
1659443272.512897,15255
1659443272.551812,15259
1659443272.590727,15211
1659443272.629642,15082
1659443272.672141,15009
1659443272.71464,15033
1659443272.759016,15062
1659443272.803393,15108
1659443272.847769,15168
1659443272.880028,15213
1659443272.912286,15225
1659443272.956662,15239
1659443273.001039,15256
1659443273.045416,15279
1659443273.083648,15299
1659443273.12188,15326
1659443273.160112,15336
1659443273.201587,15357
1659443273.243062,15357
1659443273.282318,15373
1659443273.321574,15373
1659443273.360831,15287
1659443273.399404,15190
1659443273.437977,15168
1659443273.476551,15191
1659443273.518538,15220
1659443273.560525,15264
1659443273.599781,15280
1659443273.639037,15304
1659443273.678293,15299
1659443273.72028,15298
1659443273.762268,15314
1659443273.800841,15335
1659443273.839414,15363
1659443273.877988,15366
1659443273.916903,15398
1659443273.955817,15402
1659443273.994732,15433
1659443274.035695,15434
1659443274.076658,15446
1659443274.118645,15373
1659443274.160632,15294
1659443274.199547,15289
1659443274.238462,15321
1659443274.277377,15350
1659443274.318852,15378
1659443274.360327,15409
1659443274.3989,15423
1659443274.437474,15427
1659443274.476047,15440
1659443274.520765,15460
1659443274.565483,15478
1659443274.610201,15495
1659443274.643483,15517
1659443274.676766,15517
1659443274.721142,15538
1659443274.765519,15559
1659443274.809895,15566
1659443274.84881,15563
1659443274.887725,15491
1659443274.92664,15451
1659443274.968627,15440
1659443275.010614,15464
1659443275.048846,15478
1659443275.087078,15505
1659443275.12531,15503
1659443275.167297,15505
1659443275.209284,15523
1659443275.247858,15537
1659443275.286431,15571
1659443275.325005,15570
1659443275.363578,15584
1659443275.402152,15601
1659443275.440725,15603
1659443275.478957,15614
1659443275.517189,15575
1659443275.555421,15492
1659443275.598432,15468
1659443275.641443,15478
1659443275.682919,15507
1659443275.724394,15532
1659443275.762626,15562
1659443275.800858,15552
1659443275.83909,15555
1659443275.881077,15562
1659443275.923064,15574
1659443275.962662,15599
1659443276.002259,15630
1659443276.041857,15626
1659443276.085892,15629
1659443276.129927,15644
1659443276.173962,15646
1659443276.206733,15584
1659443276.239503,15477
1659443276.280466,15448
1659443276.321429,15473
1659443276.362392,15488
1659443276.403355,15525
1659443276.444318,15560
1659443276.485281,15578
1659443276.524537,15582
1659443276.563793,15594
1659443276.603049,15590
1659443276.641623,15599
1659443276.680196,15625
1659443276.71877,15626
1659443276.760245,15634
1659443276.801719,15654
1659443276.841317,15661
1659443276.880915,15613
1659443276.920512,15517
1659443276.961987,15468
1659443277.003462,15484
1659443277.047839,15532
1659443277.092215,15572
1659443277.136592,15585
1659443277.170898,15585
1659443277.205205,15579
1659443277.250264,15567
1659443277.295323,15587
1659443277.340383,15607
1659443277.378273,15620
1659443277.416164,15660
1659443277.454055,15676
1659443277.496042,15696
1659443277.538029,15686
1659443277.576602,15597
1659443277.615176,15510
1659443277.653749,15512
1659443277.695224,15558
1659443277.736699,15582
1659443277.775614,15616
1659443277.814529,15637
1659443277.853444,15635
1659443277.892359,15626
1659443277.931273,15623
1659443277.970188,15632
1659443278.011151,15646
1659443278.052114,15618
1659443278.091712,15575
1659443278.131309,15483
1659443278.170907,15152
1659443278.20948,14699
1659443278.248054,14328
1659443278.286627,14139
1659443278.328102,14281
1659443278.369577,14511
1659443278.40815,14650
1659443278.446724,14761
1659443278.485297,14853
1659443278.527797,14936
1659443278.570296,15003
1659443278.613989,15063
1659443278.657683,15106
1659443278.701377,15127
1659443278.734147,15140
1659443278.766918,15128
1659443278.810953,15032
1659443278.854988,14952
1659443278.899023,14961
1659443278.937597,14993
1659443278.97617,15035
1659443279.014744,15092
1659443279.056731,15129
1659443279.098718,15142
1659443279.137974,15158
1659443279.17723,15163
1659443279.216486,15160
1659443279.257449,15154
1659443279.298412,15176
1659443279.337327,15194
1659443279.376242,15210
1659443279.415157,15171
1659443279.45373,15023
1659443279.492304,14799
1659443279.530877,14545
1659443279.573376,14435
1659443279.615875,14507
1659443279.654107,14670
1659443279.692339,14768
1659443279.730572,14889
1659443279.772047,14967
1659443279.813522,14986
1659443279.852436,14982
1659443279.891351,14997
1659443279.930266,15042
1659443279.971741,15096
1659443280.013216,15151
1659443280.052472,15177
1659443280.091728,15184
1659443280.130985,15148
1659443280.173484,15142
1659443280.215983,15160
1659443280.254556,15174
1659443280.29313,15156
1659443280.331703,15141
1659443280.37608,15124
1659443280.420456,15077
1659443280.464833,15065
1659443280.499139,15115
1659443280.533446,15138
1659443280.577481,15148
1659443280.621516,15217
1659443280.665551,15255
1659443280.697809,15298
1659443280.730068,15313
1659443280.774786,15287
1659443280.819504,15281
1659443280.864222,15295
1659443280.902454,15308
1659443280.940686,15311
1659443280.978918,15302
1659443281.020905,15274
1659443281.062892,15268
1659443281.102148,15256
1659443281.141404,15250
1659443281.18066,15231
1659443281.221623,15252
1659443281.262586,15282
1659443281.30116,15314
1659443281.339733,15304
1659443281.378307,15209
1659443281.418246,15183
1659443281.458185,15186
1659443281.498123,15213
1659443281.537858,15220
1659443281.577592,15193
1659443281.617326,15180
1659443281.65706,15164
1659443281.696794,15155
1659443281.738269,15126
1659443281.779744,15106
1659443281.818659,15126
1659443281.857574,15131
1659443281.896488,15092
1659443281.940182,14881
1659443281.983876,14549
1659443282.02757,14303
1659443282.060852,14170
1659443282.094135,14085
1659443282.137829,14030
1659443282.181522,13977
1659443282.225216,13900
1659443282.26379,13791
1659443282.302363,13651
1659443282.340936,13523
1659443282.383948,13477
1659443282.426959,13526
1659443282.465532,13622
1659443282.504106,13623
1659443282.542679,13369
1659443282.583642,12743
1659443282.624605,12080
1659443282.664203,11606
1659443282.7038,11307
1659443282.743398,11122
1659443282.78163,10983
1659443282.819862,10887
1659443282.858094,10778
1659443282.900593,10668
1659443282.943092,10594
1659443282.982007,10549
1659443283.020922,10496
1659443283.059837,10430
1659443283.101311,10357
1659443283.142787,10070
1659443283.181019,9562
1659443283.219251,9106
1659443283.257483,8854
1659443283.299982,8719
1659443283.342481,8622
1659443283.381396,8574
1659443283.420311,8512
1659443283.459225,8465
1659443283.5007,8422
1659443283.542176,8397
1659443283.58109,8399
1659443283.620005,8427
1659443283.65892,8502
1659443283.703638,8590
1659443283.748356,8634
1659443283.793074,8740
1659443283.834549,9043
1659443283.876024,9454
1659443283.914938,9811
1659443283.953853,10125
1659443283.992768,10418
1659443284.031342,10676
1659443284.069915,10895
1659443284.108489,11078
1659443284.149451,11223
1659443284.190414,11375
1659443284.228988,11531
1659443284.267561,11706
1659443284.306135,11925
1659443284.345391,12110
1659443284.384647,12190
1659443284.423903,12251
1659443284.464866,12317
1659443284.505829,12362
1659443284.544744,12401
1659443284.583659,12423
1659443284.622574,12396
1659443284.664049,12327
1659443284.705524,12218
1659443284.745121,12047
1659443284.784719,11946
1659443284.824316,11961
1659443284.865279,11976
1659443284.906242,11990
1659443284.945498,12020
1659443284.984755,12013
1659443285.024011,11900
1659443285.067705,11477
1659443285.111398,10987
1659443285.155092,10635
1659443285.196055,10415
1659443285.237018,10315
1659443285.276274,10327
1659443285.315531,10430
1659443285.354787,10528
1659443285.396262,10603
1659443285.437737,10671
1659443285.475969,10716
1659443285.514201,10781
1659443285.552433,10841
1659443285.591689,10916
1659443285.630945,10979
1659443285.670202,11060
1659443285.712701,11087
1659443285.7552,10940
1659443285.793773,10679
1659443285.832347,10532
1659443285.87092,10506
1659443285.912907,10517
1659443285.954894,10588
1659443285.994492,10682
1659443286.034089,10772
1659443286.073687,10822
1659443286.111578,10866
1659443286.149468,10912
1659443286.187359,10952
1659443286.23037,11007
1659443286.273381,11066
1659443286.311613,11112
1659443286.349845,11142
1659443286.388077,11153
1659443286.42904,11018
1659443286.470003,10664
1659443286.508918,10361
1659443286.547833,10295
1659443286.586748,10424
1659443286.629247,10655
1659443286.671746,10893
1659443286.716123,11071
1659443286.760499,11200
1659443286.804876,11285
1659443286.842767,11324
1659443286.880657,11309
1659443286.918548,11251
1659443286.956439,11207
1659443286.995012,11154
1659443287.033586,11093
1659443287.072159,11051
1659443287.116536,11056
1659443287.160912,10903
1659443287.205289,10547
1659443287.239083,10272
1659443287.272877,10224
1659443287.316913,10372
1659443287.360948,10587
1659443287.404983,10719
1659443287.443557,10832
1659443287.48213,10918
1659443287.520704,10949
1659443287.563203,10952
1659443287.605702,10973
1659443287.643934,11012
1659443287.682166,11070
1659443287.720398,11127
1659443287.760849,11179
1659443287.8013,11236
1659443287.840556,11212
1659443287.879812,11111
1659443287.919068,11069
1659443287.9573,11075
1659443287.995533,11138
1659443288.033765,11235
1659443288.075752,11317
1659443288.117739,11381
1659443288.156995,11402
1659443288.196251,11443
1659443288.235507,11475
1659443288.276982,11513
1659443288.318457,11531
1659443288.356689,11543
1659443288.394922,11574
1659443288.433154,11590
1659443288.475141,11551
1659443288.517128,11340
1659443288.555701,11081
1659443288.594275,10951
1659443288.632848,10975
1659443288.673811,11018
1659443288.714774,11109
1659443288.759151,11196
1659443288.803527,11256
1659443288.847903,11295
1659443288.88716,11332
1659443288.926416,11386
1659443288.965672,11430
1659443289.007147,11468
1659443289.048622,11505
1659443289.087878,11531
1659443289.127134,11540
1659443289.166391,11359
1659443289.208378,11117
1659443289.250365,10969
1659443289.289279,10949
1659443289.328194,10999
1659443289.367109,11118
1659443289.406365,11232
1659443289.445621,11309
1659443289.484878,11366
1659443289.526353,11402
1659443289.567828,11461
1659443289.60606,11507
1659443289.644292,11541
1659443289.682524,11572
1659443289.723487,11622
1659443289.76445,11665
1659443289.804047,11605
1659443289.843645,11436
1659443289.883243,11302
1659443289.921816,11289
1659443289.960389,11318
1659443289.998963,11385
1659443290.040438,11491
1659443290.081913,11569
1659443290.121169,11618
1659443290.160425,11640
1659443290.199682,11668
1659443290.241668,11708
1659443290.283655,11754
1659443290.327691,11799
1659443290.371726,11830
1659443290.415761,11881
1659443290.449044,11896
1659443290.482326,11784
1659443290.527044,11568
1659443290.571762,11414
1659443290.61648,11378
1659443290.649762,11391
1659443290.683044,11438
1659443290.72708,11508
1659443290.771115,11587
1659443290.81515,11623
1659443290.854065,11642
1659443290.89298,11637
1659443290.931895,11661
1659443290.972345,11695
1659443291.012796,11732
1659443291.051028,11769
1659443291.089261,11808
1659443291.127493,11850
1659443291.169992,11804
1659443291.212491,11610
1659443291.251064,11341
1659443291.289638,11199
1659443291.328211,11165
1659443291.367126,11187
1659443291.406041,11258
1659443291.444956,11339
1659443291.486943,11402
1659443291.52893,11432
1659443291.567162,11482
1659443291.605394,11518
1659443291.643626,11582
1659443291.685613,11639
1659443291.7276,11686
1659443291.766856,11722
1659443291.806112,11777
1659443291.845369,11827
1659443291.886332,11832
1659443291.927294,11695
1659443291.965868,11489
1659443292.004441,11392
1659443292.043015,11366
1659443292.082954,11406
1659443292.122893,11466
1659443292.162832,11555
1659443292.20277,11621
1659443292.242709,11653
1659443292.284184,11691
1659443292.325659,11732
1659443292.370718,11774
1659443292.415778,11818
1659443292.460837,11860
1659443292.494632,11876
1659443292.528426,11901
1659443292.572461,11931
1659443292.616496,11877
1659443292.660532,11638
1659443292.700129,11408
1659443292.739727,11325
1659443292.779324,11313
1659443292.820287,11368
1659443292.86125,11465
1659443292.899482,11536
1659443292.937714,11601
1659443292.975946,11638
1659443293.018445,11661
1659443293.060945,11704
1659443293.099518,11741
1659443293.138092,11784
1659443293.176665,11814
1659443293.214897,11807
1659443293.253129,11790
1659443293.291361,11797
1659443293.333348,11758
1659443293.375335,11530
1659443293.41425,11174
1659443293.453165,10957
1659443293.49208,10901
1659443293.533555,10944
1659443293.57503,11013
1659443293.613945,11138
1659443293.652859,11255
1659443293.691774,11352
1659443293.730348,11409
1659443293.768921,11463
1659443293.807495,11527
1659443293.848458,11575
1659443293.889421,11644
1659443293.931407,11703
1659443293.973395,11744
1659443294.011627,11786
1659443294.049859,11812
1659443294.088091,11820
1659443294.132126,11654
1659443294.176161,11346
1659443294.220196,11131
1659443294.252967,11051
1659443294.285737,11020
1659443294.330114,11050
1659443294.37449,11158
1659443294.418867,11269
1659443294.457782,11327
1659443294.496696,11339
1659443294.535611,11344
1659443294.577086,11358
1659443294.618561,11338
1659443294.657817,11318
1659443294.697074,11322
1659443294.73633,11379
1659443294.775586,11433
1659443294.814842,11512
1659443294.854098,11531
1659443294.895573,11416
1659443294.937048,11089
1659443294.976305,10792
1659443295.015561,10696
1659443295.054817,10720
1659443295.096292,10767
1659443295.137767,10801
1659443295.17634,10835
1659443295.214914,10858
1659443295.253487,10921
1659443295.295474,11004
1659443295.337461,11091
1659443295.376376,11160
1659443295.415291,11212
1659443295.454206,11265
1659443295.494657,11328
1659443295.535108,11377
1659443295.574023,11361
1659443295.612937,11356
1659443295.651852,11253
1659443295.69657,10929
1659443295.741288,10683
1659443295.786006,10613
1659443295.819288,10629
1659443295.852571,10739
1659443295.897289,10905
1659443295.942006,11049
1659443295.986724,11151
1659443296.020519,11240
1659443296.054313,11261
1659443296.098348,11244
1659443296.142384,11215
1659443296.186419,11224
1659443296.224992,11301
1659443296.263566,11392
1659443296.302139,11463
1659443296.34515,11528
1659443296.388161,11615
1659443296.426394,11580
1659443296.464626,11373
1659443296.502858,11253
1659443296.543309,11342
1659443296.58376,11470
1659443296.623357,11612
1659443296.662955,11785
1659443296.702552,11939
1659443296.740784,12049
1659443296.779016,12126
1659443296.817249,12247
1659443296.859236,12338
1659443296.901222,12441
1659443296.940137,12545
1659443296.979052,12628
1659443297.017967,12706
1659443297.059442,12789
1659443297.100917,12836
1659443297.139149,12882
1659443297.177381,12822
1659443297.215613,12688
1659443297.258112,12605
1659443297.300611,12653
1659443297.339936,12711
1659443297.37926,12799
1659443297.418585,12848
1659443297.457909,12879
1659443297.497234,12886
1659443297.537611,12916
1659443297.577989,12973
1659443297.618367,13019
1659443297.658745,13058
1659443297.699123,13091
1659443297.7395,13129
1659443297.779878,13152
1659443297.819134,13176
1659443297.858391,13145
1659443297.897647,12975
1659443297.939634,12802
1659443297.981621,12755
1659443298.020535,12802
1659443298.05945,12886
1659443298.098365,12968
1659443298.13984,12977
1659443298.181315,12988
1659443298.226374,12970
1659443298.271434,12937
1659443298.316493,12934
1659443298.349775,12944
1659443298.383058,12958
1659443298.424277,12988
1659443298.465496,13055
1659443298.506715,13048
1659443298.547934,12886
1659443298.590433,12656
1659443298.632932,12498
1659443298.671505,12449
1659443298.710079,12489
1659443298.748652,12538
1659443298.787226,12613
1659443298.825799,12668
1659443298.864373,12715
1659443298.90636,12776
1659443298.948347,12833
1659443298.987603,12882
1659443299.026859,12902
1659443299.066115,12946
1659443299.10759,12986
1659443299.149065,12982
1659443299.188321,12774
1659443299.227578,12438
1659443299.266834,12244
1659443299.308821,12175
1659443299.350808,12163
1659443299.389723,12191
1659443299.428638,12282
1659443299.467552,12351
1659443299.508515,12392
1659443299.549478,12400
1659443299.588052,12442
1659443299.626625,12490
1659443299.665199,12548
1659443299.70565,12610
1659443299.7461,12665
1659443299.790136,12664
1659443299.834171,12495
1659443299.878206,12238
1659443299.917462,12115
1659443299.956718,12101
1659443299.995975,12185
1659443300.036937,12310
1659443300.0779,12454
1659443300.116815,12538
1659443300.15573,12603
1659443300.194645,12652
1659443300.233901,12708
1659443300.273157,12771
1659443300.312413,12818
1659443300.353889,12877
1659443300.395364,12917
1659443300.434278,12911
1659443300.473193,12715
1659443300.512108,12459
1659443300.551364,12363
1659443300.59062,12369
1659443300.629876,12385
1659443300.670327,12472
1659443300.710778,12558
1659443300.749693,12610
1659443300.788608,12635
1659443300.827523,12656
1659443300.870022,12687
1659443300.912521,12732
1659443300.950753,12785
1659443300.988985,12840
1659443301.027217,12898
1659443301.067668,12922
1659443301.108119,12772
1659443301.15352,12470
1659443301.19892,12272
1659443301.244321,12206
1659443301.277091,12200
1659443301.309862,12218
1659443301.354238,12286
1659443301.398615,12327
1659443301.442991,12345
1659443301.476786,12338
1659443301.51058,12369
1659443301.555298,12425
1659443301.600016,12499
1659443301.644734,12552
1659443301.682966,12589
1659443301.721198,12647
1659443301.75943,12681
1659443301.802441,12613
1659443301.845453,12286
1659443301.884026,11932
1659443301.922599,11743
1659443301.961173,11649
1659443301.999746,11596
1659443302.03832,11636
1659443302.076893,11747
1659443302.118368,11825
1659443302.159843,11870
1659443302.198758,11928
1659443302.237673,11989
1659443302.276588,12070
1659443302.318063,12153
1659443302.359538,12227
1659443302.398794,12289
1659443302.43805,12343
1659443302.477306,12389
1659443302.51588,12419
1659443302.554453,12340
1659443302.593027,12002
1659443302.634758,11628
1659443302.676489,11395
1659443302.71822,11292
1659443302.759951,11235
1659443302.798524,11287
1659443302.837098,11380
1659443302.875671,11457
1659443302.916122,11494
1659443302.956573,11523
1659443302.995146,11557
1659443303.03372,11630
1659443303.072293,11728
1659443303.114792,11832
1659443303.157291,11912
1659443303.195524,11994
1659443303.233756,12071
1659443303.271988,12112
1659443303.313463,12160
1659443303.354938,12147
1659443303.399656,11899
1659443303.444374,11550
1659443303.489091,11352
1659443303.522374,11337
1659443303.555656,11350
1659443303.600033,11384
1659443303.644409,11436
1659443303.688786,11504
1659443303.727701,11546
1659443303.766616,11586
1659443303.80553,11640
1659443303.847005,11700
1659443303.88848,11735
1659443303.926713,11763
1659443303.964945,11838
1659443304.003177,11921
1659443304.045676,11975
1659443304.088175,12031
1659443304.126748,12077
1659443304.165322,12116
1659443304.203895,11990
1659443304.242469,11733
1659443304.281042,11593
1659443304.319616,11535
1659443304.361091,11491
1659443304.402565,11489
1659443304.442163,11550
1659443304.481761,11638
1659443304.521358,11695
1659443304.560273,11713
1659443304.599188,11763
1659443304.638103,11805
1659443304.679578,11867
1659443304.721053,11927
1659443304.76304,11995
1659443304.805027,12059
1659443304.844283,12116
1659443304.883539,12170
1659443304.922795,12218
1659443304.96427,12240
1659443305.005745,12075
1659443305.045002,11683
1659443305.084258,11285
1659443305.123514,11043
1659443305.167207,10911
1659443305.210901,10845
1659443305.254595,10887
1659443305.287878,10955
1659443305.32116,11023
1659443305.365195,11084
1659443305.40923,11140
1659443305.453266,11188
1659443305.491839,11235
1659443305.530413,11320
1659443305.568986,11414
1659443305.610461,11499
1659443305.651936,11587
1659443305.691192,11658
1659443305.730448,11713
1659443305.769705,11796
1659443305.811692,11865
1659443305.853679,11770
1659443305.891911,11529
1659443305.930143,11331
1659443305.968375,11279
1659443306.010362,11258
1659443306.052349,11290
1659443306.090922,11373
1659443306.129496,11461
1659443306.168069,11524
1659443306.206301,11567
1659443306.244534,11607
1659443306.282766,11633
1659443306.325265,11677
1659443306.367764,11719
1659443306.406337,11770
1659443306.444911,11824
1659443306.483484,11897
1659443306.523935,11945
1659443306.564386,12009
1659443306.603642,12091
1659443306.642898,12148
1659443306.682155,12112
1659443306.724142,11882
1659443306.766129,11670
1659443306.804702,11594
1659443306.843276,11608
1659443306.881849,11639
1659443306.926908,11713
1659443306.971968,11781
1659443307.017027,11813
1659443307.058502,11819
1659443307.099977,11828
1659443307.138209,11872
1659443307.176441,11931
1659443307.214673,12012
1659443307.257172,12074
1659443307.299671,12162
1659443307.338586,12199
1659443307.377501,12244
1659443307.416416,12313
1659443307.454989,12330
1659443307.493563,12235
1659443307.532136,11957
1659443307.573611,11762
1659443307.615086,11683
1659443307.654001,11670
1659443307.692916,11692
1659443307.731831,11735
1659443307.773306,11779
1659443307.81478,11775
1659443307.855129,11757
1659443307.895478,11773
1659443307.935826,11812
1659443307.976175,11874
1659443308.016523,11950
1659443308.055097,12008
1659443308.09367,12071
1659443308.132244,12115
1659443308.1715,12160
1659443308.210756,12211
1659443308.250012,12208
1659443308.291999,11988
1659443308.333986,11628
1659443308.374949,11377
1659443308.415912,11293
1659443308.454486,11279
1659443308.493059,11311
1659443308.531632,11387
1659443308.576009,11433
1659443308.620386,11356
1659443308.664762,11275
1659443308.698557,11414
1659443308.732351,11555
1659443308.776045,11667
1659443308.819739,11758
1659443308.863432,11835
1659443308.896715,11918
1659443308.929997,12014
1659443308.974374,12068
1659443309.01875,12144
1659443309.063127,12223
1659443309.102383,12192
1659443309.141639,12116
1659443309.180896,12068
1659443309.22237,12088
1659443309.263845,12112
1659443309.30276,12198
1659443309.341675,12301
1659443309.38059,12356
1659443309.419163,12376
1659443309.457737,12383
1659443309.49631,12409
1659443309.537785,12425
1659443309.57926,12448
1659443309.618175,12448
1659443309.65709,12445
1659443309.696005,12310
1659443309.734237,12033
1659443309.772469,11782
1659443309.810701,11742
1659443309.851664,12173
1659443309.892627,12641
1659443309.935638,12995
1659443309.978649,13288
1659443310.017223,13480
1659443310.055796,13572
1659443310.09437,13651
1659443310.139087,13691
1659443310.183805,13718
1659443310.228523,13699
1659443310.262318,13520
1659443310.296112,13275
1659443310.340489,12957
1659443310.384865,12657
1659443310.429242,12495
1659443310.462524,12382
1659443310.495807,12384
1659443310.540866,12418
1659443310.585925,12534
1659443310.630985,12366
1659443310.669558,11865
1659443310.708131,11444
1659443310.746705,11433
1659443310.787668,11678
1659443310.828631,11897
1659443310.867887,12021
1659443310.907143,12062
1659443310.946399,12111
1659443310.988898,12221
1659443311.031397,12351
1659443311.069288,12486
1659443311.107179,12587
1659443311.14507,12647
1659443311.184326,12678
1659443311.223582,12713
1659443311.262838,12742
1659443311.304313,12676
1659443311.345788,12459
1659443311.384362,12312
1659443311.422935,12326
1659443311.461509,12420
1659443311.504008,12522
1659443311.546507,12581
1659443311.585422,12628
1659443311.624336,12661
1659443311.663251,12683
1659443311.703702,12720
1659443311.744153,12753
1659443311.783068,12803
1659443311.821983,12833
1659443311.860898,12902
1659443311.902884,12936
1659443311.944872,12981
1659443311.988565,12975
1659443312.032259,12868
1659443312.075953,12781
1659443312.114868,12768
1659443312.153783,12818
1659443312.192698,12878
1659443312.234684,12948
1659443312.276672,13003
1659443312.314904,13046
1659443312.353136,13080
1659443312.391368,13116
1659443312.433867,13152
1659443312.476366,13165
1659443312.515281,13183
1659443312.554196,13204
1659443312.593111,13236
1659443312.631684,13244
1659443312.670257,13163
1659443312.708831,13013
1659443312.750306,12950
1659443312.791781,12976
1659443312.831037,13008
1659443312.870293,13066
1659443312.909549,13126
1659443312.947782,13168
1659443312.986014,13201
1659443313.024246,13202
1659443313.068622,13234
1659443313.112999,13260
1659443313.157375,13312
1659443313.189634,13326
1659443313.221892,13346
1659443313.266268,13368
1659443313.310645,13351
1659443313.355022,13192
1659443313.394278,12970
1659443313.433534,12851
1659443313.47279,12718
1659443313.515289,12631
1659443313.557788,12646
1659443313.596362,12747
1659443313.634935,12870
1659443313.673509,12968
1659443313.715496,13035
1659443313.757483,13101
1659443313.796739,13148
1659443313.835995,13188
1659443313.875251,13219
1659443313.913825,13235
1659443313.952398,13258
1659443313.990972,13281
1659443314.032959,13225
1659443314.074946,13024
1659443314.113861,12765
1659443314.152775,12678
1659443314.19169,12752
1659443314.232653,12826
1659443314.273616,12864
1659443314.31219,12866
1659443314.350763,12798
1659443314.389337,12782
1659443314.434054,12897
1659443314.478772,12980
1659443314.52349,13035
1659443314.557285,13089
1659443314.591079,13095
1659443314.635114,13091
1659443314.679149,13113
1659443314.723185,13135
1659443314.756467,13069
1659443314.78975,12890
1659443314.834126,12730
1659443314.878503,12730
1659443314.922879,12797
1659443314.962135,12821
1659443315.001391,12891
1659443315.040648,12953
1659443315.081611,12941
1659443315.122574,12916
1659443315.161489,12971
1659443315.200403,13033
1659443315.239318,13069
1659443315.279769,13082
1659443315.32022,13062
1659443315.359135,13060
1659443315.39805,13079
1659443315.436964,13103
1659443315.475879,13081
1659443315.514794,12950
1659443315.553709,12860
1659443315.594672,12891
1659443315.635635,12976
1659443315.67455,13020
1659443315.713464,13092
1659443315.752379,13141
1659443315.794878,13172
1659443315.837377,13178
1659443315.875609,13176
1659443315.913841,13174
1659443315.952074,13160
1659443315.993549,13145
1659443316.035024,13136
1659443316.073938,13150
1659443316.112853,13134
1659443316.151768,13002
1659443316.195803,12612
1659443316.239839,12128
1659443316.283874,11847
1659443316.317668,11637
1659443316.351463,11518
1659443316.39618,11474
1659443316.440898,11436
1659443316.485616,11347
1659443316.526067,11247
1659443316.566518,11211
1659443316.605433,11230
1659443316.644348,11229
1659443316.683263,11211
1659443316.72286,11234
1659443316.762458,11323
1659443316.802055,11375
1659443316.844042,11118
1659443316.886029,10658
1659443316.924944,10357
1659443316.963859,10181
1659443317.002774,10095
1659443317.044249,10059
1659443317.085724,10106
1659443317.123956,10152
1659443317.162188,10158
1659443317.20042,10217
1659443317.238993,10268
1659443317.277567,10367
1659443317.31614,10466
1659443317.358639,10582
1659443317.401139,10660
1659443317.439371,10728
1659443317.477603,10761
1659443317.515835,10703
1659443317.556798,10369
1659443317.597761,9907
1659443317.636676,9666
1659443317.675591,9568
1659443317.714505,9529
1659443317.756492,9513
1659443317.798479,9550
1659443317.842856,9582
1659443317.887232,9599
1659443317.931609,9626
1659443317.964891,9641
1659443317.998174,9679
1659443318.042892,9735
1659443318.08761,9807
1659443318.132328,9869
1659443318.170901,9955
1659443318.209474,10065
1659443318.248048,10117
1659443318.290547,9991
1659443318.333046,9581
1659443318.370425,9210
1659443318.407804,9056
1659443318.445182,9027
1659443318.482561,9024
1659443318.520793,9132
1659443318.559025,9310
1659443318.597257,9390
1659443318.641292,9400
1659443318.685328,9409
1659443318.729363,9430
1659443318.769814,9500
1659443318.810265,9590
1659443318.849179,9677
1659443318.888094,9720
1659443318.927009,9726
1659443318.965924,9722
1659443319.004839,9699
1659443319.043753,9460
1659443319.086252,8955
1659443319.128752,8568
1659443319.167325,8398
1659443319.205899,8326
1659443319.244472,8296
1659443319.286459,8362
1659443319.328446,8471
1659443319.367361,8541
1659443319.406276,8572
1659443319.44519,8600
1659443319.486665,8667
1659443319.528141,8730
1659443319.567055,8810
1659443319.60597,8896
1659443319.644885,8945
1659443319.684141,9005
1659443319.723397,9110
1659443319.762654,9204
1659443319.803104,9144
1659443319.843555,8817
1659443319.883153,8481
1659443319.92275,8328
1659443319.962348,8295
1659443320.004335,8278
1659443320.046322,8350
1659443320.090357,8453
1659443320.134392,8512
1659443320.178428,8533
1659443320.211198,8548
1659443320.243968,8583
1659443320.289369,8642
1659443320.334769,8728
1659443320.38017,8816
1659443320.412941,8896
1659443320.445711,8946
1659443320.489746,8994
1659443320.533781,9069
1659443320.577816,9148
1659443320.617073,9149
1659443320.656329,8911
1659443320.695585,8576
1659443320.736036,8402
1659443320.776487,8371
1659443320.815402,8403
1659443320.854316,8472
1659443320.893231,8588
1659443320.935218,8672
1659443320.977206,8719
1659443321.015438,8753
1659443321.05367,8803
1659443321.091902,8866
1659443321.130816,8955
1659443321.169731,9040
1659443321.208646,9140
1659443321.251145,9240
1659443321.293644,9329
1659443321.332218,9400
1659443321.370791,9485
1659443321.409365,9538
1659443321.447938,9436
1659443321.486512,9138
1659443321.525085,8890
1659443321.567072,8792
1659443321.609059,8805
1659443321.651046,8873
1659443321.693033,8961
1659443321.731265,9044
1659443321.769497,9089
1659443321.807729,9129
1659443321.849205,9180
1659443321.89068,9249
1659443321.929253,9328
1659443321.967826,9428
1659443322.0064,9520
1659443322.050094,9586
1659443322.093788,9680
1659443322.137481,9755
1659443322.171788,9845
1659443322.206095,9828
1659443322.250812,9611
1659443322.29553,9341
1659443322.340248,9204
1659443322.379163,9208
1659443322.418078,9279
1659443322.456993,9381
1659443322.49898,9481
1659443322.540967,9566
1659443322.580223,9599
1659443322.619479,9644
1659443322.658735,9705
1659443322.70021,9779
1659443322.741685,9858
1659443322.7806,9946
1659443322.819515,10016
1659443322.85843,10099
1659443322.896662,10187
1659443322.934894,10227
1659443322.973126,10140
1659443323.014601,9880
1659443323.056076,9648
1659443323.094649,9579
1659443323.133223,9605
1659443323.171796,9662
1659443323.214295,9755
1659443323.256794,9829
1659443323.295709,9880
1659443323.334624,9922
1659443323.373539,9971
1659443323.415014,10022
1659443323.456489,10107
1659443323.495745,10155
1659443323.535001,10237
1659443323.574257,10302
1659443323.616245,10391
1659443323.658231,10453
1659443323.697146,10382
1659443323.736061,10095
1659443323.774976,9793
1659443323.819353,9670
1659443323.863729,9633
1659443323.908106,9658
1659443323.948556,9741
1659443323.989007,9817
1659443324.027581,9874
1659443324.066154,9921
1659443324.104728,9974
1659443324.147227,10028
1659443324.189726,10121
1659443324.228299,10189
1659443324.266873,10256
1659443324.305446,10316
1659443324.343678,10377
1659443324.381911,10446
1659443324.420143,10378
1659443324.461618,10096
1659443324.503093,9783
1659443324.542349,9623
1659443324.581605,9562
1659443324.620861,9564
1659443324.659093,9644
1659443324.697325,9724
1659443324.735558,9792
1659443324.777544,9841
1659443324.819532,9875
1659443324.858788,9919
1659443324.898044,10007
1659443324.9373,10099
1659443324.978775,10183
1659443325.02025,10273
1659443325.058824,10361
1659443325.097397,10454
1659443325.135971,10437
1659443325.177445,10218
1659443325.21892,9937
1659443325.262614,9790
1659443325.306308,9754
1659443325.350002,9770
1659443325.383284,9842
1659443325.416567,9934
1659443325.461626,10001
1659443325.506685,10041
1659443325.551745,10073
1659443325.590318,10128
1659443325.628891,10194
1659443325.667465,10261
1659443325.706721,10330
1659443325.745977,10405
1659443325.785233,10471
1659443325.82722,10557
1659443325.869208,10515
1659443325.907781,10262
1659443325.946354,9955
1659443325.984928,9791
1659443326.026915,9741
1659443326.068902,9739
1659443326.108158,9806
1659443326.147414,9901
1659443326.186671,9962
1659443326.224561,10005
1659443326.262452,10042
1659443326.300343,10097
1659443326.341818,10162
1659443326.383293,10247
1659443326.422208,10310
1659443326.461123,10380
1659443326.500037,10447
1659443326.541512,10520
1659443326.582987,10576
1659443326.621902,10455
1659443326.660817,10138
1659443326.699732,9868
1659443326.741719,9762
1659443326.783706,9717
1659443326.828082,9715
1659443326.872459,9802
1659443326.916835,9882
1659443326.950118,9948
1659443326.9834,9992
1659443327.02846,10044
1659443327.073519,10108
1659443327.118578,10206
1659443327.15681,10284
1659443327.195042,10382
1659443327.233274,10470
1659443327.273725,10549
1659443327.314176,10623
1659443327.353091,10708
1659443327.392006,10745
1659443327.430921,10523
1659443327.469836,10154
1659443327.50875,9893
1659443327.547665,9732
1659443327.588628,9622
1659443327.629591,9569
1659443327.668164,9571
1659443327.706738,9576
1659443327.745311,9584
1659443327.786786,9594
1659443327.828261,9637
1659443327.867176,9706
1659443327.906091,9792
1659443327.945006,9875
1659443327.983921,9949
1659443328.022835,10049
1659443328.06175,10135
1659443328.103225,10204
1659443328.1447,10200
1659443328.186175,9946
1659443328.22765,9604
1659443328.266906,9392
1659443328.306163,9296
1659443328.345419,9255
1659443328.386894,9297
1659443328.428369,9383
1659443328.467284,9446
1659443328.506198,9500
1659443328.545113,9544
1659443328.589149,9594
1659443328.633184,9669
1659443328.677219,9757
1659443328.710501,9850
1659443328.743784,9947
1659443328.785259,10023
1659443328.826734,10114
1659443328.868209,10202
1659443328.909684,10277
1659443328.948598,10248
1659443328.987513,10011
1659443329.026428,9774
1659443329.069439,9699
1659443329.11245,9682
1659443329.151024,9702
1659443329.189597,9791
1659443329.228171,9918
1659443329.269646,10013
1659443329.311121,10078
1659443329.350377,10123
1659443329.389633,10206
1659443329.428889,10294
1659443329.470364,10386
1659443329.511839,10463
1659443329.550071,10555
1659443329.588304,10648
1659443329.626536,10741
1659443329.670912,10813
1659443329.715289,10766
1659443329.759665,10555
1659443329.800628,10298
1659443329.841591,10207
1659443329.880506,10231
1659443329.919421,10301
1659443329.958336,10383
1659443329.997933,10463
1659443330.037531,10527
1659443330.077128,10545
1659443330.118603,10592
1659443330.160078,10654
1659443330.19831,10712
1659443330.236542,10780
1659443330.274775,10849
1659443330.314031,10915
1659443330.353287,10992
1659443330.392543,11035
1659443330.434018,10961
1659443330.475493,10704
1659443330.514066,10445
1659443330.55264,10351
1659443330.591213,10351
1659443330.632688,10390
1659443330.674163,10467
1659443330.712395,10545
1659443330.750628,10587
1659443330.78886,10615
1659443330.830335,10664
1659443330.87181,10712
1659443330.910725,10769
1659443330.949639,10837
1659443330.988554,10892
1659443331.032589,10939
1659443331.076625,10999
1659443331.12066,11050
1659443331.161623,10989
1659443331.202586,10725
1659443331.242183,10398
1659443331.281781,10228
1659443331.321378,10152
1659443331.360293,10127
1659443331.399208,10166
1659443331.438123,10239
1659443331.479598,10281
1659443331.521073,10307
1659443331.56067,10340
1659443331.600268,10396
1659443331.639865,10483
1659443331.680828,10548
1659443331.721791,10612
1659443331.760365,10656
1659443331.798938,10700
1659443331.837512,10789
1659443331.876426,10842
1659443331.915341,10720
1659443331.954256,10365
1659443331.996243,10108
1659443332.03823,9993
1659443332.076462,9977
1659443332.114694,10024
1659443332.152926,10114
1659443332.194913,10198
1659443332.236901,10265
1659443332.275815,10315
1659443332.31473,10371
1659443332.353645,10447
1659443332.396144,10516
1659443332.438643,10601
1659443332.483361,10692
1659443332.528079,10764
1659443332.572797,10839
1659443332.606079,10917
1659443332.639362,10995
1659443332.683397,10944
1659443332.727432,10701
1659443332.771467,10444
1659443332.810382,10358
1659443332.849297,10401
1659443332.888212,10455
1659443332.930711,10565
1659443332.97321,10650
1659443333.011442,10715
1659443333.049674,10758
1659443333.087906,10804
1659443333.128869,10857
1659443333.169832,10896
1659443333.209088,10952
1659443333.248344,10968
1659443333.287601,11017
1659443333.326515,11097
1659443333.36543,11151
1659443333.404345,11079
1659443333.44582,10762
1659443333.487295,10423
1659443333.525868,10234
1659443333.564442,10152
1659443333.603015,10186
1659443333.645002,10311
1659443333.68699,10404
1659443333.725904,10437
1659443333.764819,10435
1659443333.803734,10411
1659443333.843673,10432
1659443333.883612,10491
1659443333.923551,10576
1659443333.96349,10626
1659443334.003428,10667
1659443334.043879,10715
1659443334.08433,10752
1659443334.123586,10651
1659443334.162843,10303
1659443334.202099,10000
1659443334.244086,9869
1659443334.286073,9799
1659443334.324305,9777
1659443334.362537,9833
1659443334.400769,9909
1659443334.445146,9979
1659443334.489522,10021
1659443334.533899,10065
1659443334.568205,10129
1659443334.602512,10199
1659443334.646888,10289
1659443334.691265,10380
1659443334.735641,10456
1659443334.774556,10527
1659443334.813471,10605
1659443334.852386,10652
1659443334.894885,10523
1659443334.937384,10222
1659443334.975616,9981
1659443335.013848,9892
1659443335.05208,9880
1659443335.094067,9905
1659443335.136055,9990
1659443335.175311,10096
1659443335.214567,10174
1659443335.253823,10216
1659443335.292055,10272
1659443335.330287,10315
1659443335.368519,10391
1659443335.409482,10480
1659443335.450445,10560
1659443335.490043,10637
1659443335.52964,10719
1659443335.569238,10805
1659443335.611225,10830
1659443335.653212,10716
1659443335.692127,10456
1659443335.731041,10285
1659443335.769956,10256
1659443335.811943,10277
1659443335.85393,10346
1659443335.892845,10434
1659443335.93176,10519
1659443335.970675,10573
1659443336.01215,10618
1659443336.053625,10652
1659443336.09254,10705
1659443336.131454,10758
1659443336.170369,10809
1659443336.214063,10878
1659443336.257757,10936
1659443336.301451,10984
1659443336.341902,11028
1659443336.382353,10933
1659443336.421268,10636
1659443336.460182,10381
1659443336.499097,10308
1659443336.541084,10312
1659443336.583071,10373
1659443336.621303,10437
1659443336.659535,10495
1659443336.697767,10519
1659443336.737024,10518
1659443336.77628,10516
1659443336.815536,10532
1659443336.857011,10575
1659443336.898486,10634
1659443336.937059,10714
1659443336.975633,10799
1659443337.014206,10879
1659443337.056705,10853
1659443337.099205,10607
1659443337.138461,10260
1659443337.177717,10054
1659443337.216973,9960
1659443337.255205,9933
1659443337.293437,9966
1659443337.331669,10047
1659443337.373144,10119
1659443337.414619,10156
1659443337.453876,10175
1659443337.493132,10228
1659443337.532388,10283
1659443337.573863,10347
1659443337.615338,10431
1659443337.659373,10491
1659443337.703408,10567
1659443337.747443,10633
1659443337.780726,10611
1659443337.814008,10352
1659443337.858043,10039
1659443337.902079,9855
1659443337.946114,9782
1659443337.985711,9773
1659443338.025309,9816
1659443338.064906,9898
1659443338.106894,9971
1659443338.14888,10021
1659443338.187795,10056
1659443338.22671,10124
1659443338.265625,10168
1659443338.304199,10239
1659443338.342772,10311
1659443338.381345,10371
1659443338.423844,10448
1659443338.466343,10529
1659443338.504917,10541
1659443338.54349,10345
1659443338.582064,10052
1659443338.620637,9877
1659443338.659211,9834
1659443338.697784,9825
1659443338.739259,9872
1659443338.780734,9966
1659443338.81999,10046
1659443338.859246,10092
1659443338.898503,10136
1659443338.939978,10183
1659443338.981453,10230
1659443339.020709,10287
1659443339.059965,10318
1659443339.099221,10357
1659443339.140696,10409
1659443339.182171,10443
1659443339.226207,10421
1659443339.270242,10189
1659443339.314277,9845
1659443339.354216,9629
1659443339.394155,9550
1659443339.434093,9526
1659443339.474032,9541
1659443339.513971,9619
1659443339.552203,9666
1659443339.590436,9655
1659443339.628668,9627
1659443339.667241,9615
1659443339.705815,9664
1659443339.744388,9771
1659443339.785863,9871
1659443339.827338,9975
1659443339.86557,10069
1659443339.903802,10151
1659443339.942034,10153
1659443339.984021,9880
1659443340.026008,9426
1659443340.065606,9092
1659443340.105203,8908
1659443340.144801,8800
1659443340.183033,8795
1659443340.221265,8859
1659443340.259497,8955
1659443340.301484,9042
1659443340.343471,9106
1659443340.382386,9153
1659443340.421301,9202
1659443340.460216,9251
1659443340.501691,9311
1659443340.543166,9378
1659443340.587201,9404
1659443340.631236,9424
1659443340.675271,9406
1659443340.708554,9192
1659443340.741836,8792
1659443340.785872,8499
1659443340.829907,8355
1659443340.873942,8307
1659443340.907736,8317
1659443340.941531,8353
1659443340.986248,8412
1659443341.030967,8439
1659443341.075684,8442
1659443341.114258,8443
1659443341.152831,8484
1659443341.191405,8536
1659443341.23288,8596
1659443341.274355,8661
1659443341.314294,8735
1659443341.354233,8784
1659443341.394171,8672
1659443341.435647,8365
1659443341.477121,8107
1659443341.516036,7998
1659443341.554951,7949
1659443341.593866,7949
1659443341.632781,8034
1659443341.671695,8079
1659443341.71061,8092
1659443341.752597,8095
1659443341.794585,8098
1659443341.832817,8141
1659443341.871049,8207
1659443341.909281,8243
1659443341.950756,8278
1659443341.992231,8342
1659443342.030463,8411
1659443342.068695,8308
1659443342.106927,7989
1659443342.148914,7734
1659443342.190901,7644
1659443342.229816,7631
1659443342.268731,7652
1659443342.307646,7709
1659443342.349633,7796
1659443342.39162,7864
1659443342.430193,7903
1659443342.468766,7913
1659443342.50734,7947
1659443342.552058,8010
1659443342.596776,8090
1659443342.641494,8162
1659443342.674776,8222
1659443342.708059,8327
1659443342.752094,8385
1659443342.796129,8242
1659443342.840164,7974
1659443342.881127,7808
1659443342.92209,7784
1659443342.961005,7799
1659443342.99992,7851
1659443343.038835,7934
1659443343.077067,7996
1659443343.115299,8027
1659443343.153531,8049
1659443343.195518,8077
1659443343.237505,8120
1659443343.27642,8187
1659443343.315335,8259
1659443343.354249,8328
1659443343.396236,8394
1659443343.438223,8468
1659443343.476797,8511
1659443343.51537,8357
1659443343.553944,8079
1659443343.593541,7909
1659443343.633139,7870
1659443343.672736,7879
1659443343.714211,7942
1659443343.755686,8013
1659443343.79426,8088
1659443343.832833,8139
1659443343.871407,8171
1659443343.912882,8224
1659443343.954357,8295
1659443343.993272,8383
1659443344.032187,8460
1659443344.071101,8548
1659443344.113088,8609
1659443344.155075,8682
1659443344.199452,8671
1659443344.243828,8467
1659443344.288205,8232
1659443344.321487,8135
1659443344.35477,8149
1659443344.398805,8192
1659443344.44284,8274
1659443344.486875,8352
1659443344.526131,8386
1659443344.565388,8402
1659443344.604644,8434
1659443344.647655,8481
1659443344.690666,8532
1659443344.729239,8590
1659443344.767813,8646
1659443344.806386,8728
1659443344.847862,8779
1659443344.889336,8686
1659443344.928593,8401
1659443344.967849,8151
1659443345.007105,8077
1659443345.045678,8069
1659443345.084252,8103
1659443345.122825,8172
1659443345.163788,8233
1659443345.204751,8265
1659443345.244007,8282
1659443345.283264,8317
1659443345.32252,8364
1659443345.36041,8444
1659443345.398301,8498
1659443345.436192,8578
1659443345.478691,8675
1659443345.52119,8744
1659443345.560105,8628
1659443345.59902,8312
1659443345.637935,8063
1659443345.678898,7964
1659443345.719861,7938
1659443345.764237,7936
1659443345.808614,7997
1659443345.85299,8077
1659443345.887297,8112
1659443345.921603,8116
1659443345.96598,8138
1659443346.010356,8175
1659443346.054733,8232
1659443346.093306,8292
1659443346.13188,8342
1659443346.170453,8404
1659443346.211416,8468
1659443346.252379,8361
1659443346.290611,8058
1659443346.328843,7781
1659443346.367075,7679
1659443346.405649,7671
1659443346.444222,7689
1659443346.482796,7769
1659443346.525295,7856
1659443346.567794,7905
1659443346.606367,7926
1659443346.644941,7937
1659443346.683514,7937
1659443346.72277,7972
1659443346.762027,8032
1659443346.801283,8088
1659443346.84327,8162
1659443346.885257,8205
1659443346.924172,8072
1659443346.963087,7760
1659443347.002001,7527
1659443347.043476,7429
1659443347.084951,7414
1659443347.126938,7433
1659443347.168926,7520
1659443347.207499,7599
1659443347.246072,7657
1659443347.284646,7693
1659443347.329022,7715
1659443347.373399,7761
1659443347.417775,7804
1659443347.45157,7864
1659443347.485364,7926
1659443347.530082,7990
1659443347.5748,7977
1659443347.619518,7735
1659443347.65775,7484
1659443347.695982,7384
1659443347.734214,7388
1659443347.776201,7419
1659443347.818188,7501
1659443347.856762,7588
1659443347.895335,7658
1659443347.933909,7700
1659443347.975896,7733
1659443348.017883,7786
1659443348.056798,7851
1659443348.095713,7924
1659443348.134627,8000
1659443348.173883,8081
1659443348.21314,8158
1659443348.252396,8097
1659443348.292847,7853
1659443348.333298,7636
1659443348.372554,7567
1659443348.41181,7582
1659443348.451066,7636
1659443348.492029,7728
1659443348.532992,7811
1659443348.571566,7868
1659443348.610139,7901
1659443348.648713,7936
1659443348.689676,8002
1659443348.730639,8099
1659443348.770236,8153
1659443348.809834,8220
1659443348.849431,8292
1659443348.890906,8339
1659443348.932381,8199
1659443348.970613,7982
1659443349.008845,7864
1659443349.047077,7854
1659443349.091795,7880
1659443349.136513,7927
1659443349.181231,8015
1659443349.215538,8091
1659443349.249844,8130
1659443349.293879,8150
1659443349.337914,8184
1659443349.38195,8227
1659443349.422913,8299
1659443349.463876,8391
1659443349.502449,8491
1659443349.541023,8603
1659443349.579596,8647
1659443349.617487,8465
1659443349.655377,8188
1659443349.693268,8025
1659443349.735767,7954
1659443349.778266,7928
1659443349.815389,7973
1659443349.852512,8047
1659443349.889634,8108
1659443349.926757,8112
1659443349.971134,8127
1659443350.01551,8159
1659443350.059887,8188
1659443350.102386,8241
1659443350.144885,8273
1659443350.1838,8285
1659443350.222714,8297
1659443350.261629,8348
1659443350.303104,8285
1659443350.344579,8005
1659443350.384177,7741
1659443350.423774,7621
1659443350.463372,7580
1659443350.502628,7584
1659443350.541884,7649
1659443350.581141,7728
1659443350.621591,7805
1659443350.662042,7828
1659443350.701298,7844
1659443350.740555,7858
1659443350.779811,7877
1659443350.820774,7906
1659443350.861737,7935
1659443350.900652,7965
1659443350.939566,8020
1659443350.978481,8096
1659443351.017396,8091
1659443351.056311,7872
1659443351.095226,7582
1659443351.136701,7435
1659443351.178176,7435
1659443351.216749,7450
1659443351.255323,7489
1659443351.293896,7553
1659443351.336395,7640
1659443351.378894,7680
1659443351.417468,7678
1659443351.456041,7689
1659443351.494615,7700
1659443351.53609,7768
1659443351.577565,7836
1659443351.621941,7891
1659443351.666318,7927
1659443351.710694,7950
1659443351.744489,7988
1659443351.778283,7967
1659443351.821977,7766
1659443351.865671,7520
1659443351.909365,7405
1659443351.948279,7390
1659443351.987194,7433
1659443352.026109,7534
1659443352.067072,7618
1659443352.108035,7686
1659443352.146609,7712
1659443352.185182,7727
1659443352.223755,7763
1659443352.265743,7820
1659443352.307729,7891
1659443352.346986,7956
1659443352.386242,8023
1659443352.425498,8084
1659443352.464072,8114
1659443352.502645,8044
1659443352.541218,7806
1659443352.582693,7616
1659443352.624168,7558
1659443352.662742,7575
1659443352.701315,7645
1659443352.739889,7743
1659443352.778804,7822
1659443352.817719,7884
1659443352.856633,7921
1659443352.898108,7984
1659443352.939583,8058
1659443352.981058,8122
1659443353.022533,8172
1659443353.061448,8224
1659443353.100363,8281
1659443353.139278,8323
1659443353.180753,8289
1659443353.222228,8031
1659443353.261484,7778
1659443353.30074,7684
1659443353.339996,7669
1659443353.384714,7692
1659443353.429432,7754
1659443353.47415,7829
1659443353.507432,7885
1659443353.540715,7931
1659443353.585091,7955
1659443353.629468,8012
1659443353.673844,8091
1659443353.715832,8184
1659443353.757818,8273
1659443353.796392,8372
1659443353.834965,8474
1659443353.873539,8574
1659443353.912112,8532
1659443353.950686,8333
1659443353.989259,8219
1659443354.030734,8244
1659443354.072209,8336
1659443354.110441,8457
1659443354.148673,8601
1659443354.186906,8768
1659443354.226162,8890
1659443354.265418,8978
1659443354.304674,9059
1659443354.346661,9161
1659443354.388648,9270
1659443354.42688,9381
1659443354.465112,9470
1659443354.503345,9562
1659443354.544819,9663
1659443354.586294,9729
1659443354.626233,9607
1659443354.666172,9294
1659443354.706111,9084
1659443354.747074,9006
1659443354.788037,8996
1659443354.826952,9040
1659443354.865867,9132
1659443354.904782,9233
1659443354.946256,9304
1659443354.987731,9348
1659443355.027261,9397
1659443355.06679,9495
1659443355.106319,9592
1659443355.145849,9694
1659443355.185378,9797
1659443355.226853,9892
1659443355.268328,9976
1659443355.30656,9883
1659443355.344792,9568
1659443355.383024,9284
1659443355.424499,9159
1659443355.465974,9171
1659443355.50523,9250
1659443355.544487,9375
1659443355.583743,9454
1659443355.625218,9520
1659443355.666693,9568
1659443355.705266,9639
1659443355.74384,9743
1659443355.782413,9816
1659443355.827472,9878
1659443355.872532,9937
1659443355.917591,10009
1659443355.96009,10044
1659443356.002589,9849
1659443356.04048,9487
1659443356.07837,9249
1659443356.116261,9161
1659443356.157736,9128
1659443356.199211,9170
1659443356.238467,9264
1659443356.277724,9350
1659443356.31698,9382
1659443356.355895,9407
1659443356.394809,9440
1659443356.433724,9503
1659443356.475199,9577
1659443356.516674,9677
1659443356.55593,9786
1659443356.595186,9868
1659443356.634443,9891
1659443356.675918,9616
1659443356.717393,9216
1659443356.756649,8964
1659443356.795905,8848
1659443356.835161,8772
1659443356.874417,8759
1659443356.913674,8837
1659443356.95293,8904
1659443356.993893,8924
1659443357.034856,8892
1659443357.073771,8847
1659443357.112685,8822
1659443357.1516,8842
1659443357.194099,8860
1659443357.236598,8887
1659443357.280633,8919
1659443357.324669,8900
1659443357.368704,8724
1659443357.401474,8341
1659443357.434245,8029
1659443357.478621,7874
1659443357.522998,7775
1659443357.567374,7720
1659443357.605606,7737
1659443357.643838,7841
1659443357.68207,7910
1659443357.724058,7976
1659443357.766045,8009
1659443357.805301,8064
1659443357.844557,8162
1659443357.883813,8292
1659443357.925288,8395
1659443357.966763,8481
1659443358.005337,8581
1659443358.04391,8676
1659443358.082484,8743
1659443358.121398,8612
1659443358.160313,8292
1659443358.199228,8031
1659443358.241215,7934
1659443358.283202,7924
1659443358.321775,7941
1659443358.360349,8020
1659443358.398922,8118
1659443358.439885,8221
1659443358.480848,8253
1659443358.519763,8257
1659443358.558678,8287
1659443358.597593,8329
1659443358.635825,8402
1659443358.674057,8481
1659443358.712289,8562
1659443358.754276,8666
1659443358.796263,8793
1659443358.83825,8906
1659443358.880237,8965
1659443358.919152,8827
1659443358.958067,8534
1659443358.996982,8324
1659443359.041358,8247
1659443359.085735,8219
1659443359.130111,8227
1659443359.164418,8252
1659443359.198724,8268
1659443359.243442,8259
1659443359.28816,8257
1659443359.332878,8251
1659443359.364624,8261
1659443359.396371,8267
1659443359.440747,8307
1659443359.485124,8357
1659443359.5295,8397
1659443359.568415,8443
1659443359.60733,8491
1659443359.646245,8429
1659443359.688232,8244
1659443359.730219,8163
1659443359.769134,8180
1659443359.808048,8275
1659443359.846963,8459
1659443359.88895,8674
1659443359.930937,8874
1659443359.969169,9000
1659443360.007401,9118
1659443360.045634,9237
1659443360.085572,9343
1659443360.125511,9400
1659443360.16545,9462
1659443360.206925,9545
1659443360.2484,9639
1659443360.289875,9754
1659443360.33135,9836
1659443360.372825,9743
1659443360.4143,9510
1659443360.456287,9359
1659443360.498274,9336
1659443360.536506,9413
1659443360.574739,9546
1659443360.612971,9711
1659443360.651544,9841
1659443360.690118,9888
1659443360.728691,9890
1659443360.77119,9863
1659443360.813689,9815
1659443360.851921,9757
1659443360.890153,9723
1659443360.928385,9826
1659443360.966618,9997
1659443361.00485,10168
1659443361.043082,10247
1659443361.085069,10160
1659443361.127056,9879
1659443361.165288,9555
1659443361.20352,9316
1659443361.241752,9171
1659443361.283739,9122
1659443361.325726,9174
1659443361.364641,9251
1659443361.403556,9263
1659443361.442471,9224
1659443361.483946,9194
1659443361.525421,9200
1659443361.563653,9226
1659443361.601885,9274
1659443361.640117,9326
1659443361.682104,9410
1659443361.724091,9530
1659443361.768468,9598
1659443361.812844,9446
1659443361.857221,9139
1659443361.895453,8912
1659443361.933685,8835
1659443361.971917,8833
1659443362.013392,8878
1659443362.054867,8934
1659443362.094123,8948
1659443362.133379,8946
1659443362.172636,8946
1659443362.214111,8974
1659443362.255586,9026
1659443362.294842,9074
1659443362.334098,9082
1659443362.373354,9147
1659443362.412269,9241
1659443362.451184,9226
1659443362.490098,8994
1659443362.532086,8703
1659443362.574073,8560
1659443362.613329,8524
1659443362.652585,8570
1659443362.691841,8631
1659443362.733316,8686
1659443362.774791,8697
1659443362.813023,8667
1659443362.851255,8666
1659443362.889488,8692
1659443362.928061,8742
1659443362.966635,8795
1659443363.005208,8864
1659443363.047707,8922
1659443363.090206,8917
1659443363.131169,8690
1659443363.172132,8336
1659443363.211047,8124
1659443363.249962,8059
1659443363.288876,8064
1659443363.333594,8114
1659443363.378312,8201
1659443363.42303,8244
1659443363.456825,8247
1659443363.490619,8264
1659443363.534654,8285
1659443363.578689,8339
1659443363.622725,8387
1659443363.656007,8438
1659443363.689289,8493
1659443363.734007,8557
1659443363.778725,8578
1659443363.823443,8391
1659443363.861675,8051
1659443363.899907,7848
1659443363.938139,7784
1659443363.980126,7787
1659443364.022114,7851
1659443364.061028,7967
1659443364.099943,8078
1659443364.138858,8151
1659443364.179309,8219
1659443364.21976,8294
1659443364.257992,8366
1659443364.296224,8469
1659443364.334456,8572
1659443364.373712,8686
1659443364.412968,8813
1659443364.452225,8936
1659443364.4937,9014
1659443364.535175,8920
1659443364.57409,8705
1659443364.613004,8564
1659443364.651919,8521
1659443364.693906,8526
1659443364.735893,8579
1659443364.774125,8677
1659443364.812357,8759
1659443364.85059,8810
1659443364.892576,8854
1659443364.934564,8905
1659443364.97382,8964
1659443365.013076,9032
1659443365.052332,9111
1659443365.093295,9190
1659443365.134258,9255
1659443365.172832,9328
1659443365.211405,9412
1659443365.249978,9464
1659443365.294355,9420
1659443365.338732,9260
1659443365.383108,9121
1659443365.425095,9053
1659443365.467082,9047
1659443365.504717,9054
1659443365.542351,9113
1659443365.579986,9175
1659443365.617621,9233
1659443365.656877,9280
1659443365.696133,9331
1659443365.735389,9392
1659443365.776352,9439
1659443365.817315,9511
1659443365.856572,9575
1659443365.895828,9643
1659443365.935084,9707
1659443365.977583,9763
1659443366.020082,9842
1659443366.063776,9897
1659443366.10747,9896
1659443366.151164,9800
1659443366.183934,9711
1659443366.216704,9649
1659443366.261422,9642
1659443366.30614,9651
1659443366.350858,9693
1659443366.38414,9757
1659443366.417423,9807
1659443366.461799,9847
1659443366.506176,9886
1659443366.550553,9948
1659443366.589809,9993
1659443366.629065,10062
1659443366.668321,10125
1659443366.709796,10186
1659443366.751271,10262
1659443366.789845,10331
1659443366.828418,10416
1659443366.866992,10482
1659443366.909491,10532
1659443366.95199,10494
1659443366.990222,10431
1659443367.028454,10379
1659443367.066686,10369
1659443367.105601,10390
1659443367.144516,10401
1659443367.18343,10444
1659443367.224393,10484
1659443367.265356,10490
1659443367.30393,10474
1659443367.342503,10481
1659443367.381077,10512
1659443367.419309,10556
1659443367.457541,10618
1659443367.495773,10678
1659443367.53776,10722
1659443367.579747,10765
1659443367.62071,10799
1659443367.661673,10843
1659443367.700588,10840
1659443367.739503,10766
1659443367.778417,10656
1659443367.820405,10614
1659443367.862391,10628
1659443367.901989,10642
1659443367.941586,10667
1659443367.981184,10718
1659443368.025219,10792
1659443368.069254,10832
1659443368.11329,10853
1659443368.146572,10850
1659443368.179854,10839
1659443368.224231,10844
1659443368.268608,10873
1659443368.312984,10924
1659443368.355483,10979
1659443368.397982,11035
1659443368.436556,11110
1659443368.475129,11185
1659443368.513703,11194
1659443368.552959,11069
1659443368.592215,10907
1659443368.631471,10770
1659443368.671922,10685
1659443368.712373,10629
1659443368.750947,10608
1659443368.78952,10630
1659443368.828093,10680
1659443368.870593,10709
1659443368.913092,10693
1659443368.952348,10702
1659443368.991604,10722
1659443369.03086,10771
1659443369.069433,10825
1659443369.108007,10891
1659443369.14658,10947
1659443369.18908,11004
1659443369.231579,11068
1659443369.270835,11122
1659443369.310091,11108
1659443369.349347,10983
1659443369.389798,10842
1659443369.430249,10759
1659443369.469505,10721
1659443369.508761,10716
1659443369.548018,10751
1659443369.589493,10791
1659443369.630968,10827
1659443369.669541,10850
1659443369.708114,10877
1659443369.746688,10926
1659443369.788419,10985
1659443369.83015,11027
1659443369.871881,11077
1659443369.913612,11118
1659443369.951844,11170
1659443369.990076,11233
1659443370.028308,11276
1659443370.070295,11193
1659443370.112282,11028
1659443370.151197,10910
1659443370.190112,10845
1659443370.229027,10835
1659443370.270502,10870
1659443370.311977,10919
1659443370.350209,10952
1659443370.388441,10973
1659443370.426673,10984
1659443370.469172,10987
1659443370.511671,11011
1659443370.555707,11035
1659443370.599742,11070
1659443370.643777,11097
1659443370.682009,11147
1659443370.720241,11197
1659443370.758473,11178
1659443370.80046,11029
1659443370.842447,10874
1659443370.881021,10808
1659443370.919594,10821
1659443370.958168,10893
1659443370.999643,10972
1659443371.041118,11044
1659443371.080032,11101
1659443371.118947,11167
1659443371.157862,11248
1659443371.196777,11310
1659443371.235692,11360
1659443371.274606,11359
1659443371.315569,11327
1659443371.356532,11279
1659443371.39613,11276
1659443371.435728,11229
1659443371.475325,10926
1659443371.517312,10425
1659443371.559299,9964
1659443371.597531,9661
1659443371.635763,9418
1659443371.673995,9288
1659443371.71291,9228
1659443371.751825,9312
1659443371.79074,9580
1659443371.832727,9888
1659443371.874714,10140
1659443371.916189,10319
1659443371.957664,10482
1659443371.996238,10591
1659443372.034811,10738
1659443372.073384,10911
1659443372.118443,11098
1659443372.163503,11179
1659443372.208562,11195
1659443372.241844,11274
1659443372.275127,11398
1659443372.319845,11490
1659443372.364563,11528
1659443372.409281,11574
1659443372.442563,11600
1659443372.475846,11593
1659443372.520222,11544
1659443372.564599,11569
1659443372.608975,11573
1659443372.647549,11577
1659443372.686122,11654
1659443372.724695,11726
1659443372.766683,11826
1659443372.80867,11941
1659443372.846902,12036
1659443372.885134,12032
1659443372.923366,11999
1659443372.964329,11990
1659443373.005292,11991
1659443373.043524,11999
1659443373.081756,11997
1659443373.119988,12016
1659443373.159244,12049
1659443373.1985,12124
1659443373.237757,12223
1659443373.279232,12330
1659443373.320707,12389
1659443373.359622,12434
1659443373.398536,12483
1659443373.437451,12501
1659443373.479438,12525
1659443373.521425,12542
1659443373.559657,12448
1659443373.597889,12275
1659443373.636122,12164
1659443373.678108,12138
1659443373.720096,12135
1659443373.759693,12187
1659443373.799291,12230
1659443373.838888,12288
1659443373.879339,12300
1659443373.91979,12324
1659443373.958364,12361
1659443373.996937,12401
1659443374.03551,12434
1659443374.079887,12463
1659443374.124264,12504
1659443374.16864,12538
1659443374.210627,12543
1659443374.252614,12410
1659443374.290846,12204
1659443374.329078,12104
1659443374.36731,12109
1659443374.406567,12140
1659443374.445823,12204
1659443374.485079,12281
1659443374.526042,12332
1659443374.567005,12352
1659443374.60592,12382
1659443374.644835,12428
1659443374.683749,12475
1659443374.72676,12507
1659443374.769772,12549
1659443374.808345,12602
1659443374.846918,12625
1659443374.885492,12576
1659443374.924407,12380
1659443374.963321,12235
1659443375.002236,12198
1659443375.043711,12244
1659443375.085186,12292
1659443375.124101,12367
1659443375.163016,12443
1659443375.201931,12472
1659443375.243406,12503
1659443375.284881,12542
1659443375.323796,12584
1659443375.36271,12624
1659443375.401625,12675
1659443375.4431,12716
1659443375.484575,12771
1659443375.52861,12800
1659443375.572646,12716
1659443375.616681,12562
1659443375.650987,12519
1659443375.685294,12554
1659443375.72967,12605
1659443375.774047,12684
1659443375.818424,12746
1659443375.851194,12787
1659443375.883964,12830
1659443375.928341,12849
1659443375.972717,12884
1659443376.017094,12934
1659443376.05635,12961
1659443376.095606,13004
1659443376.134862,13035
1659443376.175313,13078
1659443376.215764,13074
1659443376.254679,12949
1659443376.293594,12819
1659443376.332509,12796
1659443376.370741,12840
1659443376.408973,12904
1659443376.447205,12973
1659443376.489192,13019
1659443376.531179,13041
1659443376.570094,13053
1659443376.609009,13084
1659443376.647923,13108
1659443376.68991,13143
1659443376.731898,13186
1659443376.770471,13216
1659443376.809044,13252
1659443376.847618,13279
1659443376.886191,13202
1659443376.924765,13021
1659443376.963338,12916
1659443377.005325,12911
1659443377.047312,12944
1659443377.089299,12984
1659443377.131286,13047
1659443377.169518,13089
1659443377.207751,13119
1659443377.245983,13132
1659443377.290701,13156
1659443377.335419,13176
1659443377.380136,13212
1659443377.418369,13251
1659443377.456601,13286
1659443377.494833,13315
1659443377.537332,13329
1659443377.579831,13214
1659443377.618404,13025
1659443377.656978,12956
1659443377.695551,12957
1659443377.734807,12992
1659443377.774064,13063
1659443377.81332,13123
1659443377.854795,13167
1659443377.89627,13198
1659443377.935526,13208
1659443377.974782,13231
1659443378.014038,13266
1659443378.056026,13301
1659443378.098012,13329
1659443378.136927,13372
1659443378.175842,13402
1659443378.214757,13411
1659443378.256232,13295
1659443378.297707,13101
1659443378.336963,13026
1659443378.376219,13038
1659443378.415475,13069
1659443378.454049,13136
1659443378.492622,13198
1659443378.531196,13224
1659443378.573183,13251
1659443378.61517,13255
1659443378.656133,13279
1659443378.697096,13318
1659443378.735328,13349
1659443378.77356,13389
1659443378.811792,13422
1659443378.85651,13445
1659443378.901228,13389
1659443378.945946,13231
1659443378.980252,13106
1659443379.014559,13106
1659443379.058594,13146
1659443379.102629,13200
1659443379.146664,13271
1659443379.179947,13318
1659443379.213229,13335
1659443379.257606,13351
1659443379.301982,13368
1659443379.346359,13403
1659443379.384932,13439
1659443379.423506,13475
1659443379.462079,13507
1659443379.503042,13531
1659443379.544005,13521
1659443379.583261,13381
1659443379.622518,13192
1659443379.661774,13133
1659443379.699664,13132
1659443379.737555,13166
1659443379.775446,13235
1659443379.817945,13306
1659443379.860444,13345
1659443379.899359,13366
1659443379.938274,13386
1659443379.977189,13424
1659443380.018663,13459
1659443380.060138,13495
1659443380.099053,13532
1659443380.137968,13561
1659443380.176883,13586
1659443380.219382,13584
1659443380.261881,13427
1659443380.300113,13229
1659443380.338345,13153
1659443380.376577,13140
1659443380.418052,13161
1659443380.459527,13223
1659443380.498442,13290
1659443380.537357,13331
1659443380.576272,13358
1659443380.620307,13353
1659443380.664342,13393
1659443380.708377,13421
1659443380.749852,13453
1659443380.791327,13489
1659443380.830584,13531
1659443380.86984,13560
1659443380.909096,13572
1659443380.950059,13476
1659443380.991022,13213
1659443381.029937,12977
1659443381.068851,12908
1659443381.107766,12930
1659443381.147022,12983
1659443381.186279,13076
1659443381.225535,13136
1659443381.267266,13167
1659443381.308997,13161
1659443381.350728,13173
1659443381.392459,13213
1659443381.434446,13259
1659443381.476433,13303
1659443381.516031,13330
1659443381.555628,13356
1659443381.595226,13378
1659443381.635677,13317
1659443381.676127,13105
1659443381.714701,12907
1659443381.753274,12874
1659443381.791848,12887
1659443381.830763,12915
1659443381.869678,12956
1659443381.908592,13022
1659443381.950067,13055
1659443381.991542,13081
1659443382.030116,13097
1659443382.068689,13133
1659443382.107263,13180
1659443382.146178,13211
1659443382.185092,13259
1659443382.224007,13287
1659443382.265482,13314
1659443382.306957,13353
1659443382.345872,13344
1659443382.384787,13180
1659443382.423702,12947
1659443382.465689,12822
1659443382.507676,12821
1659443382.546932,12870
1659443382.586188,12937
1659443382.625444,13020
1659443382.665895,13071
1659443382.706346,13089
1659443382.744578,13104
1659443382.78281,13136
1659443382.821042,13190
1659443382.863541,13217
1659443382.90604,13265
1659443382.949734,13305
1659443382.993428,13349
1659443383.037122,13388
1659443383.075696,13413
1659443383.114269,13377
1659443383.152842,13177
1659443383.194317,12998
1659443383.235792,12958
1659443383.274707,12980
1659443383.313622,12963
1659443383.352537,12948
1659443383.394524,12957
1659443383.436511,12932
1659443383.475767,12907
1659443383.515023,12905
1659443383.554279,12932
1659443383.592853,13006
1659443383.631426,13089
1659443383.67,13167
1659443383.710963,13243
1659443383.751926,13324
1659443383.791182,13377
1659443383.830438,13344
1659443383.869694,13160
1659443383.908268,13012
1659443383.946841,13019
1659443383.985415,13069
1659443384.02689,13133
1659443384.068365,13196
1659443384.107621,13257
1659443384.146877,13293
1659443384.186133,13329
1659443384.227096,13356
1659443384.268059,13404
1659443384.309534,13461
1659443384.351009,13514
1659443384.390265,13557
1659443384.429522,13604
1659443384.468778,13635
1659443384.513154,13646
1659443384.557531,13554
1659443384.601907,13338
1659443384.634678,13207
1659443384.667448,13210
1659443384.712507,13253
1659443384.757566,13322
1659443384.802626,13402
1659443384.835908,13454
1659443384.869191,13499
1659443384.912884,13526
1659443384.956578,13567
1659443385.000272,13607
1659443385.039528,13659
1659443385.078784,13690
1659443385.118041,13731
1659443385.158492,13754
1659443385.198942,13780
1659443385.237857,13795
1659443385.276772,13686
1659443385.315687,13493
1659443385.354602,13388
1659443385.393517,13411
1659443385.432431,13448
1659443385.473907,13514
1659443385.515381,13569
1659443385.553955,13630
1659443385.592528,13650
1659443385.631102,13674
1659443385.673601,13700
1659443385.7161,13736
1659443385.755015,13779
1659443385.79393,13811
1659443385.832844,13849
1659443385.873807,13874
1659443385.91477,13901
1659443385.953344,13876
1659443385.991917,13732
1659443386.030491,13553
1659443386.072478,13507
1659443386.114465,13545
1659443386.152697,13604
1659443386.190929,13674
1659443386.229161,13727
1659443386.273538,13753
1659443386.317914,13767
1659443386.362291,13790
1659443386.394549,13817
1659443386.426807,13856
1659443386.468539,13897
1659443386.510269,13929
1659443386.552001,13960
1659443386.593731,13986
1659443386.635719,13948
1659443386.677706,13769
1659443386.71662,13600
1659443386.755535,13580
1659443386.79445,13604
1659443386.836437,13655
1659443386.878424,13734
1659443386.91768,13778
1659443386.956936,13811
1659443386.996193,13835
1659443387.03579,13855
1659443387.075388,13888
1659443387.114985,13927
1659443387.155436,13954
1659443387.195887,13994
1659443387.237874,14022
1659443387.279861,14045
1659443387.318776,14010
1659443387.357691,13850
1659443387.396605,13661
1659443387.440641,13605
1659443387.484676,13633
1659443387.528711,13681
1659443387.561481,13747
1659443387.594252,13813
1659443387.63897,13848
1659443387.683688,13879
1659443387.728406,13885
1659443387.76732,13902
1659443387.806235,13941
1659443387.84515,13981
1659443387.886625,14019
1659443387.9281,14044
1659443387.967356,14069
1659443388.006612,14072
1659443388.045869,13945
1659443388.087344,13742
1659443388.128819,13649
1659443388.168075,13659
1659443388.207331,13693
1659443388.246587,13756
1659443388.285502,13824
1659443388.324417,13871
1659443388.363332,13883
1659443388.404294,13907
1659443388.445257,13907
1659443388.483148,13942
1659443388.521039,13984
1659443388.55893,14010
1659443388.598186,14028
1659443388.637442,14068
1659443388.676698,14089
1659443388.718685,14029
1659443388.760672,13837
1659443388.801635,13670
1659443388.842598,13651
1659443388.881513,13690
1659443388.920428,13734
1659443388.959343,13804
1659443389.001842,13862
1659443389.044341,13886
1659443389.082573,13896
1659443389.120805,13920
1659443389.159037,13940
1659443389.203755,13988
1659443389.248473,14019
1659443389.293191,14054
1659443389.325961,14082
1659443389.358732,14103
1659443389.402767,14040
1659443389.446802,13863
1659443389.490837,13723
1659443389.529752,13718
1659443389.568667,13769
1659443389.607582,13820
1659443389.650081,13886
1659443389.69258,13947
1659443389.730471,13961
1659443389.768361,13974
1659443389.806252,14008
1659443389.848239,14041
1659443389.890226,14078
1659443389.929824,14101
1659443389.969421,14132
1659443390.009019,14158
1659443390.047592,14187
1659443390.086166,14116
1659443390.124739,13943
1659443390.167238,13821
1659443390.209737,13824
1659443390.248652,13857
1659443390.287567,13923
1659443390.326482,13984
1659443390.367957,14030
1659443390.409432,14058
1659443390.448005,14068
1659443390.486579,14096
1659443390.525152,14122
1659443390.567651,14149
1659443390.61015,14184
1659443390.648724,14201
1659443390.687297,14224
1659443390.725871,14256
1659443390.766834,14231
1659443390.807796,14081
1659443390.852515,13881
1659443390.897232,13809
1659443390.94195,13813
1659443390.980524,13824
1659443391.019097,13888
1659443391.057671,13946
1659443391.099658,13985
1659443391.141645,13988
1659443391.180901,13979
1659443391.220157,14005
1659443391.259413,14034
1659443391.300888,14074
1659443391.342363,14102
1659443391.380937,14112
1659443391.41951,14140
1659443391.458084,14152
1659443391.497681,14036
1659443391.537279,13771
1659443391.576876,13620
1659443391.617839,13633
1659443391.658802,13676
1659443391.700021,13728
1659443391.74124,13798
1659443391.782459,13841
1659443391.823678,13836
1659443391.862252,13852
1659443391.900825,13899
1659443391.939399,13941
1659443391.977631,13968
1659443392.015863,13999
1659443392.054095,14028
1659443392.09557,14067
1659443392.137045,14100
1659443392.17596,14094
1659443392.214875,13954
1659443392.253789,13737
1659443392.296288,13622
1659443392.338787,13563
1659443392.377361,13513
1659443392.415934,13548
1659443392.454508,13646
1659443392.493764,13736
1659443392.53302,13760
1659443392.572276,13777
1659443392.613751,13806
1659443392.655226,13815
1659443392.6938,13837
1659443392.732373,13877
1659443392.770947,13904
1659443392.812422,13926
1659443392.853897,13964
1659443392.893153,13967
1659443392.932409,13821
1659443392.971665,13591
1659443393.015359,13462
1659443393.059053,13459
1659443393.102747,13494
1659443393.144734,13570
1659443393.186721,13656
1659443393.226318,13723
1659443393.265916,13754
1659443393.305513,13774
1659443393.346988,13814
1659443393.388463,13851
1659443393.427378,13891
1659443393.466293,13924
1659443393.505208,13946
1659443393.544464,13964
1659443393.58372,13973
1659443393.622976,13989
1659443393.664451,13927
1659443393.705926,13676
1659443393.7445,13474
1659443393.783073,13418
1659443393.821647,13446
1659443393.863634,13496
1659443393.905621,13596
1659443393.943511,13669
1659443393.981402,13708
1659443394.019293,13724
1659443394.058208,13753
1659443394.097123,13780
1659443394.136037,13826
1659443394.178537,13871
1659443394.221036,13889
1659443394.258926,13919
1659443394.296817,13940
1659443394.334708,13969
1659443394.376695,13928
1659443394.418682,13720
1659443394.457597,13532
1659443394.496511,13506
1659443394.535426,13546
1659443394.577413,13616
1659443394.619401,13674
1659443394.663436,13707
1659443394.707471,13738
1659443394.751506,13734
1659443394.7853,13728
1659443394.819095,13742
1659443394.86313,13785
1659443394.907165,13841
1659443394.9512,13876
1659443394.989433,13916
1659443395.027665,13955
1659443395.065897,13951
1659443395.108396,13785
1659443395.150895,13531
1659443395.189127,13409
1659443395.227359,13402
1659443395.265591,13445
1659443395.303823,13531
1659443395.342055,13619
1659443395.380288,13666
1659443395.422275,13694
1659443395.464262,13712
1659443395.502835,13729
1659443395.541409,13756
1659443395.579982,13788
1659443395.621969,13825
1659443395.663956,13865
1659443395.703212,13886
1659443395.742468,13907
1659443395.781725,13836
1659443395.820639,13575
1659443395.859554,13324
1659443395.898469,13247
1659443395.939432,13261
1659443395.980395,13314
1659443396.022894,13400
1659443396.065393,13481
1659443396.103625,13534
1659443396.141857,13561
1659443396.180089,13578
1659443396.224466,13617
1659443396.268842,13650
1659443396.313219,13696
1659443396.345989,13747
1659443396.37876,13776
1659443396.423819,13811
1659443396.468878,13844
1659443396.513938,13804
1659443396.54722,13599
1659443396.580503,13395
1659443396.62522,13335
1659443396.669938,13366
1659443396.714656,13418
1659443396.753571,13499
1659443396.792486,13572
1659443396.831401,13613
1659443396.872876,13633
1659443396.914351,13663
1659443396.951985,13682
1659443396.98962,13723
1659443397.027255,13756
1659443397.064889,13807
1659443397.106877,13836
1659443397.148864,13864
1659443397.187437,13896
1659443397.226011,13886
1659443397.264584,13735
1659443397.305547,13524
1659443397.34651,13460
1659443397.385425,13494
1659443397.42434,13575
1659443397.463254,13648
1659443397.506948,13711
1659443397.550642,13748
1659443397.594336,13761
1659443397.636323,13779
1659443397.67831,13808
1659443397.716883,13853
1659443397.755457,13883
1659443397.79403,13919
1659443397.835505,13939
1659443397.87698,13987
1659443397.915895,14000
1659443397.95481,13966
1659443397.993725,13820
1659443398.03264,13674
1659443398.071554,13675
1659443398.110469,13736
1659443398.152456,13803
1659443398.194443,13863
1659443398.232334,13901
1659443398.270225,13917
1659443398.308115,13928
1659443398.349591,13966
1659443398.391066,13989
1659443398.429639,14024
1659443398.468212,14056
1659443398.506786,14080
1659443398.545701,14110
1659443398.584615,14127
1659443398.62353,14061
1659443398.665517,13901
1659443398.707505,13813
1659443398.746419,13832
1659443398.785334,13886
1659443398.824249,13937
1659443398.865212,13986
1659443398.906175,14032
1659443398.951234,14047
1659443398.996293,14052
1659443399.041353,14070
1659443399.075147,14101
1659443399.108942,14128
1659443399.153659,14149
1659443399.198377,14167
1659443399.243095,14191
1659443399.275866,14207
1659443399.308636,14111
1659443399.353013,13929
1659443399.397389,13838
1659443399.441766,13858
1659443399.480339,13886
1659443399.518913,13942
1659443399.557486,13996
1659443399.598961,14040
1659443399.640436,14072
1659443399.679351,14073
1659443399.718266,14091
1659443399.75718,14119
1659443399.798143,14150
1659443399.839106,14168
1659443399.878704,14195
1659443399.918301,14224
1659443399.957899,14238
1659443399.997155,14202
1659443400.036411,14045
1659443400.075667,13905
1659443400.11663,13869
1659443400.157593,13845
1659443400.19685,13834
1659443400.236106,13867
1659443400.275362,13911
1659443400.317861,13938
1659443400.36036,13972
1659443400.398592,13990
1659443400.436824,14031
1659443400.475056,14071
1659443400.516019,14115
1659443400.556982,14153
1659443400.595897,14183
1659443400.634812,14200
1659443400.673727,14135
1659443400.715202,13931
1659443400.756677,13773
1659443400.79525,13748
1659443400.833824,13761
1659443400.872397,13806
1659443400.916432,13889
1659443400.960468,13952
1659443401.004503,13979
1659443401.037785,13973
1659443401.071068,13986
1659443401.115103,14002
1659443401.159138,14031
1659443401.203173,14053
1659443401.245672,14070
1659443401.288171,14111
1659443401.326745,14129
1659443401.365318,14122
1659443401.403892,13998
1659443401.442806,13768
1659443401.481721,13682
1659443401.520636,13687
1659443401.562111,13727
1659443401.603586,13788
1659443401.642159,13862
1659443401.680733,13914
1659443401.719306,13918
1659443401.75788,13930
1659443401.796453,13952
1659443401.835027,13993
1659443401.877014,14026
1659443401.919001,14058
1659443401.957916,14082
1659443401.99683,14118
1659443402.035745,14144
1659443402.07722,14175
1659443402.118695,14119
1659443402.160682,13942
1659443402.202669,13792
1659443402.244657,13783
1659443402.286644,13819
1659443402.328119,13876
1659443402.369593,13946
1659443402.40885,13993
1659443402.448106,14013
1659443402.487362,14028
1659443402.529349,14044
1659443402.571336,14082
1659443402.610251,14105
1659443402.649166,14139
1659443402.688081,14165
1659443402.726654,14184
1659443402.765228,14205
1659443402.803801,14226
1659443402.845788,14157
1659443402.887775,13993
1659443402.927031,13883
1659443402.966287,13900
1659443403.005543,13941
1659443403.043434,13991
1659443403.081325,14046
1659443403.119216,14086
1659443403.161203,14105
1659443403.20319,14101
1659443403.242787,14108
1659443403.282385,14137
1659443403.321982,14162
1659443403.363457,14194
1659443403.404932,14218
1659443403.445895,14236
1659443403.486858,14271
1659443403.526114,14270
1659443403.565371,14205
1659443403.604627,13969
1659443403.648662,13763
1659443403.692697,13700
1659443403.736732,13736
1659443403.770015,13793
1659443403.803297,13878
1659443403.847674,13961
1659443403.89205,13976
1659443403.936427,13976
1659443403.974659,13988
1659443404.012891,14013
1659443404.051123,14043
1659443404.091574,14089
1659443404.132025,14110
1659443404.171281,14130
1659443404.210537,14166
1659443404.249794,14194
1659443404.291269,14203
1659443404.332744,14117
1659443404.371317,13902
1659443404.40989,13755
1659443404.448464,13745
1659443404.488061,13774
1659443404.527659,13828
1659443404.567257,13910
1659443404.608732,13962
1659443404.650207,14000
1659443404.689121,14000
1659443404.728036,14018
1659443404.766951,14050
1659443404.80945,14078
1659443404.851949,14117
1659443404.890523,14149
1659443404.929096,14179
1659443404.967669,14205
1659443405.008121,14229
1659443405.048571,14234
1659443405.087486,14162
1659443405.126401,13983
1659443405.165316,13852
1659443405.207303,13860
1659443405.24929,13910
1659443405.287522,13963
1659443405.325754,14028
1659443405.363986,14083
1659443405.406229,14086
1659443405.448472,14091
1659443405.490716,14114
1659443405.532959,14140
1659443405.571873,14166
1659443405.610788,14197
1659443405.649703,14233
1659443405.691178,14245
1659443405.732653,14275
1659443405.771909,14284
1659443405.811165,14212
1659443405.850421,14047
1659443405.892409,13921
1659443405.934396,13928
1659443405.972969,13968
1659443406.011543,14018
1659443406.050116,14075
1659443406.091591,14101
1659443406.133066,14120
1659443406.171981,14125
1659443406.210896,14149
1659443406.24981,14177
1659443406.293504,14209
1659443406.337198,14232
1659443406.380892,14252
1659443406.423391,14283
1659443406.46589,14300
1659443406.504463,14303
1659443406.543037,14213
1659443406.58161,14018
1659443406.620525,13866
1659443406.65944,13868
1659443406.698355,13898
1659443406.73983,13952
1659443406.781305,14015
1659443406.82022,14069
1659443406.859134,14086
1659443406.898049,14094
1659443406.939524,14108
1659443406.980999,14127
1659443407.019573,14161
1659443407.058146,14189
1659443407.09672,14215
1659443407.135634,14241
1659443407.174549,14263
1659443407.213464,14281
1659443407.253915,14251
1659443407.294366,14088
1659443407.333281,13909
1659443407.372196,13863
1659443407.41111,13894
1659443407.453098,13948
1659443407.495085,14024
1659443407.533317,14066
1659443407.571549,14105
1659443407.609781,14111
1659443407.650744,14128
1659443407.691707,14154
1659443407.736083,14181
1659443407.78046,14221
1659443407.824836,14232
1659443407.859143,14256
1659443407.893449,14277
1659443407.937485,14312
1659443407.98152,14283
1659443408.025555,14139
1659443408.065152,13992
1659443408.10475,13958
1659443408.144347,14002
1659443408.185311,14063
1659443408.226274,14122
1659443408.265188,14161
1659443408.304103,14206
1659443408.343018,14208
1659443408.384493,14224
1659443408.425968,14245
1659443408.464883,14273
1659443408.503798,14297
1659443408.542712,14326
1659443408.580945,14345
1659443408.619177,14366
1659443408.657409,14395
1659443408.70042,14306
1659443408.743431,14134
1659443408.782346,14040
1659443408.82126,14049
1659443408.860175,14075
1659443408.901138,14111
1659443408.942101,14165
1659443408.981699,14204
1659443409.021296,14222
1659443409.060894,14229
1659443409.099809,14241
1659443409.138724,14271
1659443409.177638,14297
1659443409.219113,14326
1659443409.260588,14340
1659443409.302063,14360
1659443409.343538,14382
1659443409.382112,14377
1659443409.420685,14263
1659443409.459259,14056
1659443409.502953,13937
1659443409.546646,13918
1659443409.59034,13954
1659443409.624135,13982
1659443409.657929,14052
1659443409.702647,14107
1659443409.747365,14125
1659443409.792083,14141
1659443409.824341,14164
1659443409.8566,14206
1659443409.901317,14212
1659443409.946035,14247
1659443409.990753,14262
1659443410.029668,14288
1659443410.068583,14305
1659443410.107498,14302
1659443410.148973,14175
1659443410.190448,13973
1659443410.229362,13878
1659443410.268277,13887
1659443410.307192,13938
1659443410.349179,13999
1659443410.391166,14058
1659443410.429398,14102
1659443410.46763,14111
1659443410.505862,14125
1659443410.544436,14130
1659443410.583009,14157
1659443410.621583,14206
1659443410.664082,14214
1659443410.706581,14246
1659443410.745154,14265
1659443410.783728,14287
1659443410.822301,14195
1659443410.862752,14019
1659443410.903203,13890
1659443410.942459,13870
1659443410.981716,13909
1659443411.020972,13959
1659443411.062447,14026
1659443411.103922,14060
1659443411.142837,14062
1659443411.181751,14069
1659443411.220666,14101
1659443411.262653,14118
1659443411.30464,14156
1659443411.349358,14177
1659443411.394076,14199
1659443411.438794,14225
1659443411.477367,14235
1659443411.515941,14184
1659443411.554514,13975
1659443411.597013,13794
1659443411.639513,13748
1659443411.678086,13752
1659443411.71666,13771
1659443411.755233,13791
1659443411.796196,13833
1659443411.837159,13851
1659443411.876074,13857
1659443411.914989,13882
1659443411.953903,13912
1659443411.993842,13952
1659443412.033781,13981
1659443412.07372,14033
1659443412.114683,14063
1659443412.155646,14104
1659443412.194561,14088
1659443412.233475,13930
1659443412.27239,13704
1659443412.314377,13574
1659443412.356364,13542
1659443412.395621,13542
1659443412.434877,13596
1659443412.474133,13669
1659443412.512707,13724
1659443412.55128,13732
1659443412.589853,13739
1659443412.63184,13764
1659443412.673827,13792
1659443412.712059,13824
1659443412.750292,13859
1659443412.788524,13893
1659443412.829999,13929
1659443412.871474,13944
1659443412.91585,13824
1659443412.960227,13567
1659443413.004603,13422
1659443413.037374,13398
1659443413.070144,13425
1659443413.114521,13513
1659443413.158897,13589
1659443413.203274,13637
1659443413.24253,13651
1659443413.281786,13668
1659443413.321042,13699
1659443413.363029,13743
1659443413.405016,13782
1659443413.443249,13820
1659443413.481481,13854
1659443413.519713,13891
1659443413.561188,13881
1659443413.602663,13682
1659443413.641919,13439
1659443413.681175,13328
1659443413.720431,13327
1659443413.758322,13360
1659443413.796213,13460
1659443413.834103,13537
1659443413.87336,13572
1659443413.912616,13625
1659443413.951872,13675
1659443413.993859,13713
1659443414.035846,13747
1659443414.074419,13786
1659443414.112993,13816
1659443414.151567,13859
1659443414.193041,13898
1659443414.234516,13887
1659443414.276504,13675
1659443414.318491,13320
1659443414.357064,13127
1659443414.395638,13122
1659443414.434211,13186
1659443414.47927,13256
1659443414.524329,13361
1659443414.569389,13462
1659443414.602671,13499
1659443414.635953,13519
1659443414.679989,13547
1659443414.724024,13558
1659443414.768059,13574
1659443414.802366,13613
1659443414.836672,13670
1659443414.88139,13722
1659443414.926108,13742
1659443414.970826,13681
1659443415.009058,13412
1659443415.04729,13091
1659443415.085522,12962
1659443415.126997,12911
1659443415.168472,12929
1659443415.207046,13009
1659443415.245619,13098
1659443415.284192,13158
1659443415.323107,13180
1659443415.362022,13213
1659443415.400937,13254
1659443415.442412,13321
1659443415.483887,13370
1659443415.523143,13417
1659443415.562399,13461
1659443415.601655,13507
1659443415.642618,13544
1659443415.683581,13507
1659443415.722837,13285
1659443415.762094,12995
1659443415.80135,12857
1659443415.843337,12825
1659443415.885324,12870
1659443415.923556,12988
1659443415.961788,13118
1659443416.00002,13194
1659443416.040983,13213
1659443416.081946,13243
1659443416.121202,13262
1659443416.160459,13303
1659443416.199715,13328
1659443416.24375,13328
1659443416.287785,13357
1659443416.33182,13417
1659443416.364591,13467
1659443416.397361,13359
1659443416.442079,12967
1659443416.486797,12556
1659443416.531515,12366
1659443416.57299,12339
1659443416.614465,12432
1659443416.653379,12541
1659443416.692294,12603
1659443416.731209,12641
1659443416.770124,12648
1659443416.809039,12683
1659443416.847954,12762
1659443416.888916,12836
1659443416.929879,12916
1659443416.968794,12984
1659443417.007709,13067
1659443417.046624,13107
1659443417.088611,13022
1659443417.130598,12741
1659443417.169513,12540
1659443417.208428,12521
1659443417.247343,12564
1659443417.285575,12672
1659443417.323807,12790
1659443417.362039,12869
1659443417.403002,12905
1659443417.443965,12947
1659443417.483221,12986
1659443417.522477,13041
1659443417.561733,13099
1659443417.603208,13149
1659443417.644683,13211
1659443417.683598,13259
1659443417.722513,13303
1659443417.761428,13221
1659443417.803927,12974
1659443417.846426,12784
1659443417.885341,12745
1659443417.924256,12784
1659443417.96317,12868
1659443418.007547,12967
1659443418.051924,13049
1659443418.0963,13097
1659443418.135556,13140
1659443418.174812,13175
1659443418.214068,13223
1659443418.255543,13276
1659443418.297019,13331
1659443418.335251,13364
1659443418.373483,13421
1659443418.411715,13447
1659443418.450971,13419
1659443418.490227,13239
1659443418.529483,13017
1659443418.569934,12948
1659443418.610385,12988
1659443418.649641,13051
1659443418.688898,13138
1659443418.728154,13222
1659443418.770141,13271
1659443418.812128,13309
1659443418.85036,13333
1659443418.888592,13364
1659443418.926824,13411
1659443418.968299,13462
1659443419.009774,13505
1659443419.049372,13542
1659443419.088969,13576
1659443419.128567,13595
1659443419.170042,13503
1659443419.211517,13304
1659443419.249749,13153
1659443419.287981,13159
1659443419.326213,13201
1659443419.370931,13279
1659443419.415649,13359
1659443419.460367,13411
1659443419.50133,13446
1659443419.542293,13467
1659443419.580866,13497
1659443419.61944,13534
1659443419.658013,13573
1659443419.696928,13614
1659443419.735843,13636
1659443419.774757,13677
1659443419.816232,13690
1659443419.857708,13588
1659443419.896281,13393
1659443419.934855,13280
1659443419.973428,13281
1659443420.012684,13348
1659443420.05194,13420
1659443420.091196,13484
1659443420.133183,13541
1659443420.17517,13553
1659443420.213744,13578
1659443420.252317,13608
1659443420.290891,13656
1659443420.332878,13687
1659443420.374865,13721
1659443420.413438,13757
1659443420.452012,13791
1659443420.490585,13793
1659443420.532572,13680
1659443420.574559,13496
1659443420.613474,13383
1659443420.652389,13385
1659443420.691304,13423
1659443420.732779,13484
1659443420.774254,13562
1659443420.812827,13598
1659443420.851401,13633
1659443420.889974,13656
1659443420.934692,13689
1659443420.97941,13715
1659443421.024128,13759
1659443421.066115,13793
1659443421.108102,13817
1659443421.146675,13845
1659443421.185249,13862
1659443421.223822,13769
1659443421.262737,13553
1659443421.301652,13399
1659443421.340567,13345
1659443421.382554,13383
1659443421.424541,13416
1659443421.463114,13451
1659443421.501688,13483
1659443421.540261,13496
1659443421.582248,13492
1659443421.624235,13525
1659443421.66315,13558
1659443421.702065,13577
1659443421.74098,13599
1659443421.779553,13640
1659443421.818127,13690
1659443421.8567,13721
1659443421.897663,13643
1659443421.938626,13380
1659443421.978224,13161
1659443422.017821,13126
1659443422.057419,13129
1659443422.098894,13148
1659443422.140369,13203
1659443422.178601,13256
1659443422.216833,13294
1659443422.255065,13315
1659443422.297052,13370
1659443422.339039,13434
1659443422.383757,13488
1659443422.428475,13542
1659443422.473193,13586
1659443422.506475,13628
1659443422.539758,13661
1659443422.583793,13692
1659443422.627828,13563
1659443422.671863,13328
1659443422.710437,13175
1659443422.74901,13149
1659443422.787584,13181
1659443422.828034,13253
1659443422.868485,13339
1659443422.907742,13404
1659443422.946998,13451
1659443422.986254,13477
1659443423.025169,13523
1659443423.064084,13568
1659443423.102998,13604
1659443423.143961,13646
1659443423.184924,13688
1659443423.22418,13716
1659443423.263437,13759
1659443423.302693,13768
1659443423.341608,13663
1659443423.380522,13459
1659443423.419437,13325
1659443423.460912,13322
1659443423.502387,13355
1659443423.541985,13420
1659443423.581582,13496
1659443423.62118,13553
1659443423.662655,13576
1659443423.70413,13600
1659443423.748165,13636
1659443423.7922,13672
1659443423.836236,13731
1659443423.87515,13776
1659443423.914065,13822
1659443423.95298,13857
1659443423.995479,13884
1659443424.037978,13881
1659443424.07621,13778
1659443424.114442,13667
1659443424.152674,13660
1659443424.191589,13702
1659443424.230504,13758
1659443424.269419,13823
1659443424.311406,13890
1659443424.353393,13930
1659443424.391625,13957
1659443424.429857,13966
1659443424.468089,13997
1659443424.510588,14024
1659443424.553087,14057
1659443424.592344,14072
1659443424.6316,14108
1659443424.670856,14145
1659443424.709429,14164
1659443424.748003,14166
1659443424.786576,14066
1659443424.827539,13966
1659443424.868502,13925
1659443424.9081,13970
1659443424.947697,14013
1659443424.987295,14060
1659443425.027746,14117
1659443425.068197,14125
1659443425.10677,14128
1659443425.145344,14108
1659443425.183917,14090
1659443425.225392,14063
1659443425.266867,14034
1659443425.311244,13933
1659443425.35562,13526
1659443425.399997,12514
