LocalTimestamp,PG
1659434128.429456,10940
1659434128.474221,10980
1659434128.518986,11022
1659434128.563751,11115
1659434128.597581,11198
1659434128.631411,11252
1659434128.675493,11289
1659434128.719574,11336
1659434128.763656,11358
1659434128.802953,11358
1659434128.842251,11357
1659434128.881549,11364
1659434128.922042,11390
1659434128.962536,11418
1659434129.000808,11435
1659434129.039081,11449
1659434129.077353,11451
1659434129.119897,11447
1659434129.162441,11457
1659434129.201397,11454
1659434129.240353,11479
1659434129.279309,11503
1659434129.317923,11516
1659434129.356537,11524
1659434129.395152,11545
1659434129.437696,11552
1659434129.480239,11517
1659434129.519195,11483
1659434129.558151,11451
1659434129.597107,11442
1659434129.638626,11429
1659434129.680145,11422
1659434129.719784,11405
1659434129.759423,11418
1659434129.799062,11417
1659434129.840069,11431
1659434129.881075,11430
1659434129.919006,11425
1659434129.956936,11436
1659434129.994867,11446
1659434130.037411,11443
1659434130.079955,11451
1659434130.118911,11454
1659434130.157867,11466
1659434130.196823,11468
1659434130.240563,11451
1659434130.284303,11415
1659434130.328043,11381
1659434130.369049,11349
1659434130.410055,11330
1659434130.449694,11310
1659434130.489334,11319
1659434130.528973,11318
1659434130.567245,11307
1659434130.605518,11304
1659434130.64379,11297
1659434130.686334,11310
1659434130.728878,11312
1659434130.766296,11323
1659434130.803715,11322
1659434130.841133,11331
1659434130.878551,11341
1659434130.922974,11358
1659434130.967398,11369
1659434131.011821,11370
1659434131.044626,11356
1659434131.077431,11336
1659434131.121513,11328
1659434131.165594,11316
1659434131.209676,11300
1659434131.247948,11313
1659434131.286221,11313
1659434131.324493,11322
1659434131.366525,11317
1659434131.408556,11320
1659434131.446828,11319
1659434131.485101,11342
1659434131.523373,11350
1659434131.561988,11372
1659434131.600602,11390
1659434131.639216,11410
1659434131.681247,11421
1659434131.723279,11437
1659434131.762234,11448
1659434131.80119,11441
1659434131.840146,11415
1659434131.882178,11354
1659434131.924209,11313
1659434131.963507,11281
1659434132.002804,11255
1659434132.042102,11239
1659434132.083108,11223
1659434132.124114,11213
1659434132.16307,11207
1659434132.202026,11205
1659434132.240982,11188
1659434132.283013,11196
1659434132.325045,11197
1659434132.364342,11199
1659434132.40364,11209
1659434132.442937,11206
1659434132.483944,11210
1659434132.52495,11229
1659434132.569373,11222
1659434132.613797,11227
1659434132.65822,11231
1659434132.697176,11205
1659434132.736132,11154
1659434132.775088,11114
1659434132.817632,11079
1659434132.860176,11060
1659434132.89879,11046
1659434132.937404,11041
1659434132.976018,11041
1659434133.017537,11030
1659434133.059056,11023
1659434133.098011,11014
1659434133.136967,11029
1659434133.175923,11022
1659434133.215221,11039
1659434133.254519,11044
1659434133.293816,11049
1659434133.334822,11051
1659434133.375829,11052
1659434133.414784,11070
1659434133.45374,11086
1659434133.492696,11068
1659434133.530627,11037
1659434133.568558,11001
1659434133.606488,10968
1659434133.649545,10955
1659434133.692601,10937
1659434133.730874,10931
1659434133.769146,10925
1659434133.807419,10941
1659434133.848425,10933
1659434133.889431,10933
1659434133.93095,10942
1659434133.972469,10946
1659434134.012108,10969
1659434134.051748,10970
1659434134.091387,11004
1659434134.135468,11009
1659434134.17955,11032
1659434134.223632,11049
1659434134.256949,11079
1659434134.290267,11111
1659434134.33469,11124
1659434134.379114,11144
1659434134.423537,11131
1659434134.461468,11112
1659434134.499398,11116
1659434134.537329,11125
1659434134.579361,11132
1659434134.621392,11144
1659434134.660348,11160
1659434134.699304,11188
1659434134.73826,11199
1659434134.778753,11222
1659434134.819247,11238
1659434134.858203,11261
1659434134.897159,11281
1659434134.936115,11301
1659434134.97507,11320
1659434135.014026,11350
1659434135.052982,11365
1659434135.091596,11394
1659434135.130211,11419
1659434135.168825,11440
1659434135.211369,11474
1659434135.253913,11472
1659434135.29321,11475
1659434135.332508,11482
1659434135.371805,11488
1659434135.412299,11496
1659434135.452793,11515
1659434135.497216,11531
1659434135.54164,11553
1659434135.586063,11576
1659434135.620406,11590
1659434135.654748,11611
1659434135.69883,11622
1659434135.742912,11628
1659434135.786993,11648
1659434135.819286,11671
1659434135.851578,11691
1659434135.896685,11712
1659434135.941792,11735
1659434135.986898,11739
1659434136.024317,11773
1659434136.061735,11779
1659434136.099153,11787
1659434136.136571,11801
1659434136.181336,11791
1659434136.226101,11797
1659434136.270866,11806
1659434136.309822,11819
1659434136.348778,11815
1659434136.387734,11835
1659434136.429253,11833
1659434136.470772,11846
1659434136.509727,11853
1659434136.548683,11864
1659434136.587639,11881
1659434136.628646,11887
1659434136.669652,11899
1659434136.707924,11908
1659434136.746197,11927
1659434136.784469,11932
1659434136.823083,11932
1659434136.861697,11956
1659434136.900312,11957
1659434136.942856,11954
1659434136.985399,11950
1659434137.023672,11953
1659434137.061944,11950
1659434137.100217,11948
1659434137.138831,11951
1659434137.177445,11951
1659434137.216059,11962
1659434137.257578,11965
1659434137.299097,11969
1659434137.338736,11966
1659434137.378376,11967
1659434137.418015,11977
1659434137.459021,11978
1659434137.500027,11980
1659434137.539325,11988
1659434137.578623,11996
1659434137.61792,12000
1659434137.658926,12014
1659434137.699933,12002
1659434137.743673,11990
1659434137.787412,11976
1659434137.831152,11973
1659434137.864983,11962
1659434137.898813,11952
1659434137.943236,11952
1659434137.987659,11944
1659434138.032083,11946
1659434138.070355,11934
1659434138.108628,11934
1659434138.1469,11942
1659434138.188931,11941
1659434138.230963,11937
1659434138.270602,11947
1659434138.310241,11941
1659434138.349881,11949
1659434138.390887,11946
1659434138.431893,11944
1659434138.471191,11934
1659434138.510489,11905
1659434138.549786,11882
1659434138.589426,11853
1659434138.629065,11842
1659434138.668704,11825
1659434138.710223,11810
1659434138.751742,11794
1659434138.790698,11781
1659434138.829654,11776
1659434138.868609,11756
1659434138.906882,11746
1659434138.945154,11743
1659434138.983427,11736
1659434139.02392,11739
1659434139.064414,11741
1659434139.106445,11736
1659434139.148477,11732
1659434139.187774,11723
1659434139.227072,11684
1659434139.26637,11654
1659434139.310451,11610
1659434139.354533,11584
1659434139.398615,11564
1659434139.431932,11543
1659434139.46525,11539
1659434139.510015,11511
1659434139.55478,11511
1659434139.599545,11491
1659434139.63235,11488
1659434139.665155,11468
1659434139.709578,11469
1659434139.754002,11464
1659434139.798425,11467
1659434139.837723,11458
1659434139.87702,11459
1659434139.916318,11439
1659434139.956811,11405
1659434139.997305,11357
1659434140.035919,11304
1659434140.074533,11265
1659434140.113147,11233
1659434140.155692,11216
1659434140.198236,11198
1659434140.236508,11169
1659434140.27478,11158
1659434140.313053,11140
1659434140.351325,11140
1659434140.389598,11126
1659434140.42787,11120
1659434140.469902,11112
1659434140.511933,11111
1659434140.550205,11106
1659434140.588478,11115
1659434140.62675,11108
1659434140.668782,11092
1659434140.710813,11052
1659434140.750111,10999
1659434140.789408,10934
1659434140.828706,10895
1659434140.870225,10854
1659434140.911743,10832
1659434140.950016,10793
1659434140.988288,10783
1659434141.026561,10770
1659434141.069105,10763
1659434141.111649,10750
1659434141.150263,10739
1659434141.188877,10746
1659434141.227491,10750
1659434141.270753,10768
1659434141.314014,10768
1659434141.357276,10764
1659434141.400537,10783
1659434141.443799,10796
1659434141.483096,10799
1659434141.522394,10811
1659434141.561692,10783
1659434141.60321,10718
1659434141.644729,10662
1659434141.684027,10604
1659434141.723325,10563
1659434141.762622,10531
1659434141.801578,10516
1659434141.840534,10519
1659434141.87949,10515
1659434141.921009,10500
1659434141.962527,10496
1659434142.001825,10493
1659434142.041122,10491
1659434142.08042,10501
1659434142.121939,10514
1659434142.163458,10518
1659434142.20173,10531
1659434142.240003,10543
1659434142.278275,10555
1659434142.316889,10562
1659434142.355503,10584
1659434142.394118,10587
1659434142.436661,10577
1659434142.479205,10521
1659434142.51782,10452
1659434142.556434,10407
1659434142.595048,10367
1659434142.636567,10346
1659434142.678086,10332
1659434142.722851,10331
1659434142.767616,10337
1659434142.812381,10340
1659434142.846211,10343
1659434142.880041,10348
1659434142.924123,10367
1659434142.968204,10387
1659434143.012286,10394
1659434143.045604,10421
1659434143.078921,10440
1659434143.123003,10458
1659434143.167084,10479
1659434143.211166,10495
1659434143.249439,10504
1659434143.287711,10534
1659434143.325984,10543
1659434143.368015,10540
1659434143.410046,10514
1659434143.449002,10462
1659434143.487958,10440
1659434143.526914,10422
1659434143.564845,10412
1659434143.602775,10395
1659434143.640706,10402
1659434143.682225,10402
1659434143.723744,10394
1659434143.763041,10406
1659434143.802339,10412
1659434143.841637,10421
1659434143.883155,10417
1659434143.924674,10433
1659434143.963972,10442
1659434144.003269,10451
1659434144.042567,10464
1659434144.081523,10472
1659434144.120479,10478
1659434144.159435,10492
1659434144.200441,10517
1659434144.241447,10524
1659434144.283991,10530
1659434144.326535,10501
1659434144.365491,10463
1659434144.404447,10430
1659434144.443403,10411
1659434144.487484,10400
1659434144.531566,10387
1659434144.575648,10391
1659434144.608453,10386
1659434144.641258,10387
1659434144.685681,10389
1659434144.730104,10399
1659434144.774528,10401
1659434144.807333,10417
1659434144.840137,10423
1659434144.884561,10444
1659434144.928984,10463
1659434144.973408,10471
1659434145.013047,10495
1659434145.052686,10502
1659434145.092326,10517
1659434145.133844,10512
1659434145.175363,10527
1659434145.214319,10538
1659434145.253275,10528
1659434145.292231,10493
1659434145.334775,10448
1659434145.377319,10423
1659434145.415591,10394
1659434145.453864,10378
1659434145.492136,10367
1659434145.530409,10356
1659434145.568681,10340
1659434145.606954,10326
1659434145.648472,10321
1659434145.689991,10321
1659434145.728947,10332
1659434145.767903,10330
1659434145.806859,10340
1659434145.847865,10341
1659434145.888871,10344
1659434145.928169,10353
1659434145.967466,10350
1659434146.006764,10363
1659434146.050846,10362
1659434146.094927,10380
1659434146.139009,10378
1659434146.172327,10385
1659434146.205644,10366
1659434146.250409,10322
1659434146.295174,10269
1659434146.339939,10239
1659434146.378212,10215
1659434146.416484,10202
1659434146.454757,10202
1659434146.495763,10198
1659434146.536769,10197
1659434146.576955,10188
1659434146.617141,10184
1659434146.657327,10194
1659434146.697514,10199
1659434146.7377,10212
1659434146.778193,10209
1659434146.818687,10225
1659434146.857301,10245
1659434146.895915,10253
1659434146.934529,10259
1659434146.976048,10256
1659434147.017567,10266
1659434147.056523,10265
1659434147.095479,10271
1659434147.134434,10249
1659434147.17339,10219
1659434147.212346,10180
1659434147.251302,10153
1659434147.292821,10138
1659434147.33434,10127
1659434147.373637,10131
1659434147.412935,10122
1659434147.452233,10127
1659434147.493752,10121
1659434147.53527,10119
1659434147.574568,10121
1659434147.613865,10133
1659434147.653163,10138
1659434147.691777,10145
1659434147.730392,10160
1659434147.769006,10166
1659434147.810012,10190
1659434147.851018,10189
1659434147.895441,10189
1659434147.939865,10217
1659434147.984288,10222
1659434148.022561,10230
1659434148.060833,10214
1659434148.099106,10185
1659434148.141137,10140
1659434148.183168,10118
1659434148.222466,10106
1659434148.261763,10098
1659434148.301061,10107
1659434148.340017,10101
1659434148.378973,10092
1659434148.417929,10085
1659434148.459447,10081
1659434148.500966,10081
1659434148.540264,10090
1659434148.579561,10102
1659434148.618859,10109
1659434148.66089,10132
1659434148.702922,10136
1659434148.740853,10144
1659434148.778783,10164
1659434148.816714,10172
1659434148.85567,10186
1659434148.894626,10205
1659434148.933582,10211
1659434148.974075,10183
1659434149.014569,10146
1659434149.053183,10102
1659434149.091797,10096
1659434149.130411,10061
1659434149.17193,10052
1659434149.213449,10062
1659434149.258214,10056
1659434149.302979,10057
1659434149.347744,10051
1659434149.380037,10056
1659434149.412329,10066
1659434149.456753,10081
1659434149.501176,10083
1659434149.545599,10089
1659434149.579429,10105
1659434149.61326,10111
1659434149.657683,10120
1659434149.702106,10118
1659434149.74653,10133
1659434149.785144,10140
1659434149.823758,10165
1659434149.862372,10157
1659434149.903891,10125
1659434149.94541,10085
1659434149.984024,10052
1659434150.022638,10022
1659434150.061252,10009
1659434150.100208,10006
1659434150.139164,10002
1659434150.17812,10015
1659434150.219126,10022
1659434150.260132,10025
1659434150.298405,10043
1659434150.336677,10040
1659434150.37495,10058
1659434150.417494,10076
1659434150.460037,10076
1659434150.498993,10086
1659434150.537949,10093
1659434150.576905,10110
1659434150.61552,10117
1659434150.654134,10131
1659434150.692748,10130
1659434150.734267,10151
1659434150.775785,10121
1659434150.818329,10074
1659434150.860873,10051
1659434150.899829,10030
1659434150.938785,10016
1659434150.977741,10005
1659434151.018747,10008
1659434151.059753,10019
1659434151.098709,10027
1659434151.137665,10028
1659434151.176621,10022
1659434151.220703,10031
1659434151.264784,10031
1659434151.308866,10047
1659434151.342696,10048
1659434151.376526,10069
1659434151.42095,10068
1659434151.465373,10093
1659434151.509796,10108
1659434151.54841,10114
1659434151.587025,10138
1659434151.625639,10140
1659434151.667158,10132
1659434151.708676,10105
1659434151.747974,10065
1659434151.787272,10046
1659434151.826569,10036
1659434151.868344,10033
1659434151.910119,10034
1659434151.951895,10047
1659434151.99367,10044
1659434152.026987,10047
1659434152.060305,10040
1659434152.104386,10040
1659434152.148468,10056
1659434152.19255,10062
1659434152.229199,10062
1659434152.265848,10075
1659434152.302497,10088
1659434152.339147,10091
1659434152.383229,10109
1659434152.42731,10109
1659434152.471392,10111
1659434152.505222,10125
1659434152.539052,10124
1659434152.583134,10085
1659434152.627215,10046
1659434152.671297,10017
1659434152.710253,9996
1659434152.749209,9998
1659434152.788165,9973
1659434152.829684,9973
1659434152.871202,9976
1659434152.9105,9967
1659434152.949797,9966
1659434152.989095,9958
1659434153.028051,9960
1659434153.067007,9958
1659434153.105963,9967
1659434153.147481,9976
1659434153.189,9987
1659434153.227273,9995
1659434153.265545,10009
1659434153.303818,10016
1659434153.345849,10019
1659434153.38788,10029
1659434153.427178,10026
1659434153.466476,10016
1659434153.505773,9977
1659434153.544046,9931
1659434153.582318,9915
1659434153.620591,9894
1659434153.661597,9879
1659434153.702603,9871
1659434153.748052,9863
1659434153.7935,9872
1659434153.838949,9865
1659434153.871754,9853
1659434153.904559,9872
1659434153.948982,9877
1659434153.993405,9889
1659434154.037829,9913
1659434154.071659,9924
1659434154.105489,9934
1659434154.150254,9947
1659434154.195019,9961
1659434154.239784,9978
1659434154.278057,9987
1659434154.316329,10016
1659434154.354602,10013
1659434154.397658,9985
1659434154.440715,9944
1659434154.479329,9915
1659434154.517943,9904
1659434154.556557,9893
1659434154.595171,9888
1659434154.633785,9884
1659434154.6724,9886
1659434154.713918,9871
1659434154.755437,9869
1659434154.794051,9870
1659434154.832666,9879
1659434154.87128,9890
1659434154.912799,9887
1659434154.954317,9899
1659434154.993615,9903
1659434155.032912,9908
1659434155.07221,9917
1659434155.113729,9918
1659434155.155248,9923
1659434155.193862,9920
1659434155.232476,9919
1659434155.27109,9879
1659434155.313122,9849
1659434155.355153,9814
1659434155.393767,9784
1659434155.432381,9784
1659434155.470995,9792
1659434155.514735,9793
1659434155.558475,9809
1659434155.602215,9811
1659434155.63502,9812
1659434155.667825,9826
1659434155.712249,9818
1659434155.756672,9821
1659434155.801095,9841
1659434155.842614,9838
1659434155.884133,9860
1659434155.923431,9863
1659434155.962728,9871
1659434156.002026,9884
1659434156.040982,9901
1659434156.079938,9912
1659434156.118893,9908
1659434156.1599,9881
1659434156.200906,9832
1659434156.240545,9796
1659434156.280185,9764
1659434156.319824,9752
1659434156.361343,9736
1659434156.402861,9747
1659434156.441817,9745
1659434156.480773,9749
1659434156.519729,9749
1659434156.558002,9750
1659434156.596274,9774
1659434156.634547,9766
1659434156.67709,9772
1659434156.719634,9787
1659434156.75859,9788
1659434156.797546,9796
1659434156.836502,9805
1659434156.876996,9816
1659434156.917489,9824
1659434156.956445,9832
1659434156.995401,9827
1659434157.034357,9830
1659434157.074748,9813
1659434157.115139,9761
1659434157.15553,9721
1659434157.195921,9689
1659434157.236312,9685
1659434157.277831,9662
1659434157.31935,9673
1659434157.364115,9675
1659434157.40888,9661
1659434157.453645,9666
1659434157.487475,9661
1659434157.521306,9656
1659434157.566071,9664
1659434157.610836,9677
1659434157.655601,9679
1659434157.694557,9690
1659434157.733513,9702
1659434157.772469,9721
1659434157.812962,9742
1659434157.853456,9769
1659434157.89207,9787
1659434157.930684,9805
1659434157.969298,9820
1659434158.007913,9820
1659434158.046527,9785
1659434158.085141,9752
1659434158.12666,9749
1659434158.168179,9738
1659434158.206793,9750
1659434158.245407,9761
1659434158.284021,9765
1659434158.326052,9777
1659434158.368084,9775
1659434158.406698,9788
1659434158.445312,9797
1659434158.483926,9803
1659434158.522882,9814
1659434158.561838,9829
1659434158.600794,9853
1659434158.643338,9860
1659434158.685882,9879
1659434158.726375,9902
1659434158.766869,9904
1659434158.805141,9912
1659434158.843414,9925
1659434158.881686,9935
1659434158.92611,9931
1659434158.970533,9887
1659434159.014956,9843
1659434159.048274,9817
1659434159.081592,9797
1659434159.125332,9785
1659434159.169071,9776
1659434159.212811,9786
1659434159.246642,9791
1659434159.280472,9807
1659434159.324895,9809
1659434159.369318,9820
1659434159.413742,9832
1659434159.452014,9842
1659434159.490287,9857
1659434159.528559,9870
1659434159.56854,9879
1659434159.608521,9887
1659434159.648502,9906
1659434159.689508,9923
1659434159.730515,9942
1659434159.769129,9959
1659434159.807743,9973
1659434159.846357,9962
1659434159.885313,9928
1659434159.924269,9884
1659434159.963225,9856
1659434160.005256,9856
1659434160.047288,9849
1659434160.085902,9846
1659434160.124516,9871
1659434160.16313,9859
1659434160.204649,9872
1659434160.246168,9869
1659434160.290591,9877
1659434160.335015,9896
1659434160.379438,9903
1659434160.412755,9914
1659434160.446073,9916
1659434160.49118,9929
1659434160.536287,9937
1659434160.581393,9955
1659434160.620008,9947
1659434160.658622,9950
1659434160.697236,9955
1659434160.738242,9966
1659434160.779248,9967
1659434160.818546,9949
1659434160.857844,9895
1659434160.897141,9845
1659434160.939173,9823
1659434160.981204,9803
1659434161.019476,9791
1659434161.057749,9786
1659434161.096021,9789
1659434161.134635,9787
1659434161.17325,9790
1659434161.211864,9780
1659434161.25287,9779
1659434161.293876,9797
1659434161.332149,9808
1659434161.370421,9823
1659434161.408694,9840
1659434161.447649,9849
1659434161.486605,9850
1659434161.525561,9852
1659434161.567593,9859
1659434161.609624,9873
1659434161.651143,9866
1659434161.692662,9875
1659434161.731617,9864
1659434161.770573,9828
1659434161.809529,9783
1659434161.853953,9749
1659434161.898376,9730
1659434161.942799,9711
1659434161.976629,9711
1659434162.01046,9714
1659434162.054199,9735
1659434162.097939,9756
1659434162.14168,9765
1659434162.173972,9767
1659434162.206264,9791
1659434162.246245,9796
1659434162.286226,9793
1659434162.326207,9807
1659434162.366188,9810
1659434162.406169,9820
1659434162.446151,9814
1659434162.486131,9832
1659434162.529188,9828
1659434162.572245,9849
1659434162.610859,9854
1659434162.649473,9854
1659434162.688087,9839
1659434162.729606,9797
1659434162.771125,9771
1659434162.810764,9745
1659434162.850403,9735
1659434162.890043,9725
1659434162.932074,9756
1659434162.974105,9768
1659434163.01272,9770
1659434163.051334,9780
1659434163.089948,9783
1659434163.135055,9795
1659434163.180161,9785
1659434163.225268,9789
1659434163.263541,9800
1659434163.301813,9811
1659434163.340086,9831
1659434163.381092,9849
1659434163.422098,9876
1659434163.461396,9903
1659434163.500693,9942
1659434163.539991,9970
1659434163.577922,9986
1659434163.615852,9993
1659434163.653783,9960
1659434163.695302,9936
1659434163.736821,9922
1659434163.776118,9926
1659434163.815416,9923
1659434163.854713,9928
1659434163.896232,9938
1659434163.937751,9946
1659434163.976707,9960
1659434164.015663,9965
1659434164.054619,9969
1659434164.09665,9973
1659434164.138681,9982
1659434164.177637,9986
1659434164.216593,10010
1659434164.255549,10019
1659434164.296043,10033
1659434164.336536,10061
1659434164.375492,10074
1659434164.414448,10093
1659434164.453404,10112
1659434164.497486,10118
1659434164.541567,10120
1659434164.585649,10084
1659434164.627168,10044
1659434164.668687,10018
1659434164.707643,10010
1659434164.746598,9997
1659434164.785554,10006
1659434164.827073,10005
1659434164.868592,10000
1659434164.906864,9994
1659434164.945137,9981
1659434164.983409,9978
1659434165.023049,9978
1659434165.062688,9993
1659434165.102327,9999
1659434165.143846,10023
1659434165.185365,10022
1659434165.223979,10019
1659434165.262593,10027
1659434165.301207,10026
1659434165.339822,10035
1659434165.378436,10050
1659434165.41705,10049
1659434165.459081,10034
1659434165.501112,9995
1659434165.539385,9949
1659434165.577657,9921
1659434165.61593,9901
1659434165.657449,9885
1659434165.698967,9881
1659434165.737582,9862
1659434165.776196,9859
1659434165.81481,9850
1659434165.857354,9851
1659434165.899898,9849
1659434165.938854,9840
1659434165.97781,9850
1659434166.016766,9851
1659434166.058797,9869
1659434166.100828,9868
1659434166.145252,9866
1659434166.189675,9880
1659434166.234098,9887
1659434166.267929,9896
1659434166.301759,9897
1659434166.346865,9907
1659434166.391972,9890
1659434166.437079,9865
1659434166.476035,9816
1659434166.514991,9781
1659434166.553947,9757
1659434166.59444,9748
1659434166.634934,9740
1659434166.67389,9732
1659434166.712846,9720
1659434166.751802,9715
1659434166.790416,9705
1659434166.82903,9709
1659434166.867644,9718
1659434166.909676,9728
1659434166.951707,9724
1659434166.990321,9728
1659434167.028935,9740
1659434167.067549,9747
1659434167.109581,9752
1659434167.151612,9750
1659434167.190226,9747
1659434167.228841,9752
1659434167.267455,9742
1659434167.306752,9753
1659434167.34605,9764
1659434167.385348,9742
1659434167.427379,9700
1659434167.46941,9667
1659434167.510587,9642
1659434167.551764,9627
1659434167.592942,9615
1659434167.634119,9608
1659434167.675296,9602
1659434167.716473,9604
1659434167.755429,9594
1659434167.794384,9583
1659434167.83334,9594
1659434167.873834,9596
1659434167.914328,9605
1659434167.953284,9632
1659434167.992239,9645
1659434168.031195,9668
1659434168.069809,9678
1659434168.108423,9696
1659434168.147038,9718
1659434168.188044,9732
1659434168.22905,9743
1659434168.268348,9749
1659434168.307645,9767
1659434168.346943,9767
1659434168.389487,9776
1659434168.432031,9734
1659434168.470303,9697
1659434168.508576,9685
1659434168.546848,9686
1659434168.58888,9676
1659434168.630911,9671
1659434168.669525,9678
1659434168.708139,9670
1659434168.746753,9691
1659434168.790835,9674
1659434168.834917,9663
1659434168.878999,9676
1659434168.92103,9678
1659434168.963061,9692
1659434169.002359,9703
1659434169.041656,9715
1659434169.080954,9726
1659434169.118885,9721
1659434169.156816,9719
1659434169.194746,9716
1659434169.236778,9745
1659434169.278809,9749
1659434169.318107,9762
1659434169.357404,9732
1659434169.396702,9696
1659434169.438733,9673
1659434169.480764,9671
1659434169.51972,9667
1659434169.558676,9678
1659434169.597632,9696
1659434169.636588,9695
1659434169.675544,9702
1659434169.7145,9685
1659434169.754993,9689
1659434169.795487,9699
1659434169.834101,9699
1659434169.872715,9709
1659434169.91133,9706
1659434169.953874,9711
1659434169.996418,9711
1659434170.03469,9730
1659434170.072962,9722
1659434170.111235,9732
1659434170.152241,9738
1659434170.193247,9738
1659434170.232203,9749
1659434170.271159,9740
1659434170.310115,9749
1659434170.351634,9730
1659434170.393152,9686
1659434170.437576,9644
1659434170.481999,9600
1659434170.526423,9590
1659434170.565378,9568
1659434170.604334,9553
1659434170.64329,9541
1659434170.684809,9540
1659434170.726328,9534
1659434170.764942,9532
1659434170.803556,9527
1659434170.84217,9520
1659434170.884714,9532
1659434170.927258,9522
1659434170.965531,9534
1659434171.003803,9517
1659434171.042076,9508
1659434171.080348,9504
1659434171.118621,9499
1659434171.156893,9486
1659434171.197899,9485
1659434171.238905,9484
1659434171.277861,9483
1659434171.316817,9478
1659434171.355773,9449
1659434171.394387,9417
1659434171.433002,9381
1659434171.471616,9338
1659434171.513134,9312
1659434171.554653,9295
1659434171.593951,9280
1659434171.633248,9275
1659434171.672546,9278
1659434171.714577,9266
1659434171.756609,9255
1659434171.801032,9255
1659434171.845455,9237
1659434171.889879,9237
1659434171.923709,9228
1659434171.957539,9223
1659434172.001279,9210
1659434172.045019,9219
1659434172.088759,9219
1659434172.122589,9216
1659434172.156419,9231
1659434172.200843,9229
1659434172.245266,9238
1659434172.289689,9217
1659434172.328304,9227
1659434172.366918,9235
1659434172.405532,9245
1659434172.446538,9251
1659434172.487544,9233
1659434172.526842,9200
1659434172.566139,9182
1659434172.605437,9181
1659434172.647468,9177
1659434172.6895,9166
1659434172.728456,9171
1659434172.767411,9175
1659434172.806367,9167
1659434172.848143,9159
1659434172.889918,9156
1659434172.931693,9154
1659434172.973468,9176
1659434173.012424,9176
1659434173.051379,9182
1659434173.090335,9180
1659434173.131342,9177
1659434173.172348,9187
1659434173.211304,9197
1659434173.25026,9197
1659434173.289216,9205
1659434173.327146,9211
1659434173.365077,9217
1659434173.403008,9227
1659434173.445039,9236
1659434173.48707,9240
1659434173.526368,9256
1659434173.565666,9262
1659434173.604963,9234
1659434173.645457,9214
1659434173.685951,9200
1659434173.724906,9198
1659434173.763862,9212
1659434173.802818,9216
1659434173.841774,9227
1659434173.88073,9243
1659434173.919686,9253
1659434173.961205,9254
1659434174.002723,9252
1659434174.04373,9254
1659434174.084736,9264
1659434174.124033,9269
1659434174.163331,9278
1659434174.202629,9278
1659434174.24671,9280
1659434174.290792,9282
1659434174.334874,9287
1659434174.368191,9286
1659434174.401509,9285
1659434174.446274,9292
1659434174.491039,9310
1659434174.535804,9305
1659434174.568096,9311
1659434174.600389,9287
1659434174.644129,9245
1659434174.687869,9230
1659434174.731609,9210
1659434174.771248,9204
1659434174.810887,9204
1659434174.850527,9217
1659434174.892558,9213
1659434174.934589,9218
1659434174.973545,9208
1659434175.012501,9213
1659434175.051457,9229
1659434175.093488,9227
1659434175.13552,9235
1659434175.174817,9237
1659434175.214115,9251
1659434175.253412,9252
1659434175.291685,9268
1659434175.329957,9273
1659434175.36823,9273
1659434175.410774,9278
1659434175.453318,9281
1659434175.49159,9289
1659434175.529863,9297
1659434175.568135,9300
1659434175.609141,9299
1659434175.650148,9271
1659434175.688762,9225
1659434175.727376,9192
1659434175.76599,9182
1659434175.808534,9172
1659434175.851078,9168
1659434175.890034,9152
1659434175.92899,9156
1659434175.967946,9162
1659434176.009465,9166
1659434176.050983,9163
1659434176.090281,9173
1659434176.129578,9192
1659434176.168876,9212
1659434176.2133,9243
1659434176.257723,9254
1659434176.302146,9243
1659434176.344177,9231
1659434176.386209,9235
1659434176.425165,9242
1659434176.464121,9255
1659434176.503077,9276
1659434176.54357,9296
1659434176.584064,9330
1659434176.622678,9332
1659434176.661292,9356
1659434176.699906,9368
1659434176.739204,9343
1659434176.778502,9332
1659434176.817799,9321
1659434176.859318,9325
1659434176.900837,9329
1659434176.939109,9334
1659434176.977382,9347
1659434177.015654,9341
1659434177.054952,9344
1659434177.094249,9338
1659434177.133547,9340
1659434177.175066,9341
1659434177.216584,9338
1659434177.254857,9340
1659434177.293129,9351
1659434177.331402,9348
1659434177.373433,9351
1659434177.415465,9362
1659434177.454762,9355
1659434177.49406,9370
1659434177.533357,9371
1659434177.574876,9373
1659434177.616395,9370
1659434177.660818,9374
1659434177.705242,9381
1659434177.749665,9390
1659434177.782983,9371
1659434177.8163,9337
1659434177.86004,9311
1659434177.90378,9279
1659434177.94752,9250
1659434177.986476,9235
1659434178.025432,9224
1659434178.064388,9214
1659434178.104574,9211
1659434178.14476,9204
1659434178.184946,9203
1659434178.225132,9209
1659434178.265318,9209
1659434178.306837,9229
1659434178.348356,9227
1659434178.387995,9241
1659434178.427634,9252
1659434178.467274,9265
1659434178.505888,9272
1659434178.544502,9291
1659434178.583116,9298
1659434178.625148,9298
1659434178.667179,9305
1659434178.706476,9300
1659434178.745774,9304
1659434178.785072,9314
1659434178.823003,9327
1659434178.860933,9339
1659434178.898864,9326
1659434178.940383,9278
1659434178.981902,9242
1659434179.024446,9227
1659434179.066989,9213
1659434179.107996,9206
1659434179.149002,9198
1659434179.190008,9205
1659434179.231014,9197
1659434179.273046,9197
1659434179.315077,9198
1659434179.354716,9193
1659434179.394356,9203
1659434179.433995,9210
1659434179.475001,9214
1659434179.516007,9217
1659434179.554963,9215
1659434179.593919,9224
1659434179.632875,9231
1659434179.672173,9239
1659434179.71147,9247
1659434179.750768,9263
1659434179.78904,9256
1659434179.827313,9272
1659434179.865585,9273
1659434179.906079,9282
1659434179.946573,9296
1659434179.985528,9298
1659434180.024484,9302
1659434180.06344,9286
1659434180.104959,9255
1659434180.146478,9217
1659434180.185092,9196
1659434180.223706,9186
1659434180.26232,9172
1659434180.303839,9166
1659434180.345358,9167
1659434180.384314,9160
1659434180.42327,9146
1659434180.462225,9147
1659434180.503744,9147
1659434180.545263,9148
1659434180.590028,9165
1659434180.634793,9160
1659434180.679558,9177
1659434180.718173,9181
1659434180.756787,9187
1659434180.795401,9197
1659434180.83692,9199
1659434180.878438,9202
1659434180.917394,9218
1659434180.95635,9216
1659434180.995306,9219
1659434181.03392,9233
1659434181.072534,9235
1659434181.111149,9248
1659434181.152667,9239
1659434181.194186,9223
1659434181.2328,9189
1659434181.271415,9154
1659434181.310029,9136
1659434181.351035,9122
1659434181.392041,9110
1659434181.430997,9094
1659434181.469953,9105
1659434181.508909,9083
1659434181.547865,9080
1659434181.586821,9087
1659434181.625777,9089
1659434181.668833,9098
1659434181.71189,9110
1659434181.750504,9120
1659434181.789118,9116
1659434181.827732,9133
1659434181.869251,9134
1659434181.910769,9129
1659434181.953313,9139
1659434181.995857,9135
1659434182.034472,9141
1659434182.073086,9136
1659434182.1117,9140
1659434182.155782,9141
1659434182.199863,9154
1659434182.243945,9168
1659434182.277262,9171
1659434182.31058,9150
1659434182.35432,9118
1659434182.39806,9083
1659434182.4418,9058
1659434182.480756,9043
1659434182.519712,9017
1659434182.558667,9016
1659434182.600699,9010
1659434182.64273,9004
1659434182.681686,9002
1659434182.720642,9008
1659434182.759598,9024
1659434182.800604,9030
1659434182.84161,9041
1659434182.880908,9055
1659434182.920206,9064
1659434182.959503,9081
1659434182.998117,9082
1659434183.036731,9075
1659434183.075346,9074
1659434183.115839,9066
1659434183.156333,9066
1659434183.195289,9070
1659434183.234245,9073
1659434183.273201,9056
1659434183.312772,9019
1659434183.352343,9003
1659434183.391914,8989
1659434183.431484,8977
1659434183.471056,8967
1659434183.512574,8964
1659434183.554093,8970
1659434183.595612,8971
1659434183.637131,8961
1659434183.678649,8959
1659434183.720168,8960
1659434183.758782,8958
1659434183.797397,8977
1659434183.836011,8987
1659434183.878555,8987
1659434183.921099,9001
1659434183.959713,9000
1659434183.998327,9012
1659434184.036941,9015
1659434184.075897,9026
1659434184.114853,9013
1659434184.153809,8981
1659434184.196353,8950
1659434184.238897,8930
1659434184.277169,8928
1659434184.315442,8924
1659434184.353714,8935
1659434184.395233,8932
1659434184.436752,8927
1659434184.475366,8921
1659434184.51398,8934
1659434184.552594,8951
1659434184.594625,8955
1659434184.636657,8974
1659434184.674929,8983
1659434184.713202,9000
1659434184.751474,9006
1659434184.793505,9018
1659434184.835537,9025
1659434184.880302,9028
1659434184.925067,9042
1659434184.969832,9041
1659434185.008446,9021
1659434185.04706,8993
1659434185.085675,8989
1659434185.128219,8967
1659434185.170763,8961
1659434185.209718,8965
1659434185.248674,8971
1659434185.28763,8987
1659434185.328124,8995
1659434185.368618,9005
1659434185.407573,9021
1659434185.446529,9045
1659434185.485485,9052
1659434185.524783,9063
1659434185.56408,9094
1659434185.603378,9097
1659434185.644384,9124
1659434185.68539,9133
1659434185.723663,9152
1659434185.761935,9164
1659434185.800208,9178
1659434185.839164,9177
1659434185.87812,9148
1659434185.917075,9120
1659434185.959107,9094
1659434186.001138,9089
1659434186.040094,9076
1659434186.07905,9072
1659434186.118006,9063
1659434186.159012,9076
1659434186.200018,9077
1659434186.239316,9084
1659434186.278614,9088
1659434186.317911,9092
1659434186.35943,9111
1659434186.400949,9117
1659434186.445372,9125
1659434186.489795,9129
1659434186.534219,9121
1659434186.567024,9129
1659434186.599829,9131
1659434186.643569,9140
1659434186.687309,9141
1659434186.731049,9130
1659434186.769663,9090
1659434186.808277,9069
1659434186.846891,9061
1659434186.889435,9053
1659434186.931979,9043
1659434186.970252,9045
1659434187.008524,9054
1659434187.046796,9047
1659434187.088315,9054
1659434187.129834,9059
1659434187.169132,9066
1659434187.208429,9085
1659434187.247727,9093
1659434187.286341,9101
1659434187.324955,9116
1659434187.363569,9116
1659434187.405601,9118
1659434187.447632,9125
1659434187.487271,9135
1659434187.526911,9141
1659434187.56655,9143
1659434187.607044,9127
1659434187.647537,9104
1659434187.686493,9067
1659434187.725449,9057
1659434187.764405,9059
1659434187.806949,9044
1659434187.849493,9052
1659434187.890499,9056
1659434187.931505,9055
1659434187.972511,9064
1659434188.013518,9064
1659434188.053157,9074
1659434188.092796,9075
1659434188.132436,9082
1659434188.174467,9095
1659434188.216498,9097
1659434188.254771,9108
1659434188.293043,9114
1659434188.331316,9115
1659434188.370955,9131
1659434188.410594,9128
1659434188.450234,9133
1659434188.492265,9113
1659434188.534296,9074
1659434188.573867,9040
1659434188.613438,9020
1659434188.653009,9019
1659434188.69258,9013
1659434188.732151,9020
1659434188.770424,9029
1659434188.808696,9027
1659434188.846969,9031
1659434188.888487,9035
1659434188.930006,9065
1659434188.96862,9071
1659434189.007235,9088
1659434189.045849,9103
1659434189.090272,9128
1659434189.134696,9135
1659434189.179119,9150
1659434189.211411,9158
1659434189.243704,9176
1659434189.288469,9184
1659434189.333234,9192
1659434189.377999,9188
1659434189.420543,9159
1659434189.463087,9139
1659434189.501359,9124
1659434189.539632,9129
1659434189.577904,9116
1659434189.617202,9118
1659434189.656499,9129
1659434189.695797,9120
1659434189.737316,9123
1659434189.778835,9125
1659434189.817107,9128
1659434189.85538,9131
1659434189.893652,9146
1659434189.932608,9156
1659434189.971564,9155
1659434190.01052,9166
1659434190.053064,9174
1659434190.095608,9189
1659434190.13388,9203
1659434190.172153,9213
1659434190.210425,9217
1659434190.250918,9203
1659434190.291412,9165
1659434190.33071,9152
1659434190.370007,9138
1659434190.409305,9131
1659434190.450824,9124
1659434190.492342,9119
1659434190.531298,9114
1659434190.570254,9125
1659434190.60921,9128
1659434190.651242,9125
1659434190.693273,9151
1659434190.738038,9154
1659434190.782803,9163
1659434190.827568,9170
1659434190.866182,9173
1659434190.904797,9195
1659434190.943411,9198
1659434190.985955,9205
1659434191.028499,9216
1659434191.067113,9220
1659434191.105727,9233
1659434191.144341,9225
1659434191.185347,9205
1659434191.226353,9169
1659434191.265309,9153
1659434191.304265,9151
1659434191.343221,9129
1659434191.382519,9127
1659434191.421816,9132
1659434191.461114,9127
1659434191.50212,9122
1659434191.543126,9123
1659434191.582082,9125
1659434191.621038,9138
1659434191.659994,9135
1659434191.701513,9144
1659434191.743032,9149
1659434191.782329,9147
1659434191.821627,9150
1659434191.860924,9154
1659434191.899539,9177
1659434191.938153,9180
1659434191.976767,9189
1659434192.018286,9182
1659434192.059805,9157
1659434192.100811,9154
1659434192.141817,9146
1659434192.180431,9148
1659434192.219045,9155
1659434192.257659,9175
1659434192.302083,9182
1659434192.346506,9197
1659434192.39093,9212
1659434192.423735,9225
1659434192.45654,9245
1659434192.500963,9272
1659434192.545386,9301
1659434192.58981,9312
1659434192.62364,9331
1659434192.65747,9363
1659434192.701893,9397
1659434192.746317,9425
1659434192.79074,9455
1659434192.829013,9487
1659434192.867285,9513
1659434192.905557,9488
1659434192.947076,9455
1659434192.988595,9447
1659434193.027209,9453
1659434193.065823,9444
1659434193.104438,9452
1659434193.142368,9467
1659434193.180299,9482
1659434193.21823,9478
1659434193.261286,9502
1659434193.304343,9498
1659434193.342957,9492
1659434193.381571,9505
1659434193.420185,9506
1659434193.4588,9513
1659434193.497414,9515
1659434193.536028,9522
1659434193.577547,9522
1659434193.619066,9534
1659434193.661097,9530
1659434193.703128,9511
1659434193.742084,9491
1659434193.78104,9458
1659434193.819996,9436
1659434193.860182,9420
1659434193.900368,9414
1659434193.940554,9414
1659434193.98074,9425
1659434194.020926,9426
1659434194.065008,9430
1659434194.10909,9442
1659434194.153171,9453
1659434194.187514,9465
1659434194.221857,9467
1659434194.26628,9475
1659434194.310703,9489
1659434194.355127,9505
1659434194.393058,9517
1659434194.430988,9534
1659434194.468919,9538
1659434194.510438,9522
1659434194.551956,9497
1659434194.590229,9457
1659434194.628501,9437
1659434194.666774,9445
1659434194.70573,9429
1659434194.744686,9434
1659434194.783642,9434
1659434194.82516,9440
1659434194.866679,9436
1659434194.905977,9467
1659434194.945274,9470
1659434194.984572,9483
1659434195.025578,9490
1659434195.066584,9495
1659434195.105882,9489
1659434195.14518,9489
1659434195.184477,9503
1659434195.226509,9504
1659434195.26854,9513
1659434195.306812,9499
1659434195.345085,9458
1659434195.383357,9427
1659434195.424363,9399
1659434195.46537,9400
1659434195.504326,9388
1659434195.543282,9376
1659434195.582237,9380
1659434195.626319,9385
1659434195.670401,9389
1659434195.714482,9389
1659434195.747287,9403
1659434195.780092,9420
1659434195.824857,9428
1659434195.869622,9437
1659434195.914388,9445
1659434195.955394,9460
1659434195.9964,9474
1659434196.035356,9476
1659434196.074312,9476
1659434196.113268,9481
1659434196.152565,9457
1659434196.191863,9430
1659434196.23116,9390
1659434196.272167,9364
1659434196.313173,9361
1659434196.351787,9356
1659434196.390401,9358
1659434196.429015,9361
1659434196.467971,9358
1659434196.506927,9355
1659434196.545883,9368
1659434196.588427,9375
1659434196.630971,9383
1659434196.669585,9393
1659434196.708199,9406
1659434196.746814,9416
1659434196.78782,9431
1659434196.828826,9443
1659434196.868124,9450
1659434196.907421,9465
1659434196.946719,9469
1659434196.988238,9454
1659434197.029756,9421
1659434197.068712,9382
1659434197.107668,9373
1659434197.146624,9361
1659434197.189168,9348
1659434197.231712,9365
1659434197.275452,9374
1659434197.319192,9371
1659434197.362932,9370
1659434197.396249,9371
1659434197.429567,9389
1659434197.474674,9394
1659434197.51978,9400
1659434197.564887,9409
1659434197.603501,9429
1659434197.642116,9436
1659434197.68073,9450
1659434197.721736,9469
1659434197.762742,9472
1659434197.801698,9473
1659434197.840654,9454
1659434197.87961,9409
1659434197.917882,9377
1659434197.956155,9358
1659434197.994427,9357
1659434198.035946,9355
1659434198.077465,9364
1659434198.117104,9363
1659434198.156744,9363
1659434198.196383,9373
1659434198.237389,9371
1659434198.278395,9385
1659434198.317009,9398
1659434198.355623,9418
1659434198.394238,9429
1659434198.433535,9451
1659434198.472833,9447
1659434198.51213,9452
1659434198.553649,9472
1659434198.595168,9475
1659434198.63344,9482
1659434198.671713,9483
1659434198.709985,9456
1659434198.750992,9413
1659434198.791998,9384
1659434198.83608,9367
1659434198.880161,9361
1659434198.924243,9368
1659434198.95756,9369
1659434198.990878,9374
1659434199.035301,9379
1659434199.079725,9382
1659434199.124148,9391
1659434199.161566,9397
1659434199.198984,9412
1659434199.236403,9423
1659434199.273821,9446
1659434199.313118,9447
1659434199.352416,9464
1659434199.391714,9473
1659434199.436479,9494
1659434199.481244,9503
1659434199.526009,9505
1659434199.567528,9518
1659434199.609046,9496
1659434199.648002,9449
1659434199.686958,9419
1659434199.725914,9402
1659434199.765553,9383
1659434199.805193,9374
1659434199.844832,9396
1659434199.885326,9397
1659434199.925819,9398
1659434199.964775,9411
1659434200.003731,9409
1659434200.042687,9417
1659434200.084206,9426
1659434200.125725,9436
1659434200.165022,9454
1659434200.20432,9484
1659434200.243617,9492
1659434200.28189,9500
1659434200.320162,9515
1659434200.358435,9530
1659434200.399954,9544
1659434200.441472,9559
1659434200.480428,9558
1659434200.519384,9529
1659434200.55834,9496
1659434200.600371,9460
1659434200.642403,9452
1659434200.681359,9455
1659434200.720315,9449
1659434200.75927,9456
1659434200.801302,9470
1659434200.843333,9464
1659434200.881606,9465
1659434200.919878,9468
1659434200.95815,9478
1659434201.000182,9482
1659434201.042213,9499
1659434201.086295,9515
1659434201.130377,9522
1659434201.174458,9528
1659434201.213072,9534
1659434201.251687,9539
1659434201.290301,9553
1659434201.331307,9557
1659434201.372313,9558
1659434201.411269,9541
1659434201.450225,9490
1659434201.489181,9461
1659434201.527795,9449
1659434201.566409,9435
1659434201.605023,9447
1659434201.647055,9439
1659434201.689086,9451
1659434201.728384,9458
1659434201.767681,9464
1659434201.806979,9474
1659434201.847985,9480
1659434201.888991,9500
1659434201.927264,9511
1659434201.965536,9531
1659434202.003808,9537
1659434202.042764,9548
1659434202.08172,9562
1659434202.120676,9569
1659434202.162195,9584
1659434202.203714,9596
1659434202.242328,9608
1659434202.280942,9608
1659434202.319556,9589
1659434202.361075,9535
1659434202.402594,9499
1659434202.447017,9483
1659434202.491441,9471
1659434202.535864,9471
1659434202.568669,9472
1659434202.601474,9477
1659434202.646923,9471
1659434202.692371,9475
1659434202.73782,9492
1659434202.770625,9494
1659434202.80343,9514
1659434202.847853,9526
1659434202.892276,9543
1659434202.9367,9555
1659434202.975997,9566
1659434203.015295,9579
1659434203.054593,9578
1659434203.096624,9589
1659434203.138655,9598
1659434203.176586,9613
1659434203.214517,9612
1659434203.252447,9595
1659434203.291745,9537
1659434203.331043,9488
1659434203.37034,9478
1659434203.411346,9462
1659434203.452353,9459
1659434203.49165,9456
1659434203.530948,9468
1659434203.570246,9464
1659434203.60886,9467
1659434203.647474,9470
1659434203.686088,9472
1659434203.727607,9483
1659434203.769126,9499
1659434203.80774,9510
1659434203.846354,9527
1659434203.884968,9535
1659434203.927512,9545
1659434203.970056,9556
1659434204.011575,9570
1659434204.053094,9577
1659434204.091708,9592
1659434204.130322,9595
1659434204.168936,9569
1659434204.21336,9524
1659434204.257783,9465
1659434204.302206,9451
1659434204.340479,9442
1659434204.378751,9435
1659434204.417024,9441
1659434204.454185,9432
1659434204.491347,9445
1659434204.528509,9442
1659434204.565671,9462
1659434204.609753,9458
1659434204.653834,9465
1659434204.697916,9482
1659434204.738922,9489
1659434204.779928,9501
1659434204.818884,9506
1659434204.85784,9518
1659434204.896796,9520
1659434204.936094,9536
1659434204.975391,9557
1659434205.014689,9557
1659434205.055695,9563
1659434205.096701,9520
1659434205.135657,9479
1659434205.174613,9435
1659434205.213569,9415
1659434205.256113,9404
1659434205.298657,9409
1659434205.337271,9409
1659434205.375885,9415
1659434205.4145,9414
1659434205.452772,9418
1659434205.491044,9429
1659434205.529317,9426
1659434205.570836,9432
1659434205.612355,9446
1659434205.65131,9462
1659434205.690266,9475
1659434205.729222,9481
1659434205.770741,9492
1659434205.81226,9499
1659434205.851557,9525
1659434205.890855,9520
1659434205.930152,9527
1659434205.972184,9519
1659434206.014215,9478
1659434206.052829,9417
1659434206.091444,9383
1659434206.130058,9372
1659434206.172089,9366
1659434206.21412,9365
1659434206.258544,9370
1659434206.302967,9376
1659434206.347391,9383
1659434206.386005,9378
1659434206.424619,9389
1659434206.463233,9392
1659434206.504239,9396
1659434206.545245,9412
1659434206.584201,9429
1659434206.623157,9440
1659434206.662113,9447
1659434206.700386,9465
1659434206.738658,9470
1659434206.776931,9495
1659434206.818962,9503
1659434206.860993,9503
1659434206.900291,9521
1659434206.939589,9477
1659434206.978886,9430
1659434207.019892,9392
1659434207.060899,9386
1659434207.099513,9372
1659434207.138127,9369
1659434207.176741,9380
1659434207.219798,9389
1659434207.262854,9398
1659434207.301468,9396
1659434207.340082,9407
1659434207.378697,9409
1659434207.417652,9433
1659434207.456608,9440
1659434207.495564,9473
1659434207.537083,9469
1659434207.578602,9481
1659434207.622342,9503
1659434207.666082,9508
1659434207.709822,9524
1659434207.742627,9532
1659434207.775432,9547
1659434207.820197,9555
1659434207.864962,9539
1659434207.909727,9493
1659434207.947658,9447
1659434207.985588,9442
1659434208.023519,9438
1659434208.062475,9439
1659434208.101431,9439
1659434208.140387,9449
1659434208.182931,9451
1659434208.225475,9467
1659434208.264089,9472
1659434208.302703,9478
1659434208.341317,9496
1659434208.382323,9511
1659434208.42333,9536
1659434208.462969,9544
1659434208.502608,9551
1659434208.542248,9575
1659434208.58052,9578
1659434208.618793,9586
1659434208.657065,9591
1659434208.699609,9606
1659434208.742153,9622
1659434208.781109,9606
1659434208.820065,9557
1659434208.85902,9511
1659434208.900027,9488
1659434208.941033,9473
1659434208.979305,9460
1659434209.017578,9460
1659434209.05585,9475
1659434209.098394,9475
1659434209.140938,9468
1659434209.185703,9474
1659434209.230468,9481
1659434209.275234,9498
1659434209.308038,9508
1659434209.340843,9523
1659434209.385608,9529
1659434209.430374,9543
1659434209.475139,9553
1659434209.508969,9563
1659434209.542799,9570
1659434209.58688,9582
1659434209.630962,9601
1659434209.675044,9601
1659434209.712718,9577
1659434209.750393,9535
1659434209.788067,9491
1659434209.825742,9481
1659434209.869823,9463
1659434209.913905,9451
1659434209.957987,9463
1659434209.990792,9469
1659434210.023597,9476
1659434210.06802,9467
1659434210.112443,9473
1659434210.156867,9477
1659434210.195139,9491
1659434210.233412,9511
1659434210.271684,9512
1659434210.313715,9526
1659434210.355747,9537
1659434210.395045,9548
1659434210.434342,9560
1659434210.47364,9569
1659434210.514646,9573
1659434210.555652,9587
1659434210.594266,9589
1659434210.63288,9573
1659434210.671495,9534
1659434210.71045,9488
1659434210.749406,9471
1659434210.788362,9453
1659434210.830394,9449
1659434210.872425,9452
1659434210.911039,9463
1659434210.949653,9468
1659434210.988267,9465
1659434211.026882,9470
1659434211.065496,9473
1659434211.10411,9484
1659434211.145629,9501
1659434211.187148,9504
1659434211.22542,9507
1659434211.263693,9527
1659434211.301965,9533
1659434211.343996,9553
1659434211.386028,9552
1659434211.428572,9562
1659434211.471116,9584
1659434211.50973,9592
1659434211.548344,9580
1659434211.586958,9530
1659434211.631723,9489
1659434211.676488,9464
1659434211.721253,9455
1659434211.755596,9452
1659434211.789939,9456
1659434211.834362,9475
1659434211.878786,9490
1659434211.923209,9488
1659434211.954989,9492
1659434211.986768,9497
1659434212.031192,9509
1659434212.075615,9526
1659434212.120039,9537
1659434212.158311,9548
1659434212.196584,9558
1659434212.234856,9572
1659434212.276887,9575
1659434212.318919,9587
1659434212.357875,9592
1659434212.396831,9598
1659434212.435786,9616
1659434212.474742,9608
1659434212.513698,9561
1659434212.552654,9512
1659434212.59366,9490
1659434212.634666,9485
1659434212.674648,9489
1659434212.714629,9480
1659434212.75461,9494
1659434212.796129,9498
1659434212.837647,9495
1659434212.876261,9495
1659434212.914876,9505
1659434212.95349,9514
1659434212.995008,9513
1659434213.036527,9533
1659434213.075825,9544
1659434213.115123,9551
1659434213.15442,9572
1659434213.194914,9574
1659434213.235407,9587
1659434213.274363,9594
1659434213.313319,9605
1659434213.352275,9615
1659434213.396357,9604
1659434213.440439,9563
1659434213.48452,9520
1659434213.517838,9501
1659434213.551155,9484
1659434213.595237,9488
1659434213.639318,9489
1659434213.6834,9487
1659434213.724919,9498
1659434213.766438,9494
1659434213.80471,9496
1659434213.842983,9512
1659434213.881255,9521
1659434213.920553,9532
1659434213.95985,9557
1659434213.999148,9556
1659434214.041179,9563
1659434214.083211,9582
1659434214.121825,9590
1659434214.160439,9597
1659434214.199053,9608
1659434214.240059,9618
1659434214.281065,9628
1659434214.320021,9636
1659434214.358977,9597
1659434214.397933,9555
1659434214.436206,9531
1659434214.474478,9513
1659434214.512751,9510
1659434214.554782,9504
1659434214.596813,9508
1659434214.635427,9521
1659434214.674042,9533
1659434214.712656,9535
1659434214.754687,9544
1659434214.796719,9551
1659434214.835333,9564
1659434214.873947,9583
1659434214.912561,9586
1659434214.956233,9606
1659434214.999904,9618
1659434215.043576,9627
1659434215.087248,9639
1659434215.130919,9650
1659434215.164237,9666
1659434215.197554,9674
1659434215.241977,9695
1659434215.286401,9679
1659434215.330824,9640
1659434215.369097,9600
1659434215.407369,9574
1659434215.445642,9569
1659434215.487673,9555
1659434215.529704,9553
1659434215.56866,9557
1659434215.607616,9577
1659434215.646572,9568
1659434215.685186,9579
1659434215.7238,9582
1659434215.762415,9590
1659434215.803933,9598
1659434215.845452,9629
1659434215.884408,9642
1659434215.923364,9651
1659434215.96232,9666
1659434216.004864,9682
1659434216.047408,9690
1659434216.086022,9695
1659434216.124636,9711
1659434216.16325,9726
1659434216.202206,9732
1659434216.241162,9713
1659434216.280118,9662
1659434216.322149,9627
1659434216.364181,9612
1659434216.405699,9612
1659434216.447218,9604
1659434216.485149,9605
1659434216.52308,9615
1659434216.56101,9603
1659434216.605434,9603
1659434216.649857,9615
1659434216.694281,9613
1659434216.727086,9617
1659434216.759891,9631
1659434216.803972,9639
1659434216.848054,9653
1659434216.892135,9668
1659434216.931433,9674
1659434216.970731,9679
1659434217.010028,9680
1659434217.051547,9690
1659434217.093066,9693
1659434217.131338,9712
1659434217.169611,9708
1659434217.207883,9672
1659434217.250427,9624
1659434217.292971,9583
1659434217.331927,9575
1659434217.370883,9571
1659434217.409839,9566
1659434217.448453,9564
1659434217.487067,9571
1659434217.525681,9573
1659434217.567713,9585
1659434217.609744,9585
1659434217.648016,9588
1659434217.686289,9605
1659434217.724561,9622
1659434217.76608,9632
1659434217.807599,9643
1659434217.846555,9655
1659434217.885511,9666
1659434217.924467,9686
1659434217.965473,9693
1659434218.006479,9697
1659434218.045435,9719
1659434218.084391,9727
1659434218.123347,9714
1659434218.165378,9674
1659434218.207409,9633
1659434218.246707,9596
1659434218.286005,9576
1659434218.325302,9564
1659434218.369384,9568
1659434218.413465,9581
1659434218.457547,9575
1659434218.491377,9577
1659434218.525208,9566
1659434218.569631,9570
1659434218.614054,9586
1659434218.658478,9586
1659434218.699996,9605
1659434218.741515,9613
1659434218.780471,9630
1659434218.819427,9645
1659434218.858383,9648
1659434218.897339,9661
1659434218.936295,9669
1659434218.97525,9688
1659434219.015744,9696
1659434219.056238,9711
1659434219.095536,9697
1659434219.134833,9660
1659434219.174131,9608
1659434219.216675,9592
1659434219.259218,9576
1659434219.297833,9567
1659434219.336447,9579
1659434219.375061,9581
1659434219.413675,9587
1659434219.452289,9589
1659434219.490904,9585
1659434219.532422,9596
1659434219.573941,9613
1659434219.612214,9612
1659434219.650486,9619
1659434219.688758,9629
1659434219.73079,9640
1659434219.772821,9643
1659434219.811094,9649
1659434219.849366,9650
1659434219.887639,9658
1659434219.929157,9670
1659434219.970676,9674
1659434220.008949,9650
1659434220.047221,9607
1659434220.085494,9565
1659434220.129917,9550
1659434220.17434,9534
1659434220.218764,9529
1659434220.256182,9539
1659434220.2936,9549
1659434220.331018,9539
1659434220.368436,9537
1659434220.410468,9538
1659434220.452499,9549
1659434220.491796,9571
1659434220.531094,9573
1659434220.570392,9590
1659434220.611911,9607
1659434220.653429,9621
1659434220.692044,9624
1659434220.730658,9637
1659434220.769272,9636
1659434220.813695,9648
1659434220.858119,9658
1659434220.902542,9664
1659434220.944573,9638
1659434220.986605,9591
1659434221.025219,9548
1659434221.063833,9518
1659434221.102447,9505
1659434221.141745,9486
1659434221.181042,9484
1659434221.22034,9493
1659434221.260834,9497
1659434221.301327,9498
1659434221.339942,9503
1659434221.378556,9516
1659434221.41717,9522
1659434221.459714,9552
1659434221.502258,9557
1659434221.541555,9556
1659434221.580853,9571
1659434221.620151,9587
1659434221.658765,9598
1659434221.697379,9599
1659434221.735993,9620
1659434221.778537,9622
1659434221.821081,9644
1659434221.860379,9637
1659434221.899676,9592
1659434221.938974,9552
1659434221.979467,9514
1659434222.019961,9510
1659434222.059259,9491
1659434222.098556,9486
1659434222.137854,9490
1659434222.17886,9508
1659434222.219866,9513
1659434222.258481,9517
1659434222.297095,9527
1659434222.335709,9542
1659434222.377228,9564
1659434222.418746,9575
1659434222.463511,9582
1659434222.508277,9604
1659434222.553042,9621
1659434222.591314,9637
1659434222.629587,9649
1659434222.667859,9652
1659434222.709378,9665
1659434222.750897,9693
1659434222.790536,9692
1659434222.830175,9684
1659434222.869815,9638
1659434222.910821,9582
1659434222.951827,9548
1659434222.990441,9536
1659434223.029055,9530
1659434223.06767,9530
1659434223.106284,9537
1659434223.144898,9551
1659434223.183512,9551
1659434223.225031,9560
1659434223.26655,9570
1659434223.305506,9584
1659434223.344461,9584
1659434223.383417,9606
1659434223.424423,9614
1659434223.46543,9644
1659434223.506436,9656
1659434223.547442,9669
1659434223.58674,9684
1659434223.626037,9695
1659434223.665335,9720
1659434223.704291,9733
1659434223.743247,9749
1659434223.782203,9723
1659434223.823209,9660
1659434223.864215,9610
1659434223.902829,9580
1659434223.941443,9567
1659434223.980057,9557
1659434224.022601,9561
1659434224.065145,9561
1659434224.104101,9562
1659434224.143057,9576
1659434224.182013,9577
1659434224.223019,9580
1659434224.264025,9589
1659434224.302981,9606
1659434224.341937,9611
1659434224.380893,9642
1659434224.422925,9639
1659434224.464956,9658
1659434224.509379,9673
1659434224.553803,9682
1659434224.598226,9685
1659434224.637182,9706
1659434224.676138,9715
1659434224.715094,9729
1659434224.757125,9705
1659434224.799156,9655
1659434224.837771,9613
1659434224.876385,9591
1659434224.914999,9585
1659434224.957543,9582
1659434225.000087,9584
1659434225.039043,9599
1659434225.077999,9610
1659434225.116955,9619
1659434225.155569,9616
1659434225.194183,9628
1659434225.232797,9647
1659434225.273803,9660
1659434225.314809,9682
1659434225.353082,9696
1659434225.391354,9709
1659434225.429627,9727
1659434225.470889,9740
1659434225.512152,9757
1659434225.553414,9771
1659434225.594677,9788
1659434225.632949,9801
1659434225.671222,9834
1659434225.709494,9828
1659434225.748792,9794
1659434225.788089,9750
1659434225.827387,9716
1659434225.868906,9707
1659434225.910424,9704
1659434225.949722,9700
1659434225.98902,9715
1659434226.028317,9728
1659434226.069836,9732
1659434226.111355,9741
1659434226.149627,9756
1659434226.1879,9764
1659434226.226172,9776
1659434226.268204,9790
1659434226.310235,9807
1659434226.349191,9826
1659434226.388147,9840
1659434226.427103,9856
1659434226.467596,9870
1659434226.50809,9878
1659434226.546704,9893
1659434226.585318,9906
1659434226.623932,9919
1659434226.668356,9906
1659434226.712779,9864
1659434226.757203,9830
1659434226.798721,9802
1659434226.84024,9800
1659434226.878513,9798
1659434226.916785,9798
1659434226.955058,9819
1659434226.994355,9816
1659434227.033653,9823
1659434227.07295,9834
1659434227.113956,9840
1659434227.154963,9853
1659434227.19426,9875
1659434227.233558,9882
1659434227.272856,9900
1659434227.315399,9911
1659434227.357944,9922
1659434227.396558,9936
1659434227.435172,9953
1659434227.473786,9968
1659434227.512742,9978
1659434227.551698,10002
1659434227.590654,9991
1659434227.632172,9952
1659434227.673691,9903
1659434227.712647,9860
1659434227.751603,9841
1659434227.790559,9829
1659434227.832078,9830
1659434227.873596,9827
1659434227.912552,9834
1659434227.951508,9832
1659434227.990464,9838
1659434228.03147,9834
1659434228.072477,9831
1659434228.116558,9845
1659434228.16064,9849
1659434228.204721,9867
1659434228.239064,9870
1659434228.273407,9874
1659434228.31783,9882
1659434228.362254,9893
1659434228.406677,9901
1659434228.445633,9907
1659434228.484589,9919
1659434228.523545,9921
1659434228.564551,9900
1659434228.605557,9851
1659434228.644855,9791
1659434228.684152,9762
1659434228.72345,9744
1659434228.763944,9728
1659434228.804437,9726
1659434228.843393,9729
1659434228.882349,9730
1659434228.921305,9720
1659434228.959577,9725
1659434228.99785,9727
1659434229.036122,9733
1659434229.078154,9746
1659434229.120185,9756
1659434229.159141,9765
1659434229.198097,9774
1659434229.237053,9785
1659434229.278571,9794
1659434229.32009,9811
1659434229.358704,9812
1659434229.397319,9833
1659434229.435933,9842
1659434229.474547,9846
1659434229.513161,9806
1659434229.551775,9736
1659434229.593807,9697
1659434229.635838,9674
1659434229.677357,9668
1659434229.718876,9660
1659434229.757148,9677
1659434229.79542,9684
1659434229.833693,9682
1659434229.878458,9689
1659434229.923223,9689
1659434229.967988,9693
1659434230.001818,9711
1659434230.035648,9725
1659434230.07973,9740
1659434230.123812,9757
1659434230.167893,9768
1659434230.206508,9775
1659434230.245122,9799
1659434230.283736,9805
1659434230.325767,9814
1659434230.367799,9820
1659434230.406754,9813
1659434230.44571,9761
1659434230.484666,9712
1659434230.524306,9680
1659434230.563945,9663
1659434230.603584,9659
1659434230.645103,9661
1659434230.686622,9661
1659434230.726603,9679
1659434230.766584,9682
1659434230.806565,9695
1659434230.846546,9692
1659434230.886527,9697
1659434230.925483,9707
1659434230.964439,9730
1659434231.003395,9740
1659434231.042009,9746
1659434231.080623,9758
1659434231.119237,9766
1659434231.161269,9786
1659434231.2033,9803
1659434231.24704,9809
1659434231.29078,9802
1659434231.33452,9748
1659434231.367325,9696
1659434231.40013,9670
1659434231.444895,9647
1659434231.48966,9639
1659434231.534425,9652
1659434231.574064,9656
1659434231.613704,9662
1659434231.653343,9673
1659434231.694349,9668
1659434231.735356,9681
1659434231.774653,9691
1659434231.813951,9703
1659434231.853248,9712
1659434231.891521,9725
1659434231.929793,9740
1659434231.968066,9739
1659434232.009584,9754
1659434232.051103,9763
1659434232.089717,9770
1659434232.128332,9787
1659434232.166946,9798
1659434232.207952,9786
1659434232.248958,9730
1659434232.286889,9671
1659434232.32482,9640
1659434232.362751,9630
1659434232.402048,9613
1659434232.441346,9614
1659434232.480643,9636
1659434232.522675,9638
1659434232.564706,9648
1659434232.605712,9649
1659434232.646718,9662
1659434232.685674,9673
1659434232.72463,9683
1659434232.763586,9704
1659434232.808351,9718
1659434232.853116,9731
1659434232.897881,9740
1659434232.930686,9755
1659434232.963491,9774
1659434233.008256,9784
1659434233.053021,9803
1659434233.097787,9818
1659434233.130592,9807
1659434233.163397,9763
1659434233.207478,9712
1659434233.25156,9673
1659434233.295641,9660
1659434233.334256,9644
1659434233.37287,9636
1659434233.411484,9651
1659434233.454028,9657
1659434233.496572,9659
1659434233.534844,9671
1659434233.573117,9673
1659434233.611389,9684
1659434233.653421,9698
1659434233.695452,9722
1659434233.73475,9728
1659434233.774047,9762
1659434233.813345,9773
1659434233.852301,9772
1659434233.891257,9801
1659434233.930212,9813
1659434233.971731,9822
1659434234.01325,9823
1659434234.052548,9835
1659434234.091845,9839
1659434234.131143,9799
1659434234.172149,9738
1659434234.213155,9693
1659434234.25177,9670
1659434234.290384,9657
1659434234.328998,9659
1659434234.371029,9667
1659434234.41306,9686
1659434234.452016,9693
1659434234.490972,9696
1659434234.529928,9707
1659434234.570422,9722
1659434234.610915,9739
1659434234.649871,9753
1659434234.688827,9759
1659434234.727783,9783
1659434234.772207,9788
1659434234.81663,9814
1659434234.861053,9820
1659434234.903085,9839
1659434234.945116,9853
1659434234.984072,9872
1659434235.023028,9885
1659434235.061984,9900
1659434235.10094,9896
1659434235.139895,9841
1659434235.178851,9784
1659434235.219345,9749
1659434235.259839,9731
1659434235.298795,9726
1659434235.33775,9725
1659434235.376706,9729
1659434235.417712,9722
1659434235.458719,9737
1659434235.497333,9740
1659434235.535947,9748
1659434235.574561,9757
1659434235.612492,9772
1659434235.650423,9794
1659434235.688354,9806
1659434235.73141,9818
1659434235.774467,9841
1659434235.813081,9853
1659434235.851695,9863
1659434235.890309,9880
1659434235.930495,9890
1659434235.970681,9911
1659434236.010867,9929
1659434236.051053,9933
1659434236.091239,9921
1659434236.132758,9882
1659434236.174277,9820
1659434236.215796,9788
1659434236.257314,9766
1659434236.298321,9779
1659434236.339327,9772
1659434236.378624,9778
1659434236.417922,9791
1659434236.45722,9799
1659434236.498739,9811
1659434236.540257,9813
1659434236.578871,9824
1659434236.617486,9843
1659434236.6561,9855
1659434236.695056,9870
1659434236.734012,9885
1659434236.772968,9900
1659434236.813974,9906
1659434236.85498,9916
1659434236.894278,9920
1659434236.933575,9940
1659434236.972873,9939
1659434237.014391,9942
1659434237.05591,9942
1659434237.100334,9872
1659434237.144757,9817
1659434237.18918,9778
1659434237.222498,9768
1659434237.255816,9758
1659434237.300581,9768
1659434237.345346,9771
1659434237.390111,9771
1659434237.423428,9776
1659434237.456746,9790
1659434237.500486,9796
1659434237.544226,9806
1659434237.587966,9824
1659434237.627263,9834
1659434237.666561,9873
1659434237.705858,9865
1659434237.746352,9884
1659434237.786846,9901
1659434237.825802,9906
1659434237.864758,9916
1659434237.903713,9916
1659434237.945232,9930
1659434237.986751,9934
1659434238.025707,9922
1659434238.064663,9853
1659434238.103619,9794
1659434238.142233,9763
1659434238.180847,9742
1659434238.219461,9742
1659434238.262005,9734
1659434238.304549,9745
1659434238.343163,9747
1659434238.381778,9752
1659434238.420392,9753
1659434238.459006,9756
1659434238.49762,9772
1659434238.536234,9783
1659434238.57724,9810
1659434238.618247,9822
1659434238.660278,9823
1659434238.702309,9846
1659434238.740582,9856
1659434238.778854,9868
1659434238.817127,9880
1659434238.86155,9894
1659434238.905973,9897
1659434238.950397,9918
1659434238.982689,9907
1659434239.014982,9859
1659434239.059405,9796
1659434239.103828,9747
1659434239.148252,9736
1659434239.182082,9712
1659434239.215912,9719
1659434239.261019,9719
1659434239.306126,9738
1659434239.351233,9743
1659434239.389847,9738
1659434239.428461,9751
1659434239.467075,9755
1659434239.509106,9776
1659434239.551138,9793
1659434239.589752,9801
1659434239.628366,9824
1659434239.66698,9836
1659434239.709524,9852
1659434239.752068,9868
1659434239.79034,9892
1659434239.828613,9905
1659434239.866885,9924
1659434239.905841,9939
1659434239.944797,9946
1659434239.983753,9924
1659434240.024759,9851
1659434240.065766,9806
1659434240.10438,9785
1659434240.142994,9789
1659434240.181608,9777
1659434240.223639,9796
1659434240.265671,9804
1659434240.304968,9803
1659434240.344266,9821
1659434240.383564,9827
1659434240.42457,9832
1659434240.465576,9853
1659434240.504874,9861
1659434240.544171,9887
1659434240.583469,9902
1659434240.626013,9904
1659434240.668557,9921
1659434240.712638,9941
1659434240.75672,9948
1659434240.800802,9959
1659434240.839416,9968
1659434240.87803,9982
1659434240.916644,9982
1659434240.958163,9948
1659434240.999682,9874
1659434241.037954,9829
1659434241.076227,9812
1659434241.114499,9794
1659434241.15653,9793
1659434241.198562,9808
1659434241.23598,9804
1659434241.273398,9803
1659434241.310816,9804
1659434241.348234,9809
1659434241.386507,9817
1659434241.424779,9825
1659434241.463052,9840
1659434241.508159,9847
1659434241.553266,9862
1659434241.598372,9875
1659434241.639891,9899
1659434241.68141,9902
1659434241.719682,9913
1659434241.757955,9922
1659434241.796227,9930
1659434241.835525,9937
1659434241.874822,9944
1659434241.91412,9916
1659434241.956151,9849
1659434241.998183,9792
1659434242.036114,9770
1659434242.074044,9748
1659434242.111975,9745
1659434242.154006,9722
1659434242.196038,9725
1659434242.234652,9726
1659434242.273266,9731
1659434242.31188,9723
1659434242.351178,9719
1659434242.390476,9741
1659434242.429773,9745
1659434242.471804,9769
1659434242.513836,9765
1659434242.553133,9784
1659434242.592431,9802
1659434242.631729,9811
1659434242.672735,9831
1659434242.713741,9838
1659434242.75338,9842
1659434242.79302,9854
1659434242.832659,9883
1659434242.874178,9865
1659434242.915697,9806
1659434242.959436,9742
1659434243.003176,9707
1659434243.046916,9676
1659434243.079721,9669
1659434243.112526,9656
1659434243.157291,9658
1659434243.202057,9666
1659434243.246822,9669
1659434243.285778,9673
1659434243.324733,9691
1659434243.363689,9690
1659434243.405208,9714
1659434243.446727,9710
1659434243.485683,9728
1659434243.524639,9739
1659434243.563595,9758
1659434243.604601,9778
1659434243.645607,9790
1659434243.684905,9800
1659434243.724202,9807
1659434243.7635,9827
1659434243.802797,9824
1659434243.842095,9797
1659434243.881393,9732
1659434243.922399,9674
1659434243.963405,9654
1659434244.002361,9634
1659434244.041317,9630
1659434244.080273,9626
1659434244.122817,9646
1659434244.165361,9643
1659434244.203975,9637
1659434244.242589,9648
1659434244.281203,9645
1659434244.319476,9656
1659434244.357748,9668
1659434244.39602,9686
1659434244.437027,9692
1659434244.478033,9716
1659434244.519552,9728
1659434244.56107,9736
1659434244.599685,9751
1659434244.638299,9762
1659434244.676913,9771
1659434244.721678,9790
1659434244.766443,9802
1659434244.811208,9776
1659434244.844526,9712
1659434244.877843,9659
1659434244.921925,9617
1659434244.966007,9625
1659434245.010088,9615
1659434245.043918,9632
1659434245.077749,9629
1659434245.122514,9639
1659434245.167279,9645
1659434245.212044,9654
1659434245.250658,9659
1659434245.289272,9676
1659434245.327886,9687
1659434245.368893,9714
1659434245.409899,9736
1659434245.448855,9738
1659434245.487811,9751
1659434245.526767,9767
1659434245.565039,9776
1659434245.603311,9790
1659434245.641584,9804
1659434245.683615,9818
1659434245.725646,9830
1659434245.765286,9852
1659434245.804925,9815
1659434245.844565,9748
1659434245.885571,9706
1659434245.926577,9687
1659434245.965191,9682
1659434246.003805,9684
1659434246.042419,9694
1659434246.085476,9703
1659434246.128532,9711
1659434246.167147,9712
1659434246.205761,9723
1659434246.244375,9735
1659434246.284869,9744
1659434246.325362,9769
1659434246.36466,9770
1659434246.403958,9782
1659434246.443255,9792
1659434246.483031,9806
1659434246.522807,9817
1659434246.562583,9833
1659434246.602359,9840
1659434246.642135,9852
1659434246.683654,9880
1659434246.725173,9875
1659434246.769596,9818
1659434246.814019,9763
1659434246.858443,9733
1659434246.896715,9713
1659434246.934988,9706
1659434246.97326,9711
1659434247.015804,9717
1659434247.058348,9743
1659434247.097304,9741
1659434247.13626,9740
1659434247.175216,9749
1659434247.216222,9759
1659434247.257228,9767
1659434247.296184,9789
1659434247.33514,9801
1659434247.374096,9817
1659434247.413393,9828
1659434247.452691,9835
1659434247.491989,9851
1659434247.532482,9865
1659434247.572976,9868
1659434247.61159,9888
1659434247.650204,9901
1659434247.688818,9898
1659434247.727433,9844
1659434247.766047,9796
1659434247.804661,9752
1659434247.84618,9720
1659434247.887699,9708
1659434247.926313,9701
1659434247.964927,9716
1659434248.003541,9713
1659434248.045573,9712
1659434248.087604,9714
1659434248.131685,9716
1659434248.175767,9726
1659434248.219849,9726
1659434248.253679,9752
1659434248.287509,9757
1659434248.332274,9782
1659434248.377039,9776
1659434248.421804,9791
1659434248.455122,9800
1659434248.48844,9805
1659434248.532521,9819
1659434248.576603,9828
1659434248.620684,9838
1659434248.659299,9844
1659434248.697913,9837
1659434248.736527,9766
1659434248.778046,9710
1659434248.819565,9687
1659434248.858179,9671
1659434248.896793,9660
1659434248.935407,9660
1659434248.974363,9663
1659434249.013319,9676
1659434249.052275,9680
1659434249.093794,9677
1659434249.135312,9686
1659434249.174268,9704
1659434249.213224,9711
1659434249.25218,9734
1659434249.294724,9739
1659434249.337268,9761
1659434249.376224,9766
1659434249.41518,9782
1659434249.454135,9799
1659434249.495654,9803
1659434249.537173,9827
1659434249.575787,9830
1659434249.614401,9856
1659434249.653016,9857
1659434249.69556,9815
1659434249.738103,9759
1659434249.776376,9710
1659434249.814648,9695
1659434249.852921,9670
1659434249.893927,9681
1659434249.934933,9681
1659434249.973889,9713
1659434250.012845,9696
1659434250.051801,9703
1659434250.095199,9711
1659434250.138597,9714
1659434250.181996,9722
1659434250.215313,9732
1659434250.248631,9746
1659434250.293054,9752
1659434250.337477,9764
1659434250.381901,9774
1659434250.420857,9780
1659434250.459813,9792
1659434250.498769,9803
1659434250.540287,9800
1659434250.581806,9812
1659434250.620762,9810
1659434250.659718,9765
1659434250.698674,9708
1659434250.740705,9660
1659434250.782737,9630
1659434250.820667,9626
1659434250.858598,9621
1659434250.896529,9641
1659434250.935826,9635
1659434250.975124,9631
1659434251.014421,9640
1659434251.054915,9637
1659434251.095409,9643
1659434251.134365,9660
1659434251.173321,9681
1659434251.212276,9693
1659434251.254308,9715
1659434251.296339,9729
1659434251.334953,9737
1659434251.373568,9755
1659434251.412182,9771
1659434251.453188,9781
1659434251.494194,9804
1659434251.534175,9815
1659434251.574156,9830
1659434251.614137,9824
1659434251.655656,9755
1659434251.697175,9701
1659434251.736951,9669
1659434251.776727,9649
1659434251.816503,9637
1659434251.856279,9639
1659434251.896055,9639
1659434251.938599,9642
1659434251.981143,9641
1659434252.019073,9647
1659434252.057004,9653
1659434252.094935,9674
1659434252.136454,9683
1659434252.177973,9704
1659434252.216928,9703
1659434252.255884,9726
1659434252.29484,9738
1659434252.336872,9754
1659434252.378903,9764
1659434252.417859,9770
1659434252.456815,9799
1659434252.49577,9805
1659434252.540877,9815
1659434252.585984,9791
1659434252.631091,9715
1659434252.67261,9671
1659434252.714128,9621
1659434252.753084,9596
1659434252.79204,9591
1659434252.830996,9589
1659434252.87354,9597
1659434252.916084,9619
1659434252.954357,9606
1659434252.992629,9612
1659434253.030901,9624
1659434253.069174,9636
1659434253.107446,9654
1659434253.145719,9658
1659434253.187238,9680
1659434253.228756,9686
1659434253.267712,9701
1659434253.306668,9716
1659434253.345624,9727
1659434253.384238,9744
1659434253.422853,9758
1659434253.461467,9772
1659434253.502473,9780
1659434253.543479,9771
1659434253.582435,9711
1659434253.621391,9661
1659434253.660347,9629
1659434253.701865,9596
1659434253.743384,9599
1659434253.78234,9594
1659434253.821296,9616
1659434253.860252,9616
1659434253.901771,9606
1659434253.94329,9625
1659434253.987713,9629
1659434254.032136,9640
1659434254.07656,9654
1659434254.11039,9675
1659434254.14422,9680
1659434254.188643,9703
1659434254.233067,9710
1659434254.27749,9728
1659434254.315763,9742
1659434254.354035,9750
1659434254.392308,9766
1659434254.433826,9777
1659434254.475345,9786
1659434254.513618,9794
1659434254.55189,9776
1659434254.590162,9703
1659434254.629118,9657
1659434254.668074,9631
1659434254.70703,9619
1659434254.748549,9615
1659434254.790068,9624
1659434254.829707,9637
1659434254.869346,9633
1659434254.908986,9641
1659434254.950504,9651
1659434254.992023,9658
1659434255.030637,9683
1659434255.069252,9702
1659434255.107866,9725
1659434255.147163,9723
1659434255.186461,9739
1659434255.225759,9755
1659434255.26779,9768
1659434255.309821,9784
1659434255.348094,9789
1659434255.386366,9811
1659434255.424639,9819
1659434255.46667,9830
1659434255.508701,9792
1659434255.552783,9736
1659434255.596865,9701
1659434255.640946,9681
1659434255.674264,9665
1659434255.707581,9668
1659434255.752688,9681
1659434255.797795,9692
1659434255.842902,9711
1659434255.876219,9701
1659434255.909537,9711
1659434255.953619,9728
1659434255.9977,9748
1659434256.041782,9757
1659434256.081079,9770
1659434256.120377,9791
1659434256.159675,9799
1659434256.201194,9807
1659434256.242712,9829
1659434256.280643,9832
1659434256.318574,9848
1659434256.356504,9858
1659434256.397511,9879
1659434256.438517,9883
1659434256.477473,9839
1659434256.516429,9784
1659434256.555385,9757
1659434256.593999,9731
1659434256.632613,9721
1659434256.671227,9726
1659434256.712746,9739
1659434256.754265,9763
1659434256.792879,9758
1659434256.831493,9764
1659434256.870107,9780
1659434256.911114,9799
1659434256.95212,9813
1659434256.992101,9828
1659434257.032082,9848
1659434257.072063,9857
1659434257.112044,9883
1659434257.152025,9881
1659434257.190639,9887
1659434257.229253,9903
1659434257.267867,9912
1659434257.309386,9921
1659434257.350905,9932
1659434257.390544,9928
1659434257.430184,9873
1659434257.469823,9815
1659434257.510317,9777
1659434257.55081,9758
1659434257.59455,9745
1659434257.63829,9745
1659434257.68203,9747
1659434257.721328,9750
1659434257.760625,9755
1659434257.799923,9755
1659434257.840416,9771
1659434257.88091,9786
1659434257.920208,9794
1659434257.959505,9816
1659434257.998803,9821
1659434258.040834,9843
1659434258.082866,9845
1659434258.121821,9867
1659434258.160777,9884
1659434258.199733,9909
1659434258.238689,9925
1659434258.277645,9953
1659434258.316601,9964
1659434258.359145,9952
1659434258.401689,9899
1659434258.440645,9835
1659434258.479601,9795
1659434258.518557,9771
1659434258.559563,9756
1659434258.600569,9750
1659434258.639525,9761
1659434258.678481,9764
1659434258.717437,9764
1659434258.756051,9768
1659434258.794665,9770
1659434258.833279,9784
1659434258.874542,9797
1659434258.915804,9815
1659434258.957067,9827
1659434258.998329,9843
1659434259.04036,9853
1659434259.082392,9877
1659434259.121348,9878
1659434259.160304,9887
1659434259.19926,9913
1659434259.240778,9921
1659434259.282297,9942
1659434259.320911,9948
1659434259.359525,9921
1659434259.398139,9868
1659434259.437437,9812
1659434259.476735,9794
1659434259.516032,9770
1659434259.557551,9761
1659434259.59907,9768
1659434259.638026,9782
1659434259.676982,9783
1659434259.715938,9788
1659434259.756944,9797
1659434259.79795,9808
1659434259.84169,9818
1659434259.88543,9826
1659434259.92917,9850
1659434259.962487,9865
1659434259.995805,9873
1659434260.040228,9894
1659434260.084652,9893
1659434260.129075,9907
1659434260.167348,9916
1659434260.20562,9920
1659434260.243892,9929
1659434260.284899,9943
1659434260.325905,9949
1659434260.365202,9915
1659434260.4045,9852
1659434260.443798,9807
1659434260.485317,9803
1659434260.526835,9792
1659434260.565449,9788
1659434260.604064,9796
1659434260.642678,9806
1659434260.682317,9807
1659434260.721956,9817
1659434260.761596,9812
1659434260.802089,9815
1659434260.842583,9831
1659434260.881539,9845
1659434260.920495,9869
1659434260.959451,9874
1659434261.001995,9894
1659434261.044538,9902
1659434261.082811,9923
1659434261.121083,9928
1659434261.159356,9937
1659434261.200362,9955
1659434261.241368,9969
1659434261.281008,9939
1659434261.320647,9891
1659434261.360286,9860
1659434261.402318,9831
1659434261.444349,9828
1659434261.483305,9823
1659434261.522261,9827
1659434261.561217,9839
1659434261.603248,9847
1659434261.645279,9854
1659434261.683894,9844
1659434261.722508,9850
1659434261.761122,9869
1659434261.804862,9878
1659434261.848602,9892
1659434261.892342,9905
1659434261.926684,9922
1659434261.961027,9930
1659434262.005109,9947
1659434262.049191,9956
1659434262.093272,9962
1659434262.131886,9984
1659434262.170501,9993
1659434262.209115,9987
1659434262.248891,9945
1659434262.288667,9902
1659434262.328443,9860
1659434262.368219,9849
1659434262.407995,9834
1659434262.446951,9826
1659434262.485907,9840
1659434262.524863,9833
1659434262.56416,9837
1659434262.603458,9823
1659434262.642755,9838
1659434262.683762,9837
1659434262.724768,9861
1659434262.769191,9879
1659434262.813614,9887
1659434262.858038,9901
1659434262.896994,9917
1659434262.93595,9924
1659434262.974905,9939
1659434263.016937,9946
1659434263.058968,9950
1659434263.097241,9980
1659434263.135513,9988
1659434263.173786,9974
1659434263.215304,9930
1659434263.256823,9879
1659434263.295096,9856
1659434263.333368,9827
1659434263.37164,9819
1659434263.409913,9820
1659434263.448185,9824
1659434263.486458,9826
1659434263.529002,9829
1659434263.571546,9845
1659434263.61016,9836
1659434263.648774,9856
1659434263.687388,9860
1659434263.726344,9870
1659434263.7653,9898
1659434263.804256,9911
1659434263.846287,9917
1659434263.888319,9936
1659434263.927616,9946
1659434263.966914,9952
1659434264.006212,9973
1659434264.048243,9978
1659434264.090274,9990
1659434264.13128,9982
1659434264.172287,9927
1659434264.211584,9887
1659434264.250882,9862
1659434264.290179,9853
1659434264.33392,9844
1659434264.377659,9850
1659434264.421399,9856
1659434264.45523,9865
1659434264.489059,9869
1659434264.533483,9880
1659434264.577906,9899
1659434264.62233,9892
1659434264.661286,9902
1659434264.700242,9916
1659434264.739197,9933
1659434264.780716,9948
1659434264.822235,9954
1659434264.861532,9976
1659434264.90083,9981
1659434264.940128,10007
1659434264.982159,10014
1659434265.02419,10016
1659434265.063146,9994
1659434265.102102,9948
1659434265.141058,9914
1659434265.182064,9889
1659434265.223071,9877
1659434265.262027,9875
1659434265.300982,9887
1659434265.339938,9894
1659434265.378552,9891
1659434265.417167,9908
1659434265.455781,9901
1659434265.497812,9916
1659434265.539844,9919
1659434265.578116,9937
1659434265.616388,9944
1659434265.654661,9962
1659434265.695667,9972
1659434265.736673,9972
1659434265.776313,9985
1659434265.815952,9994
1659434265.855591,10004
1659434265.89711,10014
1659434265.938629,10015
1659434265.976901,9985
1659434266.015174,9933
1659434266.053446,9892
1659434266.09787,9868
1659434266.142293,9864
1659434266.186716,9850
1659434266.220546,9860
1659434266.254377,9858
1659434266.298458,9853
1659434266.34254,9866
1659434266.386621,9860
1659434266.427628,9863
1659434266.468634,9872
1659434266.507931,9891
1659434266.547229,9895
1659434266.586527,9912
1659434266.624458,9906
1659434266.662388,9913
1659434266.700319,9926
1659434266.742863,9935
1659434266.785407,9947
1659434266.824021,9954
1659434266.862635,9961
1659434266.901249,9930
1659434266.939864,9886
1659434266.978478,9820
1659434267.017092,9794
1659434267.059123,9787
1659434267.101155,9774
1659434267.140452,9778
1659434267.17975,9788
1659434267.219048,9786
1659434267.260566,9783
1659434267.302085,9790
1659434267.341383,9794
1659434267.38068,9801
1659434267.419978,9813
1659434267.459754,9823
1659434267.49953,9840
1659434267.539306,9849
1659434267.579082,9858
1659434267.618858,9859
1659434267.66294,9874
1659434267.707021,9882
1659434267.751103,9892
1659434267.789717,9914
1659434267.828331,9907
1659434267.866946,9881
1659434267.908464,9820
1659434267.949983,9779
1659434267.988939,9760
1659434268.027895,9748
1659434268.066851,9745
1659434268.108882,9743
1659434268.150913,9745
1659434268.189528,9721
1659434268.228142,9725
1659434268.266756,9715
1659434268.306054,9719
1659434268.345351,9749
1659434268.384649,9756
1659434268.42668,9762
1659434268.468711,9769
1659434268.506984,9787
1659434268.545256,9795
1659434268.583529,9810
1659434268.624535,9823
1659434268.665541,9835
1659434268.704497,9848
1659434268.743453,9861
1659434268.782409,9846
1659434268.823928,9808
1659434268.865447,9775
1659434268.903719,9755
1659434268.941991,9750
1659434268.980264,9742
1659434269.025029,9731
1659434269.069794,9741
1659434269.114559,9734
1659434269.148389,9731
1659434269.18222,9723
1659434269.226301,9725
1659434269.270383,9744
1659434269.314464,9754
1659434269.35342,9768
1659434269.392376,9780
1659434269.431332,9787
1659434269.472338,9804
1659434269.513345,9821
1659434269.5523,9827
1659434269.591256,9835
1659434269.630212,9850
1659434269.672244,9855
1659434269.714275,9822
1659434269.753231,9771
1659434269.792187,9743
1659434269.831143,9716
1659434269.869415,9717
1659434269.907687,9708
1659434269.94596,9719
1659434269.986966,9738
1659434270.027972,9743
1659434270.06727,9754
1659434270.106568,9760
1659434270.145865,9781
1659434270.187384,9795
1659434270.228903,9818
1659434270.267859,9836
1659434270.306814,9856
1659434270.34577,9871
1659434270.388314,9881
1659434270.430858,9893
1659434270.469472,9896
1659434270.508087,9895
1659434270.546701,9866
1659434270.58822,9828
1659434270.629738,9781
1659434270.669378,9754
1659434270.709017,9742
1659434270.748656,9735
1659434270.792738,9758
1659434270.83682,9769
1659434270.880901,9772
1659434270.921907,9788
1659434270.962914,9789
1659434271.00187,9791
1659434271.040826,9809
1659434271.079781,9817
1659434271.121813,9820
1659434271.163844,9845
1659434271.201775,9857
1659434271.239706,9867
1659434271.277636,9894
1659434271.317276,9894
1659434271.356915,9871
1659434271.396554,9820
1659434271.438073,9795
1659434271.479592,9775
1659434271.518206,9773
1659434271.55682,9770
1659434271.595434,9783
1659434271.637978,9798
1659434271.680522,9807
1659434271.719478,9815
1659434271.758434,9824
1659434271.79739,9835
1659434271.835662,9844
1659434271.873935,9860
1659434271.912207,9877
1659434271.953726,9891
1659434271.995245,9925
1659434272.034201,9935
1659434272.073157,9940
1659434272.112113,9897
1659434272.153119,9848
1659434272.194125,9825
1659434272.238207,9806
1659434272.282288,9812
1659434272.32637,9825
1659434272.359688,9836
1659434272.393005,9851
1659434272.437087,9864
1659434272.481168,9860
1659434272.52525,9870
1659434272.55908,9898
1659434272.59291,9932
1659434272.637675,9946
1659434272.682441,9971
1659434272.727206,9981
1659434272.76582,9990
1659434272.804434,10010
1659434272.843048,9998
1659434272.882346,9987
1659434272.921643,9942
1659434272.960941,9894
1659434273.003485,9865
1659434273.046029,9855
1659434273.084301,9855
1659434273.122574,9853
1659434273.160846,9869
1659434273.199802,9873
1659434273.238758,9887
1659434273.277714,9894
1659434273.319233,9902
1659434273.360751,9919
1659434273.399366,9929
1659434273.43798,9940
1659434273.476594,9949
1659434273.518625,9974
1659434273.560657,9994
1659434273.599612,10010
1659434273.638568,10030
1659434273.677524,10037
1659434273.719556,10023
1659434273.761587,9977
1659434273.805669,9931
1659434273.84975,9918
1659434273.893832,9912
1659434273.927662,9913
1659434273.961492,9923
1659434274.006257,9932
1659434274.051023,9938
1659434274.095788,9968
1659434274.134402,9966
1659434274.173016,9980
1659434274.21163,10002
1659434274.253149,10021
1659434274.294668,10026
1659434274.333282,10041
1659434274.371896,10059
1659434274.41051,10074
1659434274.452542,10094
1659434274.494573,10094
1659434274.533187,10063
1659434274.571801,10008
1659434274.610415,9966
1659434274.649713,9941
1659434274.689011,9928
1659434274.728308,9917
1659434274.766581,9940
1659434274.804853,9950
1659434274.843126,9943
1659434274.885157,9952
1659434274.927188,9960
1659434274.966486,9958
1659434275.005784,9976
1659434275.045081,9978
1659434275.086087,9990
1659434275.127094,10008
1659434275.171175,10018
1659434275.215257,10034
1659434275.259339,10047
1659434275.292144,10073
1659434275.324949,10090
1659434275.368688,10085
1659434275.412428,10020
1659434275.456168,9969
1659434275.495466,9941
1659434275.534764,9918
1659434275.574061,9908
1659434275.61558,9912
1659434275.657099,9928
1659434275.695713,9930
1659434275.734327,9955
1659434275.772941,9949
1659434275.812239,9959
1659434275.851537,9977
1659434275.890834,9980
1659434275.933378,10001
1659434275.975922,10011
1659434276.014194,10015
1659434276.052467,10028
1659434276.090739,10040
1659434276.132258,10058
1659434276.173777,10069
1659434276.213074,10070
1659434276.252372,10034
1659434276.29167,9981
1659434276.329942,9930
1659434276.368215,9903
1659434276.406487,9883
1659434276.449031,9866
1659434276.491575,9869
1659434276.530531,9873
1659434276.569487,9885
1659434276.608443,9879
1659434276.648936,9879
1659434276.68943,9881
1659434276.733511,9873
1659434276.777593,9883
1659434276.821675,9897
1659434276.856018,9909
1659434276.89036,9926
1659434276.934784,9928
1659434276.979207,9940
1659434277.02363,9965
1659434277.062586,9971
1659434277.101542,9990
1659434277.140498,9979
1659434277.182529,9917
1659434277.224561,9861
1659434277.263175,9832
1659434277.301789,9823
1659434277.340403,9806
1659434277.379018,9807
1659434277.417632,9820
1659434277.456246,9825
1659434277.49879,9815
1659434277.541334,9804
1659434277.579606,9806
1659434277.617879,9800
1659434277.656151,9802
1659434277.697157,9810
1659434277.738163,9820
1659434277.777119,9833
1659434277.816075,9836
1659434277.855031,9848
1659434277.893987,9844
1659434277.932943,9858
1659434277.971899,9842
1659434278.01598,9810
1659434278.060062,9770
1659434278.104144,9668
1659434278.143441,9599
1659434278.182739,9548
1659434278.222037,9535
1659434278.260651,9502
1659434278.299265,9504
1659434278.337879,9475
1659434278.379398,9446
1659434278.420917,9433
1659434278.459189,9419
1659434278.497462,9427
1659434278.535734,9430
1659434278.57469,9430
1659434278.613646,9435
1659434278.652602,9463
1659434278.694121,9469
1659434278.735639,9448
1659434278.776646,9431
1659434278.817652,9415
1659434278.856608,9433
1659434278.895564,9446
1659434278.93452,9445
1659434278.978601,9417
1659434279.022683,9379
1659434279.066764,9339
1659434279.100595,9337
1659434279.134425,9338
1659434279.17919,9368
1659434279.223955,9381
1659434279.26872,9389
1659434279.301525,9435
1659434279.33433,9439
1659434279.378753,9443
1659434279.423177,9494
1659434279.4676,9567
1659434279.501943,9621
1659434279.536285,9675
1659434279.580367,9684
