LocalTimestamp,PG
1659521445.78391,12985
1659521445.825897,13083
1659521445.867882,13127
1659521445.906455,13169
1659521445.945028,13194
1659521445.9836,13176
1659521446.022856,13115
1659521446.062111,13017
1659521446.101366,12939
1659521446.14284,12887
1659521446.184314,12875
1659521446.222546,12880
1659521446.260777,12889
1659521446.299008,12896
1659521446.338264,12907
1659521446.377519,12910
1659521446.416774,12879
1659521446.45876,12854
1659521446.500746,12847
1659521446.538636,12831
1659521446.576526,12837
1659521446.614416,12833
1659521446.656402,12838
1659521446.698388,12843
1659521446.736961,12873
1659521446.775533,12880
1659521446.814106,12879
1659521446.85558,12812
1659521446.897054,12705
1659521446.936651,12653
1659521446.976247,12653
1659521447.015844,12675
1659521447.056806,12732
1659521447.097768,12838
1659521447.13873,12949
1659521447.179692,13003
1659521447.220654,13060
1659521447.261616,13084
1659521447.302578,13112
1659521447.34354,13131
1659521447.384502,13146
1659521447.424236,13156
1659521447.463969,13155
1659521447.503702,13163
1659521447.543435,13180
1659521447.583168,13220
1659521447.623106,13247
1659521447.663044,13216
1659521447.702982,13115
1659521447.74292,13046
1659521447.782858,13024
1659521447.826551,13009
1659521447.870244,13022
1659521447.913937,13043
1659521447.953192,13063
1659521447.992448,13064
1659521448.031703,13070
1659521448.070275,13079
1659521448.108848,13104
1659521448.147421,13144
1659521448.189407,13181
1659521448.231393,13227
1659521448.270648,13265
1659521448.309903,13284
1659521448.349159,13312
1659521448.390633,13339
1659521448.432107,13374
1659521448.47068,13336
1659521448.509252,13261
1659521448.547825,13196
1659521448.590323,13163
1659521448.632821,13151
1659521448.671393,13139
1659521448.709966,13158
1659521448.748539,13178
1659521448.78677,13188
1659521448.825001,13181
1659521448.863232,13171
1659521448.904194,13171
1659521448.945157,13202
1659521448.984412,13255
1659521449.023667,13292
1659521449.062922,13332
1659521449.103884,13359
1659521449.144846,13389
1659521449.18376,13416
1659521449.222674,13438
1659521449.261588,13422
1659521449.303062,13323
1659521449.344537,13221
1659521449.388912,13174
1659521449.433288,13182
1659521449.477663,13201
1659521449.515297,13199
1659521449.552931,13190
1659521449.590565,13186
1659521449.628199,13181
1659521449.667113,13208
1659521449.706027,13223
1659521449.744941,13253
1659521449.788633,13274
1659521449.832326,13308
1659521449.876019,13331
1659521449.909813,13363
1659521449.943606,13397
1659521449.987641,13418
1659521450.031675,13458
1659521450.075709,13476
1659521450.116671,13439
1659521450.157633,13338
1659521450.196888,13282
1659521450.236144,13274
1659521450.275399,13279
1659521450.314996,13302
1659521450.354592,13324
1659521450.394189,13344
1659521450.435663,13361
1659521450.477137,13372
1659521450.516051,13394
1659521450.554965,13406
1659521450.593879,13436
1659521450.636377,13455
1659521450.678875,13483
1659521450.717789,13518
1659521450.756703,13549
1659521450.795617,13585
1659521450.834531,13614
1659521450.873445,13664
1659521450.912359,13674
1659521450.954345,13619
1659521450.996331,13572
1659521451.034221,13541
1659521451.072111,13552
1659521451.110001,13552
1659521451.151987,13572
1659521451.193973,13610
1659521451.233228,13637
1659521451.272484,13650
1659521451.311739,13677
1659521451.352189,13709
1659521451.392639,13737
1659521451.431553,13781
1659521451.470467,13809
1659521451.509381,13841
1659521451.554098,13864
1659521451.598814,13892
1659521451.643532,13918
1659521451.685005,13941
1659521451.72648,13973
1659521451.764711,13982
1659521451.802942,13965
1659521451.841173,13874
1659521451.883672,13782
1659521451.92617,13752
1659521451.964401,13735
1659521452.002632,13716
1659521452.040863,13724
1659521452.079095,13714
1659521452.117326,13690
1659521452.155557,13656
1659521452.198055,13651
1659521452.240553,13647
1659521452.278785,13656
1659521452.317016,13685
1659521452.355247,13722
1659521452.393478,13767
1659521452.43171,13833
1659521452.469941,13884
1659521452.511927,13942
1659521452.553913,13984
1659521452.592486,14021
1659521452.631058,14058
1659521452.669631,14100
1659521452.711617,14056
1659521452.753603,13940
1659521452.792858,13808
1659521452.832114,13726
1659521452.871369,13658
1659521452.913355,13639
1659521452.955341,13647
1659521452.993572,13648
1659521453.031804,13656
1659521453.070035,13659
1659521453.112533,13696
1659521453.155031,13754
1659521453.199407,13796
1659521453.243782,13845
1659521453.288158,13879
1659521453.326389,13909
1659521453.36462,13934
1659521453.402852,13959
1659521453.444325,13994
1659521453.4858,14035
1659521453.525055,14044
1659521453.56431,14078
1659521453.603565,14077
1659521453.64504,14003
1659521453.686514,13898
1659521453.725769,13835
1659521453.765024,13803
1659521453.80428,13787
1659521453.843194,13802
1659521453.882107,13843
1659521453.921021,13867
1659521453.962496,13895
1659521454.003969,13949
1659521454.043225,13986
1659521454.08248,14040
1659521454.121735,14063
1659521454.163722,14090
1659521454.205708,14107
1659521454.243939,14096
1659521454.28217,14092
1659521454.320401,14078
1659521454.358974,14076
1659521454.397547,14071
1659521454.436119,14084
1659521454.478617,14072
1659521454.521115,14071
1659521454.562589,14038
1659521454.604064,13922
1659521454.642295,13814
1659521454.680526,13792
1659521454.718757,13808
1659521454.759105,13817
1659521454.799453,13872
1659521454.8398,13920
1659521454.880148,13957
1659521454.920496,13981
1659521454.961457,14013
1659521455.002419,14087
1659521455.040992,14148
1659521455.079565,14196
1659521455.118137,14242
1659521455.162854,14290
1659521455.207571,14316
1659521455.252288,14322
1659521455.28557,14361
1659521455.318851,14384
1659521455.362885,14420
1659521455.40692,14452
1659521455.450954,14472
1659521455.491916,14475
1659521455.532878,14384
1659521455.571451,14270
1659521455.610023,14221
1659521455.648596,14224
1659521455.687168,14226
1659521455.725741,14275
1659521455.764314,14317
1659521455.806812,14347
1659521455.84931,14368
1659521455.887882,14390
1659521455.926455,14430
1659521455.965028,14475
1659521456.006502,14505
1659521456.047976,14547
1659521456.087572,14590
1659521456.127169,14618
1659521456.166766,14641
1659521456.205338,14667
1659521456.243911,14707
1659521456.282484,14729
1659521456.32447,14763
1659521456.366456,14766
1659521456.405711,14695
1659521456.444966,14589
1659521456.484222,14510
1659521456.525184,14483
1659521456.566146,14476
1659521456.604718,14489
1659521456.643291,14526
1659521456.681864,14573
1659521456.724362,14574
1659521456.76686,14579
1659521456.811235,14619
1659521456.855611,14659
1659521456.899987,14689
1659521456.932756,14725
1659521456.965526,14766
1659521457.010584,14793
1659521457.055642,14825
1659521457.1007,14858
1659521457.139614,14886
1659521457.178528,14917
1659521457.217442,14935
1659521457.258916,14971
1659521457.30039,14982
1659521457.339987,14936
1659521457.379584,14824
1659521457.41918,14749
1659521457.460142,14720
1659521457.501105,14713
1659521457.538994,14709
1659521457.576884,14705
1659521457.614774,14738
1659521457.653688,14758
1659521457.692602,14761
1659521457.731516,14783
1659521457.773502,14809
1659521457.815488,14834
1659521457.853719,14865
1659521457.891951,14906
1659521457.930182,14951
1659521457.971144,14981
1659521458.012106,15021
1659521458.05102,15053
1659521458.089934,15092
1659521458.128848,15114
1659521458.167762,15141
1659521458.206676,15186
1659521458.24559,15172
1659521458.287064,15051
1659521458.328538,14893
1659521458.370524,14778
1659521458.41251,14710
1659521458.451083,14629
1659521458.489655,14580
1659521458.528228,14559
1659521458.572603,14577
1659521458.616979,14596
1659521458.661355,14641
1659521458.695148,14703
1659521458.728942,14753
1659521458.772976,14797
1659521458.81701,14842
1659521458.861044,14879
1659521458.899958,14889
1659521458.938872,14936
1659521458.977786,14947
1659521459.01926,14995
1659521459.060735,15028
1659521459.099648,15071
1659521459.138562,15082
1659521459.177476,14998
1659521459.216049,14858
1659521459.254622,14751
1659521459.293194,14690
1659521459.33518,14633
1659521459.377166,14596
1659521459.416422,14595
1659521459.455677,14592
1659521459.494932,14607
1659521459.536406,14610
1659521459.57788,14654
1659521459.617136,14719
1659521459.656391,14786
1659521459.695646,14854
1659521459.73456,14913
1659521459.773474,14962
1659521459.812388,14995
1659521459.85335,15039
1659521459.894312,15052
1659521459.936298,15058
1659521459.978284,15053
1659521460.018018,15054
1659521460.057751,15029
1659521460.097484,14926
1659521460.137217,14813
1659521460.17695,14785
1659521460.215864,14798
1659521460.254778,14787
1659521460.293692,14808
1659521460.336702,14863
1659521460.379713,14907
1659521460.418285,14954
1659521460.456858,14984
1659521460.49543,15021
1659521460.536392,15054
1659521460.577354,15081
1659521460.622071,15097
1659521460.666788,15099
1659521460.711505,15106
1659521460.745299,15114
1659521460.779093,15134
1659521460.823127,15160
1659521460.867161,15175
1659521460.911195,15219
1659521460.949768,15245
1659521460.98834,15198
1659521461.026913,15110
1659521461.065144,15076
1659521461.103375,15079
1659521461.141607,15106
1659521461.182057,15133
1659521461.222507,15164
1659521461.261762,15189
1659521461.301017,15197
1659521461.340272,15202
1659521461.378504,15201
1659521461.416735,15227
1659521461.454966,15238
1659521461.496952,15258
1659521461.538939,15258
1659521461.577852,15267
1659521461.616766,15301
1659521461.65568,15307
1659521461.697154,15329
1659521461.738628,15354
1659521461.777201,15391
1659521461.815774,15409
1659521461.854346,15341
1659521461.896844,15251
1659521461.939342,15196
1659521461.977915,15191
1659521462.016488,15197
1659521462.05506,15219
1659521462.09551,15266
1659521462.13596,15288
1659521462.180677,15295
1659521462.225394,15322
1659521462.270111,15343
1659521462.308684,15380
1659521462.347256,15416
1659521462.385829,15451
1659521462.427303,15483
1659521462.468777,15497
1659521462.508374,15496
1659521462.54797,15507
1659521462.587567,15521
1659521462.629041,15513
1659521462.670515,15533
1659521462.709429,15547
1659521462.748343,15521
1659521462.787257,15427
1659521462.826854,15346
1659521462.86645,15334
1659521462.906047,15326
1659521462.948033,15329
1659521462.990019,15364
1659521463.02825,15387
1659521463.066482,15402
1659521463.104713,15393
1659521463.146187,15398
1659521463.187661,15433
1659521463.226916,15452
1659521463.266171,15477
1659521463.305427,15515
1659521463.343658,15552
1659521463.381889,15573
1659521463.42012,15598
1659521463.461083,15617
1659521463.502045,15640
1659521463.544031,15638
1659521463.586017,15654
1659521463.624931,15663
1659521463.663845,15630
1659521463.702759,15499
1659521463.747134,15349
1659521463.79151,15253
1659521463.835885,15197
1659521463.869167,15146
1659521463.902449,15135
1659521463.946824,15152
1659521463.9912,15168
1659521464.035575,15152
1659521464.069369,15156
1659521464.103163,15165
1659521464.14788,15209
1659521464.192596,15253
1659521464.237314,15300
1659521464.275545,15347
1659521464.313776,15350
1659521464.352007,15359
1659521464.392969,15371
1659521464.433931,15392
1659521464.472504,15423
1659521464.511076,15473
1659521464.549649,15508
1659521464.591635,15471
1659521464.633621,15385
1659521464.672194,15321
1659521464.710767,15306
1659521464.749339,15281
1659521464.788253,15274
1659521464.827167,15311
1659521464.866081,15327
1659521464.908067,15338
1659521464.950053,15335
1659521464.988284,15342
1659521465.026515,15343
1659521465.064747,15357
1659521465.106733,15379
1659521465.148719,15413
1659521465.188316,15445
1659521465.227912,15478
1659521465.267509,15509
1659521465.306833,15533
1659521465.346156,15552
1659521465.38548,15562
1659521465.424803,15584
1659521465.464127,15600
1659521465.507137,15567
1659521465.550147,15434
1659521465.588378,15313
1659521465.62661,15271
1659521465.664841,15259
1659521465.709216,15249
1659521465.753592,15282
1659521465.797967,15329
1659521465.839954,15365
1659521465.88194,15373
1659521465.920854,15400
1659521465.959768,15423
1659521465.998682,15458
1659521466.040668,15487
1659521466.082654,15509
1659521466.12225,15540
1659521466.161847,15562
1659521466.201444,15583
1659521466.240358,15591
1659521466.279272,15618
1659521466.318186,15628
1659521466.358636,15662
1659521466.399086,15678
1659521466.438341,15664
1659521466.477596,15566
1659521466.516851,15447
1659521466.558838,15398
1659521466.600824,15404
1659521466.639055,15394
1659521466.677286,15427
1659521466.715518,15459
1659521466.754431,15471
1659521466.793345,15474
1659521466.832259,15496
1659521466.873733,15511
1659521466.915207,15544
1659521466.954121,15565
1659521466.993035,15597
1659521467.031949,15620
1659521467.073935,15651
1659521467.115921,15679
1659521467.154494,15682
1659521467.193067,15698
1659521467.231639,15725
1659521467.273113,15747
1659521467.314587,15758
1659521467.358963,15672
1659521467.403338,15549
1659521467.447714,15458
1659521467.480996,15393
1659521467.514277,15346
1659521467.553601,15313
1659521467.592925,15332
1659521467.632248,15374
1659521467.671572,15390
1659521467.710895,15378
1659521467.753393,15373
1659521467.795892,15405
1659521467.834464,15447
1659521467.873037,15491
1659521467.911609,15527
1659521467.952059,15564
1659521467.992509,15604
1659521468.037568,15631
1659521468.082626,15656
1659521468.127684,15675
1659521468.160966,15696
1659521468.194247,15701
1659521468.238964,15701
1659521468.283681,15597
1659521468.328398,15439
1659521468.36168,15358
1659521468.394961,15351
1659521468.439678,15369
1659521468.484395,15427
1659521468.529112,15476
1659521468.567343,15493
1659521468.605575,15509
1659521468.643806,15523
1659521468.686304,15532
1659521468.728802,15560
1659521468.767375,15583
1659521468.805947,15614
1659521468.84452,15634
1659521468.885482,15660
1659521468.926444,15690
1659521468.965358,15724
1659521469.004272,15746
1659521469.043186,15765
1659521469.082783,15790
1659521469.122379,15756
1659521469.161976,15633
1659521469.202938,15511
1659521469.2439,15424
1659521469.282814,15390
1659521469.321728,15368
1659521469.360642,15397
1659521469.400238,15436
1659521469.439835,15464
1659521469.479432,15464
1659521469.520906,15475
1659521469.56238,15511
1659521469.603854,15536
1659521469.645328,15565
1659521469.684242,15592
1659521469.723156,15631
1659521469.76207,15651
1659521469.805763,15663
1659521469.849456,15682
1659521469.893148,15699
1659521469.92643,15714
1659521469.959712,15725
1659521470.004087,15737
1659521470.048463,15687
1659521470.092838,15539
1659521470.125608,15432
1659521470.158378,15370
1659521470.202753,15345
1659521470.247129,15338
1659521470.291504,15363
1659521470.33076,15401
1659521470.370015,15432
1659521470.40927,15462
1659521470.451256,15478
1659521470.493242,15526
1659521470.532976,15543
1659521470.572709,15570
1659521470.612442,15600
1659521470.652175,15624
1659521470.691908,15645
1659521470.730481,15669
1659521470.769053,15682
1659521470.807626,15703
1659521470.8491,15734
1659521470.890574,15755
1659521470.929147,15771
1659521470.96772,15775
1659521471.006292,15672
1659521471.044865,15561
1659521471.083437,15501
1659521471.12201,15506
1659521471.16246,15511
1659521471.20291,15543
1659521471.241824,15557
1659521471.280738,15555
1659521471.319652,15563
1659521471.361638,15573
1659521471.403624,15598
1659521471.442197,15621
1659521471.480769,15631
1659521471.519342,15665
1659521471.561328,15690
1659521471.603314,15709
1659521471.642569,15733
1659521471.681824,15760
1659521471.72108,15790
1659521471.762554,15823
1659521471.804028,15853
1659521471.848745,15842
1659521471.893462,15742
1659521471.938179,15616
1659521471.977434,15545
1659521472.016689,15519
1659521472.055944,15503
1659521472.096907,15497
1659521472.137869,15535
1659521472.176441,15563
1659521472.215014,15583
1659521472.253587,15614
1659521472.296085,15643
1659521472.338583,15665
1659521472.376814,15663
1659521472.415045,15672
1659521472.453276,15705
1659521472.49219,15757
1659521472.531104,15807
1659521472.570018,15838
1659521472.612004,15844
1659521472.653991,15874
1659521472.692563,15896
1659521472.731136,15924
1659521472.769708,15902
1659521472.811694,15782
1659521472.85368,15651
1659521472.892936,15574
1659521472.932191,15519
1659521472.971446,15454
1659521473.009678,15439
1659521473.047909,15473
1659521473.08614,15526
1659521473.127102,15546
1659521473.168064,15577
1659521473.206978,15615
1659521473.245892,15646
1659521473.284806,15684
1659521473.325768,15718
1659521473.36673,15738
1659521473.410764,15756
1659521473.454798,15793
1659521473.498833,15801
1659521473.532115,15806
1659521473.565396,15827
1659521473.610113,15847
1659521473.65483,15836
1659521473.699547,15764
1659521473.733341,15629
1659521473.767134,15597
1659521473.811168,15611
1659521473.855202,15627
1659521473.899237,15649
1659521473.938151,15646
1659521473.977065,15653
1659521474.015979,15643
1659521474.057453,15633
1659521474.098927,15646
1659521474.138182,15676
1659521474.177437,15727
1659521474.216693,15758
1659521474.257655,15788
1659521474.298617,15825
1659521474.337531,15851
1659521474.376445,15880
1659521474.415359,15903
1659521474.45359,15928
1659521474.491821,15937
1659521474.530052,15928
1659521474.569308,15823
1659521474.608563,15740
1659521474.647818,15690
1659521474.689292,15668
1659521474.730766,15679
1659521474.77224,15689
1659521474.813715,15722
1659521474.853311,15720
1659521474.892908,15728
1659521474.932504,15730
1659521474.976539,15753
1659521475.020573,15775
1659521475.064607,15800
1659521475.097889,15835
1659521475.13117,15876
1659521475.176229,15895
1659521475.221287,15917
1659521475.266345,15929
1659521475.299115,15955
1659521475.331884,15978
1659521475.375919,15987
1659521475.419953,15961
1659521475.463987,15858
1659521475.502901,15775
1659521475.541815,15740
1659521475.580729,15707
1659521475.623227,15657
1659521475.665725,15649
1659521475.703615,15685
1659521475.741505,15714
1659521475.779395,15726
1659521475.821893,15738
1659521475.864391,15760
1659521475.906889,15781
1659521475.949387,15811
1659521475.986253,15799
1659521476.023119,15792
1659521476.059985,15795
1659521476.096851,15797
1659521476.136447,15803
1659521476.176044,15832
1659521476.215641,15855
1659521476.257115,15822
1659521476.298589,15721
1659521476.339039,15593
1659521476.379489,15507
1659521476.418403,15450
1659521476.457317,15402
1659521476.496231,15384
1659521476.540265,15418
1659521476.584299,15446
1659521476.628333,15460
1659521476.661103,15494
1659521476.693872,15537
1659521476.738248,15578
1659521476.782624,15634
1659521476.826999,15679
1659521476.860281,15715
1659521476.893563,15757
1659521476.937597,15790
1659521476.981631,15820
1659521477.025665,15848
1659521477.065262,15869
1659521477.104858,15893
1659521477.144455,15869
1659521477.185929,15733
1659521477.227403,15603
1659521477.265976,15523
1659521477.304549,15468
1659521477.343121,15459
1659521477.385107,15454
1659521477.427093,15482
1659521477.46669,15470
1659521477.506287,15459
1659521477.545883,15450
1659521477.584114,15480
1659521477.622346,15522
1659521477.660577,15564
1659521477.702051,15631
1659521477.743525,15654
1659521477.782439,15673
1659521477.821353,15703
1659521477.860267,15735
1659521477.902253,15753
1659521477.944239,15790
1659521477.982812,15819
1659521478.021384,15839
1659521478.059957,15765
1659521478.101943,15606
1659521478.143929,15494
1659521478.183184,15425
1659521478.22244,15371
1659521478.261695,15360
1659521478.303169,15389
1659521478.344643,15426
1659521478.383557,15457
1659521478.422471,15520
1659521478.461385,15558
1659521478.503883,15614
1659521478.546381,15648
1659521478.590074,15687
1659521478.633767,15718
1659521478.67746,15753
1659521478.716374,15785
1659521478.755288,15814
1659521478.794202,15837
1659521478.836188,15854
1659521478.878174,15866
1659521478.916746,15826
1659521478.955319,15712
1659521478.993892,15636
1659521479.032464,15618
1659521479.071037,15625
1659521479.109609,15624
1659521479.151083,15625
1659521479.192558,15655
1659521479.231472,15671
1659521479.270386,15666
1659521479.309299,15672
1659521479.351285,15714
1659521479.393272,15739
1659521479.432527,15770
1659521479.471782,15800
1659521479.511037,15805
1659521479.54961,15809
1659521479.588183,15816
1659521479.626755,15826
1659521479.667205,15853
1659521479.707655,15887
1659521479.746911,15920
1659521479.786166,15901
1659521479.825421,15784
1659521479.866895,15636
1659521479.908369,15590
1659521479.952404,15557
1659521479.996438,15515
1659521480.040472,15520
1659521480.073754,15572
1659521480.107035,15629
1659521480.151411,15658
1659521480.195786,15707
1659521480.240162,15758
1659521480.272932,15792
1659521480.305701,15834
1659521480.350418,15849
1659521480.395135,15888
1659521480.439852,15886
1659521480.478766,15899
1659521480.51768,15918
1659521480.556594,15947
1659521480.597556,15966
1659521480.638518,15929
1659521480.678114,15821
1659521480.717711,15744
1659521480.757308,15717
1659521480.799294,15686
1659521480.84128,15685
1659521480.87917,15721
1659521480.91706,15740
1659521480.95495,15752
1659521480.994205,15744
1659521481.03346,15764
1659521481.072716,15789
1659521481.11419,15837
1659521481.155664,15859
1659521481.197138,15895
1659521481.238612,15928
1659521481.277526,15937
1659521481.31644,15960
1659521481.355354,15964
1659521481.39734,15990
1659521481.439326,15969
1659521481.477899,15841
1659521481.516471,15692
1659521481.555044,15603
1659521481.597542,15559
1659521481.64004,15539
1659521481.679295,15557
1659521481.71855,15616
1659521481.757806,15632
1659521481.796378,15645
1659521481.834951,15657
1659521481.873524,15672
1659521481.914486,15692
1659521481.955448,15737
1659521481.995044,15752
1659521482.034641,15785
1659521482.074238,15809
1659521482.114688,15824
1659521482.155138,15865
1659521482.199513,15884
1659521482.243889,15865
1659521482.288264,15745
1659521482.321034,15612
1659521482.353804,15525
1659521482.397838,15490
1659521482.441872,15486
1659521482.485906,15492
1659521482.52482,15536
1659521482.563734,15579
1659521482.602648,15580
1659521482.644634,15585
1659521482.68662,15600
1659521482.725193,15633
1659521482.763766,15677
1659521482.802338,15710
1659521482.843812,15740
1659521482.885286,15773
1659521482.924541,15808
1659521482.963797,15835
1659521483.003052,15859
1659521483.041625,15855
1659521483.080197,15752
1659521483.11877,15637
1659521483.15922,15572
1659521483.19967,15570
1659521483.238243,15571
1659521483.276815,15610
1659521483.315388,15649
1659521483.357374,15688
1659521483.39936,15693
1659521483.437932,15696
1659521483.476505,15722
1659521483.515078,15746
1659521483.553992,15770
1659521483.592906,15796
1659521483.631819,15814
1659521483.674318,15822
1659521483.716816,15839
1659521483.758802,15855
1659521483.800788,15873
1659521483.839361,15892
1659521483.877933,15824
1659521483.916506,15677
1659521483.961223,15536
1659521484.00594,15467
1659521484.050657,15465
1659521484.083426,15482
1659521484.116196,15522
1659521484.16023,15555
1659521484.204264,15568
1659521484.248298,15559
1659521484.282604,15575
1659521484.31691,15610
1659521484.360944,15641
1659521484.404978,15683
1659521484.449013,15705
1659521484.487585,15728
1659521484.526158,15761
1659521484.56473,15784
1659521484.606204,15812
1659521484.647678,15832
1659521484.686592,15862
1659521484.725506,15878
1659521484.76442,15788
1659521484.806406,15629
1659521484.848392,15524
1659521484.887648,15521
1659521484.926903,15520
1659521484.966158,15540
1659521485.005072,15602
1659521485.043986,15644
1659521485.0829,15657
1659521485.123862,15649
1659521485.164824,15661
1659521485.20408,15678
1659521485.243335,15710
1659521485.28259,15717
1659521485.325088,15741
1659521485.367586,15748
1659521485.405476,15752
1659521485.443366,15763
1659521485.481256,15768
1659521485.52273,15793
1659521485.564204,15787
1659521485.602777,15679
1659521485.64135,15476
1659521485.679922,15333
1659521485.721396,15286
1659521485.76287,15247
1659521485.801784,15217
1659521485.840698,15217
1659521485.879612,15248
1659521485.924329,15258
1659521485.969046,15301
1659521486.013763,15362
1659521486.054725,15420
1659521486.095687,15482
1659521486.134601,15504
1659521486.173515,15540
1659521486.212429,15569
1659521486.254927,15590
1659521486.297425,15611
1659521486.336544,15631
1659521486.375663,15639
1659521486.414781,15657
1659521486.4539,15624
1659521486.493019,15476
1659521486.527324,15314
1659521486.56163,15227
1659521486.605664,15166
1659521486.649698,15141
1659521486.693733,15151
1659521486.732305,15186
1659521486.770878,15206
1659521486.809451,15196
1659521486.851437,15191
1659521486.893423,15219
1659521486.932337,15253
1659521486.971251,15295
1659521487.010164,15334
1659521487.052151,15367
1659521487.094137,15404
1659521487.133392,15428
1659521487.172647,15443
1659521487.211903,15471
1659521487.250817,15498
1659521487.289731,15534
1659521487.328645,15565
1659521487.369606,15495
1659521487.410569,15329
1659521487.450165,15199
1659521487.489762,15155
1659521487.529359,15139
1659521487.570321,15146
1659521487.611283,15192
1659521487.650197,15223
1659521487.689111,15250
1659521487.728024,15271
1659521487.768986,15303
1659521487.809949,15344
1659521487.849545,15385
1659521487.889142,15398
1659521487.928739,15408
1659521487.969701,15421
1659521488.010663,15409
1659521488.049577,15399
1659521488.08849,15413
1659521488.127404,15426
1659521488.172121,15436
1659521488.216838,15443
1659521488.261555,15407
1659521488.302517,15259
1659521488.343479,15076
1659521488.382735,14933
1659521488.42199,14841
1659521488.461245,14757
1659521488.503231,14660
1659521488.545217,14550
1659521488.583449,14423
1659521488.62168,14306
1659521488.659911,14243
1659521488.698484,14291
1659521488.737056,14400
1659521488.775629,14523
1659521488.817103,14625
1659521488.858577,14678
1659521488.897491,14716
1659521488.936405,14715
1659521488.975319,14700
1659521489.013209,14688
1659521489.051099,14686
1659521489.088989,14671
1659521489.130975,14645
1659521489.172961,14411
1659521489.211875,14106
1659521489.250789,13943
1659521489.289703,13890
1659521489.331177,13901
1659521489.372651,13960
1659521489.412247,14039
1659521489.451844,14101
1659521489.491441,14148
1659521489.533427,14161
1659521489.575413,14188
1659521489.619106,14241
1659521489.662799,14273
1659521489.706491,14307
1659521489.740285,14351
1659521489.774079,14401
1659521489.818455,14432
1659521489.86283,14467
1659521489.907206,14489
1659521489.945095,14515
1659521489.982985,14563
1659521490.020875,14541
1659521490.061837,14394
1659521490.102799,14255
1659521490.142396,14219
1659521490.181993,14228
1659521490.221589,14228
1659521490.25982,14244
1659521490.298052,14263
1659521490.336283,14261
1659521490.378781,14246
1659521490.421279,14279
1659521490.460535,14343
1659521490.49979,14413
1659521490.539045,14480
1659521490.580519,14510
1659521490.621993,14529
1659521490.661248,14523
1659521490.700504,14538
1659521490.739759,14579
1659521490.782257,14622
1659521490.824755,14643
1659521490.862987,14539
1659521490.901218,14267
1659521490.939449,13943
1659521490.978363,13707
1659521491.017277,13665
1659521491.056191,13730
1659521491.097665,13878
1659521491.139139,13979
1659521491.183173,14042
1659521491.227207,14080
1659521491.271242,14107
1659521491.304523,14131
1659521491.337805,14134
1659521491.382863,14122
1659521491.427922,14100
1659521491.47298,14071
1659521491.505237,14100
1659521491.537495,14149
1659521491.577638,14222
1659521491.617781,14278
1659521491.657923,14304
1659521491.698066,14238
1659521491.738209,14008
1659521491.779683,13703
1659521491.821157,13472
1659521491.86485,13339
1659521491.908543,13279
1659521491.952236,13295
1659521491.99115,13349
1659521492.030064,13383
1659521492.068978,13381
1659521492.110964,13396
1659521492.15295,13426
1659521492.191181,13458
1659521492.229412,13518
1659521492.267644,13554
1659521492.306216,13588
1659521492.344789,13605
1659521492.383361,13624
1659521492.424835,13662
1659521492.46631,13700
1659521492.505224,13734
1659521492.544137,13699
1659521492.583051,13531
1659521492.624526,13348
1659521492.665999,13230
1659521492.704913,13164
1659521492.743827,13139
1659521492.782741,13179
1659521492.821997,13206
1659521492.861252,13230
1659521492.900507,13239
1659521492.941981,13267
1659521492.983455,13321
1659521493.022711,13367
1659521493.061966,13424
1659521493.101221,13467
1659521493.142183,13519
1659521493.183145,13559
1659521493.221377,13581
1659521493.259608,13621
1659521493.297839,13658
1659521493.340337,13698
1659521493.382835,13750
1659521493.427211,13719
1659521493.471586,13554
1659521493.515962,13330
1659521493.549244,13159
1659521493.582525,13045
1659521493.627242,12966
1659521493.671959,12924
1659521493.716676,12968
1659521493.75559,12994
1659521493.794504,12990
1659521493.833418,13003
1659521493.875404,13031
1659521493.91739,13093
1659521493.956645,13142
1659521493.995901,13175
1659521494.035156,13129
1659521494.07663,13103
1659521494.118104,13078
1659521494.156335,13077
1659521494.194567,13113
1659521494.232798,13162
1659521494.271712,13258
1659521494.310626,13357
1659521494.34954,13452
1659521494.392038,13478
1659521494.434536,13411
1659521494.472426,13336
1659521494.510316,13294
1659521494.548206,13237
1659521494.58712,13151
1659521494.626034,13092
1659521494.664948,13091
1659521494.706933,13093
1659521494.74892,13064
1659521494.787151,13029
1659521494.825382,13026
1659521494.863613,13028
1659521494.906111,13092
1659521494.94861,13182
1659521494.990596,13277
1659521495.032582,13380
1659521495.070813,13455
1659521495.109044,13505
1659521495.147276,13518
1659521495.19131,13478
1659521495.235344,13438
1659521495.279378,13425
1659521495.313684,13491
1659521495.34799,13465
1659521495.392024,13362
1659521495.436058,13291
1659521495.480092,13242
1659521495.518665,13161
1659521495.557237,13087
1659521495.59581,13045
1659521495.637284,13022
1659521495.678758,12992
1659521495.71699,12997
1659521495.755221,13041
1659521495.793452,13116
1659521495.834926,13200
1659521495.8764,13304
1659521495.915997,13387
1659521495.955593,13486
1659521495.99519,13574
1659521496.033763,13646
1659521496.072335,13708
1659521496.110908,13760
1659521496.152894,13820
1659521496.19488,13845
1659521496.234477,13847
1659521496.274073,13716
1659521496.31367,13546
1659521496.354632,13459
1659521496.395594,13442
1659521496.434167,13443
1659521496.472739,13469
1659521496.511312,13529
1659521496.552786,13586
1659521496.59426,13662
1659521496.633515,13726
1659521496.672771,13783
1659521496.712026,13855
1659521496.752988,13918
1659521496.79395,13975
1659521496.834298,14019
1659521496.874645,14065
1659521496.914993,14099
1659521496.95534,14141
1659521496.995688,14180
1659521497.034943,14220
1659521497.074199,14259
1659521497.113454,14297
1659521497.154928,14295
1659521497.196402,14177
1659521497.24146,14052
1659521497.286519,14022
1659521497.331577,14030
1659521497.364347,14051
1659521497.397116,14077
1659521497.44115,14137
1659521497.485185,14147
1659521497.529219,14175
1659521497.563012,14172
1659521497.596806,14205
1659521497.64084,14259
1659521497.684875,14299
1659521497.728909,14328
1659521497.767481,14366
1659521497.806054,14406
1659521497.844627,14431
1659521497.886101,14466
1659521497.927575,14496
1659521497.966489,14515
1659521498.005403,14506
1659521498.044317,14365
1659521498.08323,14168
1659521498.122144,14038
1659521498.161058,13951
1659521498.20202,13878
1659521498.242982,13862
1659521498.282238,13891
1659521498.321493,13902
1659521498.360748,13917
1659521498.402222,13912
1659521498.443696,13945
1659521498.48261,13990
1659521498.521524,14032
1659521498.560438,14079
1659521498.601912,14105
1659521498.643387,14146
1659521498.681618,14176
1659521498.719849,14204
1659521498.75808,14237
1659521498.800066,14261
1659521498.842052,14303
1659521498.881308,14298
1659521498.920563,14137
1659521498.959818,13875
1659521499.003511,13666
1659521499.047204,13536
1659521499.090897,13423
1659521499.123667,13375
1659521499.156436,13406
1659521499.201494,13433
1659521499.246553,13457
1659521499.291611,13480
1659521499.324893,13527
1659521499.358174,13592
1659521499.40255,13660
1659521499.446925,13705
1659521499.491301,13767
1659521499.530898,13826
1659521499.570494,13871
1659521499.610091,13909
1659521499.650541,13960
1659521499.690991,14003
1659521499.729563,14040
1659521499.768136,14090
1659521499.806709,14061
1659521499.849719,13895
1659521499.892729,13748
1659521499.93096,13665
1659521499.969192,13656
1659521500.007423,13651
1659521500.045995,13698
1659521500.084568,13757
1659521500.123141,13773
1659521500.165127,13774
1659521500.207113,13791
1659521500.245685,13844
1659521500.284258,13893
1659521500.32283,13930
1659521500.364817,13987
1659521500.406803,14015
1659521500.446058,14047
1659521500.485313,14079
1659521500.524569,14123
1659521500.566043,14156
1659521500.607517,14197
1659521500.646089,14220
1659521500.684662,14189
1659521500.723235,14008
1659521500.765733,13747
1659521500.808231,13607
1659521500.852265,13509
1659521500.896299,13457
1659521500.940333,13439
1659521500.978565,13477
1659521501.016796,13495
1659521501.055027,13489
1659521501.096501,13509
1659521501.137975,13543
1659521501.176548,13598
1659521501.215121,13645
1659521501.253693,13699
1659521501.295167,13750
1659521501.336641,13787
1659521501.375896,13821
1659521501.415152,13858
1659521501.454407,13896
1659521501.49298,13930
1659521501.531552,13973
1659521501.570125,14016
1659521501.608697,14039
1659521501.64727,14003
1659521501.685843,13770
1659521501.727829,13529
1659521501.769815,13397
1659521501.808729,13315
1659521501.847643,13281
1659521501.886557,13318
1659521501.927519,13413
1659521501.968481,13474
1659521502.007053,13514
1659521502.045626,13542
1659521502.084199,13577
1659521502.124341,13627
1659521502.164484,13651
1659521502.204627,13688
1659521502.24477,13724
1659521502.284913,13765
1659521502.326131,13806
1659521502.367349,13852
1659521502.408567,13888
1659521502.449785,13912
1659521502.491771,13961
1659521502.533757,14009
1659521502.572671,14059
1659521502.611585,14091
1659521502.650499,14003
1659521502.689754,13831
1659521502.72901,13754
1659521502.768265,13764
1659521502.810763,13774
1659521502.853261,13814
1659521502.892175,13855
1659521502.931089,13860
1659521502.970003,13796
1659521503.010965,13752
1659521503.051927,13766
1659521503.096303,13812
1659521503.140678,13893
1659521503.185054,13944
1659521503.217823,13987
1659521503.250593,14002
1659521503.294627,14029
1659521503.338661,14057
1659521503.382696,14100
1659521503.417001,14139
1659521503.451307,14166
1659521503.495341,14203
1659521503.539375,14241
1659521503.58341,14207
1659521503.622324,14043
1659521503.661237,13864
1659521503.700151,13769
1659521503.742138,13733
1659521503.784124,13724
1659521503.823379,13725
1659521503.862634,13756
1659521503.90189,13785
1659521503.943364,13814
1659521503.984838,13851
1659521504.024093,13857
1659521504.063348,13876
1659521504.102604,13924
1659521504.140835,13991
1659521504.179066,14038
1659521504.217297,14077
1659521504.258771,14110
1659521504.300246,14139
1659521504.339501,14166
1659521504.378756,14206
1659521504.418011,14235
1659521504.458973,14257
1659521504.499935,14291
1659521504.537825,14265
1659521504.575715,14065
1659521504.613605,13788
1659521504.656103,13600
1659521504.698601,13528
1659521504.737515,13538
1659521504.776429,13593
1659521504.815343,13675
1659521504.856305,13744
1659521504.897267,13794
1659521504.936523,13854
1659521504.975778,13928
1659521505.015033,14011
1659521505.05975,14066
1659521505.104467,14133
1659521505.149184,14178
1659521505.181954,14222
1659521505.214723,14231
1659521505.25944,14251
1659521505.304157,14280
1659521505.348874,14309
1659521505.390348,14335
1659521505.431822,14356
1659521505.469712,14368
1659521505.507602,14300
1659521505.545492,14141
1659521505.584747,13991
1659521505.624002,13918
1659521505.663258,13893
1659521505.705244,13873
1659521505.74723,13897
1659521505.785802,13922
1659521505.824375,13913
1659521505.862948,13892
1659521505.902203,13914
1659521505.941458,13979
1659521505.980714,14045
1659521506.0227,14135
1659521506.064686,14169
1659521506.1036,14160
1659521506.142514,14153
1659521506.181427,14172
1659521506.223414,14217
1659521506.2654,14263
1659521506.304314,14277
1659521506.343228,14282
1659521506.382142,14292
1659521506.426176,14243
1659521506.47021,14078
1659521506.514244,13941
1659521506.547014,13908
1659521506.579783,13945
1659521506.624501,14001
1659521506.669217,14078
1659521506.713934,14155
1659521506.747216,14205
1659521506.780498,14244
1659521506.824873,14268
1659521506.869249,14320
1659521506.913624,14351
1659521506.952879,14389
1659521506.992135,14436
1659521507.03139,14481
1659521507.072352,14524
1659521507.113314,14565
1659521507.15257,14601
1659521507.191825,14642
1659521507.23108,14683
1659521507.273066,14712
1659521507.315052,14736
1659521507.354376,14715
1659521507.393699,14570
1659521507.433023,14463
1659521507.472347,14404
1659521507.51167,14397
1659521507.550925,14426
1659521507.590181,14462
1659521507.629436,14489
1659521507.66835,14484
1659521507.707264,14473
1659521507.746178,14474
1659521507.786628,14496
1659521507.827078,14515
1659521507.86565,14531
1659521507.904223,14572
1659521507.942796,14586
1659521507.985294,14619
1659521508.027792,14647
1659521508.066365,14671
1659521508.104937,14705
1659521508.14351,14718
1659521508.188227,14718
1659521508.232944,14622
1659521508.27766,14430
1659521508.311454,14268
1659521508.345248,14191
1659521508.389282,14162
1659521508.433316,14142
1659521508.47735,14162
1659521508.519336,14202
1659521508.561323,14220
1659521508.600578,14224
1659521508.639833,14250
1659521508.679089,14297
1659521508.71732,14347
1659521508.755551,14396
1659521508.793782,14427
1659521508.834744,14467
1659521508.875706,14511
1659521508.914962,14543
1659521508.954217,14590
1659521508.993472,14619
1659521509.034946,14670
1659521509.07642,14706
1659521509.114993,14745
1659521509.153566,14680
1659521509.192138,14536
1659521509.231735,14422
1659521509.271332,14404
1659521509.310928,14394
1659521509.352402,14399
1659521509.393876,14446
1659521509.43279,14492
1659521509.471704,14524
1659521509.510618,14529
1659521509.553116,14548
1659521509.595614,14598
1659521509.633846,14624
1659521509.672077,14661
1659521509.710308,14673
1659521509.75127,14685
1659521509.792232,14716
1659521509.836949,14743
1659521509.881666,14772
1659521509.926383,14801
1659521509.959665,14838
1659521509.992946,14870
1659521510.036639,14839
1659521510.080332,14711
1659521510.124025,14567
1659521510.163621,14503
1659521510.203218,14453
1659521510.242815,14413
1659521510.284289,14422
1659521510.325763,14438
1659521510.363994,14451
1659521510.402225,14453
1659521510.440457,14479
1659521510.482955,14529
1659521510.525453,14601
1659521510.564367,14645
1659521510.603281,14664
1659521510.642195,14678
1659521510.680426,14698
1659521510.718657,14708
1659521510.756888,14730
1659521510.797851,14753
1659521510.838813,14781
1659521510.878068,14795
1659521510.917323,14798
1659521510.956578,14693
1659521510.997029,14498
1659521511.037478,14324
1659521511.076051,14209
1659521511.114624,14126
1659521511.153196,14065
1659521511.191769,14066
1659521511.230341,14110
1659521511.268914,14127
1659521511.3109,14138
1659521511.352886,14181
1659521511.39436,14236
1659521511.435834,14281
1659521511.474748,14328
1659521511.513662,14367
1659521511.552576,14412
1659521511.596952,14453
1659521511.641327,14472
1659521511.685703,14505
1659521511.719497,14547
1659521511.75329,14590
1659521511.798349,14633
1659521511.843407,14685
1659521511.888465,14664
1659521511.921235,14543
1659521511.954004,14406
1659521511.998039,14359
1659521512.042073,14359
1659521512.086107,14358
1659521512.125021,14396
1659521512.163935,14432
1659521512.202849,14439
1659521512.244835,14430
1659521512.286821,14447
1659521512.325394,14461
1659521512.363966,14488
1659521512.402539,14537
1659521512.444525,14563
1659521512.486511,14589
1659521512.525425,14605
1659521512.564339,14625
1659521512.603253,14634
1659521512.644983,14675
1659521512.686713,14702
1659521512.728443,14723
1659521512.770173,14749
1659521512.808063,14687
1659521512.845953,14519
1659521512.883843,14384
1659521512.921733,14325
1659521512.962183,14268
1659521513.002633,14204
1659521513.041205,14161
1659521513.079778,14156
1659521513.118351,14135
1659521513.161361,14139
1659521513.204371,14166
1659521513.242261,14223
1659521513.280151,14244
1659521513.318041,14278
1659521513.358491,14295
1659521513.398941,14307
1659521513.438537,14343
1659521513.478134,14367
1659521513.51773,14410
1659521513.561765,14446
1659521513.605799,14510
1659521513.649833,14566
1659521513.691819,14617
1659521513.733805,14674
1659521513.772719,14692
1659521513.811633,14625
1659521513.850547,14483
1659521513.88912,14382
1659521513.927692,14320
1659521513.966265,14294
1659521514.006715,14250
1659521514.047165,14267
1659521514.08642,14326
1659521514.125676,14334
1659521514.164931,14331
1659521514.203504,14323
1659521514.242076,14350
1659521514.280649,14398
1659521514.321611,14440
1659521514.362573,14485
1659521514.401828,14521
1659521514.441083,14579
1659521514.480339,14605
1659521514.521301,14640
1659521514.562263,14657
1659521514.601518,14679
1659521514.640773,14706
1659521514.680029,14714
1659521514.722015,14680
1659521514.764001,14542
1659521514.802573,14358
1659521514.841146,14252
1659521514.879719,14222
1659521514.924094,14209
1659521514.96847,14226
1659521515.012845,14264
1659521515.047151,14276
1659521515.081457,14273
1659521515.126174,14275
1659521515.170891,14300
1659521515.215607,14340
1659521515.256058,14380
1659521515.296508,14416
1659521515.335763,14453
1659521515.375018,14477
1659521515.414274,14509
1659521515.452846,14525
1659521515.491419,14550
1659521515.529991,14547
1659521515.571977,14584
1659521515.613963,14647
1659521515.652877,14696
1659521515.691791,14665
1659521515.730705,14512
1659521515.772691,14392
1659521515.814677,14321
1659521515.85325,14262
1659521515.891823,14215
1659521515.930395,14210
1659521515.969651,14280
1659521516.008906,14309
1659521516.048161,14325
1659521516.090659,14314
1659521516.133157,14303
1659521516.17173,14309
1659521516.210303,14356
1659521516.248875,14412
1659521516.289837,14465
1659521516.330799,14535
1659521516.369372,14576
1659521516.407944,14625
1659521516.446517,14661
1659521516.488503,14689
1659521516.530489,14742
1659521516.574523,14766
1659521516.618558,14805
1659521516.662592,14789
1659521516.701164,14680
1659521516.739737,14547
1659521516.77831,14490
1659521516.819272,14484
1659521516.860234,14490
1659521516.899148,14520
1659521516.938062,14578
1659521516.976976,14619
1659521517.019474,14642
1659521517.061972,14667
1659521517.100544,14688
1659521517.139117,14741
1659521517.17769,14787
1659521517.216604,14831
1659521517.255517,14866
1659521517.294431,14880
1659521517.335906,14885
1659521517.37738,14912
1659521517.416294,14910
1659521517.455208,14925
1659521517.494122,14948
1659521517.535596,14987
1659521517.57707,15010
1659521517.615983,14920
1659521517.654897,14787
1659521517.693811,14688
1659521517.732725,14679
1659521517.771639,14693
1659521517.810553,14735
1659521517.850491,14783
1659521517.890429,14804
1659521517.930367,14817
1659521517.970305,14811
1659521518.010243,14792
1659521518.05496,14805
1659521518.099677,14841
1659521518.144394,14889
1659521518.185356,14926
1659521518.226318,14979
1659521518.265574,14999
1659521518.304829,15023
1659521518.344084,15044
1659521518.383339,15066
1659521518.422595,15090
1659521518.46185,15116
1659521518.503836,15132
1659521518.545822,15044
1659521518.584736,14902
1659521518.62365,14811
1659521518.662564,14807
1659521518.704038,14810
1659521518.745512,14815
1659521518.783402,14855
1659521518.821292,14898
1659521518.859182,14928
1659521518.898437,14938
1659521518.937692,14962
1659521518.976948,14980
1659521519.018934,15014
1659521519.06092,15045
1659521519.099151,15072
1659521519.137382,15108
1659521519.175614,15142
1659521519.2176,15168
1659521519.259586,15216
1659521519.2985,15222
1659521519.337414,15249
1659521519.376328,15268
1659521519.417802,15275
1659521519.459276,15187
1659521519.49819,15060
1659521519.537104,14998
1659521519.576018,14982
1659521519.61698,14989
1659521519.657942,15004
1659521519.701976,15030
1659521519.74601,15054
1659521519.790044,15048
1659521519.828617,15050
1659521519.867189,15074
1659521519.905762,15115
1659521519.944335,15136
1659521519.982907,15178
1659521520.02148,15192
1659521520.062954,15218
1659521520.104428,15233
1659521520.143342,15225
1659521520.182256,15244
1659521520.22117,15257
1659521520.260425,15286
1659521520.29968,15289
1659521520.338936,15195
1659521520.379898,15040
1659521520.42086,14953
1659521520.460115,14933
1659521520.499371,14922
1659521520.538626,14909
1659521520.580612,14943
1659521520.622598,14971
1659521520.66117,14986
1659521520.699743,15000
1659521520.738316,15030
1659521520.778766,15062
1659521520.819216,15117
1659521520.858812,15143
1659521520.898409,15185
1659521520.938006,15216
1659521520.978968,15240
1659521521.01993,15268
1659521521.064305,15285
1659521521.108681,15309
1659521521.153056,15346
1659521521.19197,15371
1659521521.230884,15364
1659521521.269798,15281
1659521521.311272,15157
1659521521.352746,15103
1659521521.392002,15097
1659521521.431257,15092
1659521521.470512,15089
1659521521.512498,15114
1659521521.554485,15131
1659521521.593399,15141
1659521521.632313,15142
1659521521.671227,15166
1659521521.71014,15202
1659521521.749054,15221
1659521521.787968,15237
1659521521.830466,15259
1659521521.872965,15286
1659521521.911878,15292
1659521521.950792,15296
1659521521.989706,15320
1659521522.030156,15326
1659521522.070606,15356
1659521522.109179,15327
1659521522.147752,15200
1659521522.186324,15048
1659521522.22558,14970
1659521522.264835,14926
1659521522.30409,14908
1659521522.345564,14912
1659521522.387038,14965
1659521522.425611,15019
1659521522.464183,15032
1659521522.502756,15047
1659521522.545254,15052
1659521522.587752,15059
1659521522.629738,15071
1659521522.671725,15088
1659521522.709956,15111
1659521522.748187,15122
1659521522.786418,15129
1659521522.831135,15126
1659521522.875852,15126
1659521522.920569,15141
1659521522.953339,15163
1659521522.986108,15192
1659521523.030142,15169
1659521523.074177,15060
1659521523.118211,14871
1659521523.158149,14748
1659521523.198087,14671
1659521523.238025,14625
1659521523.277963,14624
1659521523.317901,14657
1659521523.355791,14707
1659521523.393681,14748
1659521523.431571,14789
1659521523.473557,14808
1659521523.515543,14813
1659521523.554798,14803
1659521523.594053,14804
1659521523.633309,14824
1659521523.674783,14841
1659521523.716257,14880
1659521523.755512,14910
1659521523.794767,14940
1659521523.834023,14965
1659521523.872936,15014
1659521523.91185,15041
1659521523.950764,15068
1659521523.991726,15063
1659521524.032689,14947
1659521524.071944,14784
1659521524.111199,14680
1659521524.150455,14647
1659521524.192441,14636
1659521524.234427,14652
1659521524.272999,14670
1659521524.311572,14681
1659521524.350144,14651
1659521524.391618,14618
1659521524.433093,14614
1659521524.472007,14634
1659521524.510921,14657
1659521524.549834,14694
1659521524.591309,14729
1659521524.632782,14765
1659521524.672038,14800
1659521524.711293,14846
1659521524.750548,14866
1659521524.792535,14870
1659521524.834521,14890
1659521524.878896,14907
1659521524.923272,14920
1659521524.967647,14882
1659521525.006561,14720
1659521525.045475,14541
1659521525.084389,14452
1659521525.126887,14401
1659521525.169385,14369
1659521525.207617,14361
1659521525.245848,14406
1659521525.284079,14457
1659521525.325041,14510
1659521525.366003,14545
1659521525.404917,14590
1659521525.443831,14615
1659521525.482745,14615
1659521525.521659,14594
1659521525.560573,14560
1659521525.599487,14520
1659521525.640449,14471
1659521525.681411,14426
1659521525.720666,14366
1659521525.759922,14326
1659521525.799177,14281
1659521525.837749,14271
1659521525.876322,14281
1659521525.914895,14272
1659521525.956881,14164
1659521525.998867,13937
1659521526.037781,13721
1659521526.076695,13565
1659521526.115609,13522
1659521526.157083,13516
1659521526.198557,13561
1659521526.239519,13629
1659521526.280481,13645
1659521526.319736,13647
1659521526.358992,13653
1659521526.398247,13682
1659521526.442281,13721
1659521526.486315,13771
1659521526.530349,13819
1659521526.563119,13863
1659521526.595889,13904
1659521526.639923,13925
1659521526.683957,13948
1659521526.727991,13964
1659521526.766905,13984
1659521526.805819,14012
1659521526.844733,13987
1659521526.886719,13843
1659521526.928705,13644
1659521526.967619,13531
1659521527.006533,13491
1659521527.045447,13473
1659521527.086921,13498
1659521527.128395,13524
1659521527.167651,13543
1659521527.206906,13538
1659521527.246161,13551
1659521527.284393,13578
1659521527.322624,13615
1659521527.360855,13647
1659521527.403353,13671
1659521527.445851,13705
1659521527.484424,13737
1659521527.522996,13770
1659521527.561569,13790
1659521527.602531,13798
1659521527.643493,13822
1659521527.682749,13869
1659521527.722004,13883
1659521527.761259,13786
1659521527.803757,13611
1659521527.846255,13481
1659521527.884145,13417
1659521527.922035,13371
1659521527.959925,13327
1659521528.002423,13326
1659521528.044921,13329
1659521528.083835,13332
1659521528.122749,13353
1659521528.161663,13364
1659521528.206039,13411
1659521528.250414,13449
1659521528.29479,13506
1659521528.328583,13539
1659521528.362377,13589
1659521528.404107,13626
1659521528.445837,13665
1659521528.487567,13713
1659521528.529298,13746
1659521528.56787,13786
1659521528.606443,13820
1659521528.645015,13805
1659521528.686489,13676
1659521528.727963,13511
1659521528.765853,13417
1659521528.803743,13391
1659521528.841633,13381
1659521528.885667,13398
1659521528.929702,13448
1659521528.973736,13452
1659521529.007529,13440
1659521529.041323,13438
1659521529.085699,13404
1659521529.130074,13334
1659521529.17445,13273
1659521529.213364,13324
1659521529.252278,13438
1659521529.291192,13543
1659521529.333178,13621
1659521529.375164,13700
1659521529.413736,13780
1659521529.452309,13832
1659521529.490882,13886
1659521529.532356,13866
1659521529.57383,13754
1659521529.612744,13575
1659521529.651658,13445
1659521529.690572,13333
1659521529.728803,13249
1659521529.767034,13228
1659521529.805265,13242
1659521529.846227,13263
1659521529.887189,13277
1659521529.926103,13306
1659521529.965017,13370
1659521530.003931,13441
1659521530.045917,13493
1659521530.087903,13523
1659521530.126476,13545
1659521530.165049,13555
1659521530.203621,13554
1659521530.245607,13560
1659521530.287593,13561
1659521530.326507,13596
1659521530.365421,13666
1659521530.404335,13744
1659521530.446321,13734
1659521530.488307,13642
1659521530.527563,13576
1659521530.566818,13547
1659521530.606073,13553
1659521530.650449,13565
1659521530.694824,13651
1659521530.7392,13751
1659521530.77965,13814
1659521530.8201,13853
1659521530.859014,13891
1659521530.897928,13934
1659521530.936842,13976
1659521530.97934,14024
1659521531.021838,14064
1659521531.060069,14083
1659521531.098301,14094
1659521531.136532,14098
1659521531.175104,14093
1659521531.213677,14108
1659521531.25225,14135
1659521531.294236,14167
1659521531.336222,14213
1659521531.375136,14219
1659521531.41405,14074
1659521531.452964,13839
1659521531.494438,13630
1659521531.535912,13524
1659521531.575167,13440
1659521531.614423,13437
1659521531.653678,13486
1659521531.692592,13505
1659521531.731506,13523
1659521531.77042,13544
1659521531.812406,13594
1659521531.854392,13624
1659521531.893306,13662
1659521531.93222,13677
1659521531.971134,13683
1659521532.012096,13720
1659521532.053058,13738
1659521532.090948,13746
1659521532.128838,13768
1659521532.166728,13793
1659521532.209226,13813
1659521532.251724,13818
1659521532.295758,13736
1659521532.339792,13494
1659521532.383826,13220
1659521532.416596,13007
1659521532.449366,12865
1659521532.493741,12756
1659521532.538117,12684
1659521532.582492,12654
1659521532.621747,12628
1659521532.661003,12581
1659521532.700258,12562
1659521532.738489,12557
1659521532.776721,12601
1659521532.814952,12640
1659521532.85745,12698
1659521532.899948,12748
1659521532.938862,12779
1659521532.977776,12821
1659521533.01669,12852
1659521533.05714,12889
1659521533.09759,12928
1659521533.136504,12975
1659521533.175418,13011
1659521533.214332,13063
1659521533.252904,13006
1659521533.291477,12793
1659521533.33005,12566
1659521533.371524,12411
1659521533.412998,12329
1659521533.452595,12240
1659521533.492191,12216
1659521533.531788,12236
1659521533.573774,12275
1659521533.61576,12296
1659521533.655903,12323
1659521533.696046,12374
1659521533.736188,12435
1659521533.776331,12511
1659521533.816474,12578
1659521533.85846,12637
1659521533.900446,12706
1659521533.939019,12767
1659521533.977591,12822
1659521534.016164,12879
1659521534.05815,12929
1659521534.100136,12985
1659521534.13905,13032
1659521534.177964,13083
1659521534.216878,13119
1659521534.258352,13087
1659521534.299826,12920
1659521534.338057,12734
1659521534.376289,12647
1659521534.41452,12593
1659521534.459237,12558
1659521534.503954,12568
1659521534.548671,12590
1659521534.590657,12581
1659521534.632643,12568
1659521534.671215,12566
1659521534.709788,12591
1659521534.748361,12629
1659521534.787616,12661
1659521534.826871,12703
1659521534.866127,12750
1659521534.907601,12800
1659521534.949075,12833
1659521534.987647,12872
1659521535.02622,12911
1659521535.064792,12946
1659521535.107291,13002
1659521535.149789,13031
1659521535.188361,13066
1659521535.226934,13107
1659521535.265507,13046
1659521535.303738,12832
1659521535.341969,12591
1659521535.3802,12442
1659521535.421162,12330
1659521535.462124,12247
1659521535.501379,12199
1659521535.540635,12186
1659521535.57989,12196
1659521535.620852,12177
1659521535.661814,12176
1659521535.700728,12187
1659521535.739642,12212
1659521535.778556,12265
1659521535.82003,12317
1659521535.861504,12370
1659521535.901101,12418
1659521535.940697,12480
1659521535.980294,12526
1659521536.021256,12584
1659521536.062218,12624
1659521536.107276,12660
1659521536.152335,12721
1659521536.197393,12771
1659521536.235624,12823
1659521536.273855,12824
1659521536.312087,12667
1659521536.353049,12465
1659521536.394011,12335
1659521536.433266,12279
1659521536.472522,12237
1659521536.511777,12237
1659521536.552739,12279
1659521536.593701,12315
1659521536.632273,12347
1659521536.670846,12370
1659521536.709419,12425
1659521536.748674,12495
1659521536.787929,12564
1659521536.827184,12634
1659521536.869683,12690
1659521536.912181,12763
1659521536.951095,12826
1659521536.990009,12879
1659521537.028923,12924
1659521537.070397,12977
1659521537.111871,13037
1659521537.151468,13080
1659521537.191064,13136
1659521537.230661,13186
1659521537.268892,13151
1659521537.307123,13007
1659521537.345355,12897
1659521537.387853,12831
1659521537.430351,12805
1659521537.472337,12798
1659521537.514323,12822
1659521537.552213,12838
1659521537.590103,12833
1659521537.627993,12851
1659521537.672368,12868
1659521537.716744,12904
1659521537.761119,12953
1659521537.795425,12984
1659521537.829731,13035
1659521537.873424,13064
1659521537.917116,13092
1659521537.960809,13121
1659521537.999723,13151
1659521538.038637,13188
1659521538.077551,13215
1659521538.119537,13249
1659521538.161523,13288
1659521538.199754,13284
1659521538.237986,13145
1659521538.276217,12916
1659521538.317691,12742
1659521538.359165,12623
1659521538.398762,12529
1659521538.438359,12461
1659521538.477955,12454
1659521538.515845,12447
1659521538.553735,12447
1659521538.591625,12452
1659521538.632587,12473
1659521538.673549,12528
1659521538.712121,12578
1659521538.750694,12638
1659521538.789267,12698
1659521538.831253,12755
1659521538.873239,12816
1659521538.912972,12863
1659521538.952705,12912
1659521538.992439,12949
1659521539.032172,12964
1659521539.071905,12962
1659521539.110477,12962
1659521539.14905,12916
1659521539.187623,12729
1659521539.229609,12437
1659521539.271595,12185
1659521539.31085,12054
1659521539.350106,11982
1659521539.389361,11926
1659521539.434078,11887
1659521539.478795,11848
1659521539.523511,11805
1659521539.555769,11723
1659521539.588027,11695
1659521539.632744,11696
1659521539.67746,11760
1659521539.722177,11846
1659521539.764163,11923
1659521539.806149,12006
1659521539.844381,12080
1659521539.882612,12175
1659521539.920843,12261
1659521539.959757,12343
1659521539.998671,12436
1659521540.037585,12505
1659521540.079571,12567
1659521540.121557,12605
1659521540.160471,12542
1659521540.199385,12375
1659521540.238299,12238
1659521540.280285,12183
1659521540.322271,12176
1659521540.361185,12199
1659521540.400099,12251
1659521540.439013,12307
1659521540.477927,12333
1659521540.516841,12341
1659521540.555755,12389
1659521540.597741,12443
1659521540.639727,12514
1659521540.6783,12566
1659521540.716872,12578
1659521540.755445,12585
1659521540.796407,12597
1659521540.837369,12629
1659521540.875942,12670
1659521540.914514,12750
1659521540.953087,12798
1659521540.995585,12843
1659521541.038083,12922
1659521541.076997,12918
1659521541.115911,12813
1659521541.154825,12701
1659521541.198518,12691
1659521541.242211,12725
1659521541.285904,12734
1659521541.32789,12747
1659521541.369876,12764
1659521541.408448,12759
1659521541.447021,12752
1659521541.485594,12782
1659521541.52758,12805
1659521541.569566,12838
1659521541.608138,12857
1659521541.646711,12862
1659521541.685284,12875
1659521541.724539,12901
1659521541.763794,12946
1659521541.80305,12951
1659521541.843499,12988
1659521541.88395,13006
1659521541.922522,13045
1659521541.961095,13092
1659521541.999667,13071
1659521542.03824,12887
1659521542.076813,12637
1659521542.115385,12488
1659521542.156859,12406
1659521542.198333,12356
1659521542.237589,12322
1659521542.276844,12321
1659521542.316099,12318
1659521542.357573,12293
1659521542.399047,12311
1659521542.437279,12334
1659521542.47551,12394
1659521542.513741,12453
1659521542.556751,12502
1659521542.599761,12549
1659521542.638675,12580
1659521542.677589,12617
1659521542.716503,12655
1659521542.757977,12711
1659521542.799451,12755
1659521542.843827,12807
1659521542.888202,12876
1659521542.932578,12945
1659521542.966884,12970
1659521543.001189,12839
1659521543.045224,12654
1659521543.089258,12539
1659521543.133292,12503
1659521543.171865,12505
1659521543.210437,12546
1659521543.24901,12613
1659521543.287924,12651
1659521543.326838,12624
1659521543.365752,12595
1659521543.407226,12584
1659521543.4487,12607
1659521543.488297,12660
1659521543.527893,12717
1659521543.56749,12804
1659521543.609476,12897
1659521543.651462,12973
1659521543.690035,13056
1659521543.728607,13142
1659521543.76718,13201
1659521543.806435,13251
1659521543.84569,13308
1659521543.884946,13352
1659521543.927444,13397
1659521543.969942,13399
1659521544.008173,13295
1659521544.046404,13120
1659521544.084635,13040
1659521544.125598,13024
1659521544.16656,13030
1659521544.206498,13077
1659521544.246436,13138
1659521544.286374,13157
1659521544.326312,13129
1659521544.36625,13141
1659521544.410284,13208
1659521544.454318,13285
1659521544.498352,13366
1659521544.536925,13424
1659521544.575497,13493
1659521544.61407,13550
1659521544.655544,13609
1659521544.697018,13653
1659521544.735591,13675
1659521544.774163,13696
1659521544.812736,13738
1659521544.851991,13771
1659521544.891247,13811
1659521544.930502,13768
1659521544.971976,13620
1659521545.01345,13508
1659521545.052364,13449
1659521545.091278,13430
1659521545.130192,13439
1659521545.171666,13475
1659521545.21314,13504
1659521545.251713,13516
1659521545.290285,13521
1659521545.328858,13531
1659521545.36743,13570
1659521545.406003,13620
1659521545.444576,13676
1659521545.486562,13724
1659521545.528548,13751
1659521545.567462,13780
1659521545.606376,13825
1659521545.64529,13854
1659521545.686252,13886
1659521545.727214,13920
1659521545.771589,13954
1659521545.815965,13981
1659521545.86034,14002
1659521545.894646,13933
1659521545.928952,13770
1659521545.972986,13646
1659521546.01702,13607
1659521546.061054,13609
1659521546.094336,13607
1659521546.127618,13625
1659521546.171993,13659
1659521546.216369,13696
1659521546.260744,13712
1659521546.299658,13721
1659521546.338572,13736
1659521546.377486,13741
1659521546.419472,13772
1659521546.461458,13818
1659521546.500372,13824
1659521546.539286,13836
1659521546.5782,13850
1659521546.616773,13869
1659521546.655345,13875
1659521546.693918,13910
1659521546.735392,13947
1659521546.776866,13978
1659521546.816804,13974
1659521546.856742,13831
1659521546.89668,13605
1659521546.938154,13403
1659521546.979628,13299
1659521547.01786,13264
1659521547.056091,13302
1659521547.094322,13372
1659521547.133919,13383
1659521547.173515,13365
1659521547.213112,13346
1659521547.254586,13392
1659521547.29606,13418
1659521547.33651,13440
1659521547.37696,13482
1659521547.415874,13498
1659521547.454788,13551
1659521547.493702,13616
1659521547.537736,13670
1659521547.58177,13709
1659521547.625805,13738
1659521547.658574,13773
1659521547.691344,13812
1659521547.735719,13797
1659521547.780095,13626
1659521547.824471,13419
1659521547.85724,13273
1659521547.89001,13184
1659521547.934044,13128
1659521547.978078,13118
1659521548.022113,13142
1659521548.061368,13150
1659521548.100623,13156
1659521548.139879,13170
1659521548.181865,13204
1659521548.223851,13240
1659521548.262082,13264
1659521548.300313,13303
1659521548.338544,13352
1659521548.380531,13398
1659521548.422517,13441
1659521548.461089,13491
1659521548.499662,13540
1659521548.538234,13572
1659521548.576466,13624
1659521548.614697,13657
1659521548.652928,13646
1659521548.695426,13515
1659521548.737924,13313
1659521548.776838,13198
1659521548.815752,13154
1659521548.854666,13106
1659521548.895116,13064
1659521548.935566,13037
1659521548.974822,13059
1659521549.014077,13055
1659521549.053332,13067
1659521549.09583,13149
1659521549.138328,13202
1659521549.177242,13215
1659521549.216156,13241
1659521549.25507,13269
1659521549.296544,13287
1659521549.338018,13289
1659521549.378541,13274
1659521549.419065,13253
1659521549.459588,13215
1659521549.500111,13151
1659521549.540634,13097
1659521549.581157,12998
1659521549.62168,12760
1659521549.660594,12622
1659521549.699508,12575
1659521549.738422,12550
1659521549.780409,12558
1659521549.822395,12651
1659521549.860626,12722
1659521549.898857,12762
1659521549.937088,12746
1659521549.981464,12724
1659521550.02584,12729
1659521550.070215,12747
1659521550.103497,12798
1659521550.136778,12865
1659521550.181154,12936
1659521550.225529,12983
1659521550.269905,13006
1659521550.311891,13024
1659521550.353877,13054
1659521550.393132,13081
1659521550.432388,13120
1659521550.471643,13160
1659521550.510216,13154
1659521550.548788,13001
1659521550.587361,12752
1659521550.628323,12579
1659521550.669285,12504
1659521550.707858,12461
1659521550.74643,12466
1659521550.785003,12538
1659521550.826989,12644
1659521550.868975,12696
1659521550.907547,12738
1659521550.94612,12799
1659521550.984693,12870
1659521551.023607,12936
1659521551.062521,13005
1659521551.101434,13079
1659521551.142397,13114
1659521551.183359,13141
1659521551.22159,13134
1659521551.259821,13114
1659521551.298052,13110
1659521551.340551,13089
1659521551.383049,13077
1659521551.421963,13079
1659521551.460876,13082
1659521551.49979,12961
1659521551.540753,12770
1659521551.581715,12632
1659521551.62097,12558
1659521551.660225,12492
1659521551.699481,12443
1659521551.741979,12435
1659521551.784477,12456
1659521551.82817,12482
1659521551.871862,12505
1659521551.915555,12541
1659521551.954469,12590
1659521551.993383,12657
1659521552.032297,12705
1659521552.073771,12765
1659521552.115245,12794
1659521552.153818,12810
1659521552.19239,12828
1659521552.230963,12857
1659521552.272949,12885
1659521552.314935,12895
1659521552.354532,12892
1659521552.394129,12854
1659521552.433725,12767
1659521552.471956,12454
1659521552.510188,11989
1659521552.548419,11776
1659521552.590405,11740
1659521552.632391,11775
1659521552.672329,11782
1659521552.712267,11780
1659521552.752205,11787
1659521552.793679,11793
1659521552.835153,11831
1659521552.873726,11900
1659521552.912298,11986
1659521552.950871,12057
1659521552.989785,12126
1659521553.028699,12186
1659521553.067613,12239
1659521553.109087,12288
1659521553.150561,12345
1659521553.189134,12414
1659521553.227706,12487
1659521553.266279,12560
1659521553.307753,12641
1659521553.349227,12704
1659521553.393603,12742
1659521553.437978,12665
1659521553.482354,12424
1659521553.515635,12201
1659521553.548917,12042
1659521553.593975,11898
1659521553.639034,11806
1659521553.684092,11868
1659521553.716349,11996
1659521553.748607,12122
1659521553.792983,12229
1659521553.837358,12353
1659521553.881734,12485
1659521553.920648,12553
1659521553.959562,12613
1659521553.998476,12672
1659521554.040462,12765
1659521554.082448,12843
1659521554.120679,12893
1659521554.15891,12934
1659521554.197141,12949
1659521554.238616,12979
1659521554.28009,13026
1659521554.318662,13066
1659521554.357235,13062
1659521554.395807,12930
1659521554.434039,12774
1659521554.47227,12716
1659521554.510501,12712
1659521554.549757,12707
1659521554.589012,12714
1659521554.628267,12737
1659521554.671687,12744
1659521554.715106,12753
1659521554.758526,12757
1659521554.801946,12800
1659521554.845366,12854
1659521554.884621,12919
1659521554.923877,12976
1659521554.963132,13027
1659521555.004606,13098
1659521555.04608,13154
1659521555.084311,13210
1659521555.122542,13264
1659521555.160774,13295
1659521555.20037,13346
1659521555.239967,13381
1659521555.279564,13419
1659521555.320526,13448
1659521555.361488,13360
1659521555.40006,13197
1659521555.438633,13117
1659521555.477206,13117
1659521555.51868,13115
1659521555.560154,13145
1659521555.59975,13186
1659521555.639347,13235
1659521555.678944,13274
1659521555.717516,13294
1659521555.756089,13329
1659521555.794661,13377
1659521555.836135,13424
1659521555.877609,13463
1659521555.917206,13508
1659521555.956803,13538
1659521555.996399,13572
1659521556.037874,13619
1659521556.079348,13633
1659521556.11792,13676
1659521556.156493,13704
1659521556.195065,13747
1659521556.237051,13775
1659521556.279037,13748
1659521556.322731,13602
1659521556.366423,13449
1659521556.410116,13395
1659521556.443398,13388
1659521556.47668,13400
1659521556.521055,13431
1659521556.565431,13480
1659521556.609806,13504
1659521556.648379,13526
1659521556.686951,13538
1659521556.725524,13571
1659521556.766998,13609
1659521556.808472,13645
1659521556.847727,13701
1659521556.886983,13719
1659521556.926238,13747
1659521556.968224,13785
1659521557.01021,13813
1659521557.048441,13849
1659521557.086673,13870
1659521557.124904,13896
1659521557.1645,13916
1659521557.204097,13952
1659521557.243694,13975
1659521557.284656,13971
1659521557.325618,13860
1659521557.363508,13682
1659521557.401398,13592
1659521557.439288,13588
1659521557.478202,13591
1659521557.517116,13598
1659521557.55603,13648
1659521557.598016,13685
1659521557.640002,13704
1659521557.680452,13729
1659521557.720902,13754
1659521557.759816,13794
1659521557.79873,13831
1659521557.837644,13869
1659521557.87963,13898
1659521557.921616,13932
1659521557.960188,13959
1659521557.998761,13985
1659521558.037333,14018
1659521558.082392,14051
1659521558.12745,14073
1659521558.172508,14107
1659521558.20579,14132
1659521558.239072,14166
1659521558.283106,14198
1659521558.32714,14197
1659521558.371174,14088
1659521558.40548,13959
1659521558.439786,13900
1659521558.484503,13912
1659521558.529219,13943
1659521558.573936,13963
1659521558.612168,13997
1659521558.650399,14023
1659521558.68863,14029
1659521558.730104,14045
1659521558.771578,14075
1659521558.810492,14099
1659521558.849406,14130
1659521558.88832,14167
1659521558.927234,14188
1659521558.966148,14209
1659521559.005062,14245
1659521559.046536,14260
1659521559.08801,14287
1659521559.127265,14313
1659521559.166521,14321
1659521559.205776,14350
1659521559.246738,14364
1659521559.2877,14387
1659521559.326955,14356
1659521559.366211,14228
1659521559.405466,14097
1659521559.447452,14056
1659521559.489438,14052
1659521559.528011,14059
1659521559.566583,14074
1659521559.605156,14107
1659521559.646118,14133
1659521559.68708,14137
1659521559.726335,14156
1659521559.765591,14174
1659521559.804846,14228
1659521559.845808,14254
1659521559.88677,14267
1659521559.926503,14301
1659521559.966236,14322
1659521560.00597,14345
1659521560.045703,14369
1659521560.085436,14393
1659521560.127422,14422
1659521560.169408,14438
1659521560.208663,14454
1659521560.247919,14476
1659521560.287174,14510
1659521560.328136,14524
1659521560.369098,14462
1659521560.408354,14321
1659521560.447609,14230
1659521560.486864,14219
1659521560.530557,14224
1659521560.57425,14228
1659521560.617943,14255
1659521560.651224,14292
1659521560.684506,14309
1659521560.728882,14316
1659521560.773257,14338
1659521560.817633,14363
1659521560.859107,14382
1659521560.900581,14425
1659521560.938812,14442
1659521560.977043,14477
1659521561.015275,14498
1659521561.054871,14517
1659521561.094468,14539
1659521561.134064,14561
1659521561.175539,14575
1659521561.217013,14595
1659521561.255585,14623
1659521561.294158,14646
1659521561.33273,14648
1659521561.374717,14543
1659521561.416703,14440
1659521561.456299,14407
1659521561.495896,14413
1659521561.535492,14422
1659521561.573724,14428
1659521561.611955,14465
1659521561.650186,14466
1659521561.692684,14461
1659521561.735183,14460
1659521561.773755,14467
1659521561.812328,14498
1659521561.8509,14528
1659521561.892886,14561
1659521561.934872,14587
1659521561.973786,14608
1659521562.0127,14626
1659521562.051614,14652
1659521562.093088,14665
1659521562.134562,14676
1659521562.172794,14708
1659521562.211025,14722
1659521562.249256,14737
1659521562.291754,14751
1659521562.334253,14696
1659521562.379311,14549
1659521562.424369,14447
1659521562.469427,14421
1659521562.507658,14420
1659521562.54589,14417
1659521562.584121,14438
1659521562.625595,14465
1659521562.667069,14491
1659521562.706666,14482
1659521562.746262,14494
1659521562.785859,14512
1659521562.827333,14538
1659521562.868807,14572
1659521562.90738,14603
1659521562.945952,14633
1659521562.984525,14655
1659521563.023098,14673
1659521563.06167,14697
1659521563.100243,14716
1659521563.140693,14740
1659521563.181143,14760
1659521563.219374,14777
1659521563.257605,14806
1659521563.295837,14820
1659521563.335092,14828
1659521563.374347,14825
1659521563.413602,14714
1659521563.455076,14613
1659521563.496551,14583
1659521563.535465,14565
1659521563.574378,14575
1659521563.613292,14584
1659521563.655278,14612
1659521563.697265,14632
1659521563.739251,14629
1659521563.781237,14634
1659521563.819809,14645
1659521563.858382,14677
1659521563.896955,14701
1659521563.94133,14734
1659521563.985706,14743
1659521564.030081,14762
1659521564.062339,14787
1659521564.094597,14800
1659521564.138631,14818
1659521564.182665,14836
1659521564.226699,14858
1659521564.265613,14874
1659521564.304527,14888
1659521564.343441,14902
1659521564.385939,14851
1659521564.428437,14741
1659521564.466668,14667
1659521564.5049,14642
1659521564.543131,14656
1659521564.582386,14657
1659521564.621642,14670
1659521564.660897,14709
1659521564.702371,14700
1659521564.743845,14696
1659521564.7831,14701
1659521564.822356,14719
1659521564.861611,14751
1659521564.900525,14773
1659521564.939439,14791
1659521564.978353,14807
1659521565.020851,14826
1659521565.063349,14834
1659521565.10158,14854
1659521565.139812,14868
1659521565.178043,14888
1659521565.219773,14898
1659521565.261503,14919
1659521565.303233,14932
1659521565.344963,14948
1659521565.383536,14937
1659521565.422108,14820
1659521565.460681,14726
1659521565.501643,14674
1659521565.542605,14662
1659521565.582202,14657
1659521565.621798,14668
1659521565.661395,14710
1659521565.702869,14735
1659521565.744343,14754
1659521565.782574,14754
1659521565.820806,14781
1659521565.859037,14798
1659521565.903754,14818
1659521565.948471,14854
1659521565.993187,14880
1659521566.035174,14900
1659521566.07716,14916
1659521566.116074,14940
1659521566.154988,14944
1659521566.193902,14962
1659521566.232816,14959
1659521566.271729,14964
1659521566.310643,14992
1659521566.351605,15009
1659521566.392567,14989
1659521566.430457,14909
1659521566.468347,14834
1659521566.506237,14824
1659521566.545151,14818
1659521566.584065,14830
1659521566.622979,14847
1659521566.664965,14878
1659521566.706951,14885
1659521566.745183,14871
1659521566.783414,14876
1659521566.821645,14882
1659521566.863631,14907
1659521566.905617,14942
1659521566.944531,14953
1659521566.983445,14978
1659521567.022359,15005
1659521567.063833,15028
1659521567.105307,15042
1659521567.144562,15049
1659521567.183818,15052
1659521567.223073,15062
1659521567.264035,15076
1659521567.304997,15056
1659521567.343228,14955
1659521567.38146,14846
1659521567.419691,14791
1659521567.464408,14762
1659521567.509125,14753
1659521567.553842,14742
1659521567.59634,14740
1659521567.638838,14755
1659521567.677069,14760
1659521567.7153,14773
1659521567.753531,14799
1659521567.794494,14829
1659521567.835456,14863
1659521567.875052,14892
1659521567.914649,14934
1659521567.954246,14947
1659521567.992818,14962
1659521568.031391,14974
1659521568.069963,15001
1659521568.112462,15007
1659521568.15496,15019
1659521568.194215,15051
1659521568.23347,15044
1659521568.272726,14940
1659521568.313688,14847
1659521568.35465,14809
1659521568.393222,14804
1659521568.431795,14803
1659521568.470367,14815
1659521568.512866,14833
1659521568.555364,14845
1659521568.593595,14830
1659521568.631826,14830
1659521568.670057,14841
1659521568.70863,14848
1659521568.747203,14862
1659521568.785775,14869
1659521568.827249,14881
1659521568.868723,14894
1659521568.907979,14907
1659521568.947234,14928
1659521568.986489,14940
1659521569.027451,14956
1659521569.068413,14932
1659521569.11313,14826
1659521569.157847,14700
1659521569.202564,14625
1659521569.235334,14572
1659521569.268103,14533
1659521569.312479,14519
1659521569.356854,14534
1659521569.40123,14562
1659521569.440485,14548
1659521569.479741,14560
1659521569.518996,14580
1659521569.559958,14620
1659521569.60092,14640
1659521569.639151,14657
1659521569.677382,14675
1659521569.715614,14689
1659521569.756576,14708
1659521569.797538,14740
1659521569.836793,14739
1659521569.876048,14776
1659521569.915304,14782
1659521569.953876,14741
1659521569.992449,14602
1659521570.031022,14434
1659521570.072495,14333
1659521570.11397,14262
1659521570.153566,14187
1659521570.193163,14150
1659521570.232759,14152
1659521570.274746,14137
1659521570.316732,14121
1659521570.355304,14101
1659521570.393877,14105
1659521570.43245,14122
1659521570.472592,14149
1659521570.512735,14187
1659521570.552878,14216
1659521570.593021,14254
1659521570.633164,14271
1659521570.67515,14299
1659521570.717136,14324
1659521570.75605,14351
1659521570.794964,14390
1659521570.833878,14396
1659521570.875352,14319
1659521570.916826,14166
1659521570.954716,14018
1659521570.992606,13947
1659521571.030495,13889
1659521571.072994,13847
1659521571.115492,13849
1659521571.154406,13860
1659521571.19332,13855
1659521571.232234,13822
1659521571.273708,13821
1659521571.315182,13832
1659521571.359899,13848
1659521571.404616,13863
1659521571.449332,13888
1659521571.488929,13901
1659521571.528526,13920
1659521571.568122,13930
1659521571.609596,13942
1659521571.651071,13978
1659521571.689985,13996
1659521571.728899,14002
1659521571.767812,13903
1659521571.809798,13668
1659521571.851784,13424
1659521571.890016,13242
1659521571.928247,13126
1659521571.966478,13036
1659521572.005051,13021
1659521572.043623,13020
1659521572.082196,12968
1659521572.124694,12938
1659521572.167192,12917
1659521572.205082,12927
1659521572.242972,12947
1659521572.280862,12971
1659521572.322336,12999
1659521572.36381,13038
1659521572.402724,13069
1659521572.441638,13099
1659521572.480552,13131
1659521572.519125,13166
1659521572.557697,13202
1659521572.59627,13241
1659521572.638256,13247
1659521572.680242,13135
1659521572.722228,12846
1659521572.764214,12567
1659521572.802445,12371
1659521572.840677,12207
1659521572.878908,12070
1659521572.922942,12011
1659521572.966976,12001
1659521573.011011,11979
1659521573.045316,11955
1659521573.079622,11970
1659521573.123656,11997
1659521573.16769,12052
1659521573.211725,12107
1659521573.249956,12161
1659521573.288187,12214
1659521573.326418,12252
1659521573.368404,12297
1659521573.410391,12335
1659521573.449305,12382
1659521573.488218,12432
1659521573.527132,12500
1659521573.568606,12557
1659521573.61008,12615
1659521573.649336,12643
1659521573.688591,12527
1659521573.727846,12309
1659521573.76676,12154
1659521573.805674,12093
1659521573.844588,12044
1659521573.886062,12046
1659521573.927536,12066
1659521573.967133,12094
1659521574.00673,12109
1659521574.046326,12107
1659521574.087288,12143
1659521574.12825,12164
1659521574.167164,12203
1659521574.206078,12243
1659521574.244992,12286
1659521574.285954,12351
1659521574.326916,12394
1659521574.366513,12454
1659521574.40611,12494
1659521574.445706,12539
1659521574.486668,12591
1659521574.52763,12638
1659521574.566544,12697
1659521574.605458,12711
1659521574.644372,12582
1659521574.686358,12356
1659521574.728344,12185
1659521574.7676,12079
1659521574.806855,11994
1659521574.84611,11971
1659521574.890145,11983
1659521574.934179,12016
1659521574.978213,12020
1659521575.020199,12034
1659521575.062185,12068
1659521575.100416,12146
1659521575.138648,12240
1659521575.176879,12311
1659521575.215451,12392
1659521575.254024,12465
1659521575.292597,12538
1659521575.334071,12615
1659521575.375545,12662
1659521575.414459,12725
1659521575.453373,12766
1659521575.492287,12819
1659521575.532737,12864
1659521575.573187,12925
1659521575.612101,12932
1659521575.651015,12821
1659521575.689929,12649
1659521575.729867,12537
1659521575.769804,12511
1659521575.809742,12482
1659521575.849681,12482
1659521575.889619,12542
1659521575.928874,12575
1659521575.968129,12580
1659521576.007385,12586
1659521576.049371,12628
1659521576.091357,12676
1659521576.129246,12748
1659521576.167136,12817
1659521576.205026,12866
1659521576.249402,12920
1659521576.293777,12965
1659521576.338153,13006
1659521576.371947,13056
1659521576.40574,13087
1659521576.449433,13128
1659521576.493126,13171
1659521576.536819,13197
1659521576.575733,13135
1659521576.614647,12957
1659521576.653561,12763
1659521576.695547,12666
1659521576.737533,12608
1659521576.775764,12552
1659521576.813995,12566
1659521576.852227,12605
1659521576.894725,12609
1659521576.937223,12597
1659521576.976478,12586
1659521577.015733,12621
1659521577.054989,12670
1659521577.093903,12741
1659521577.132817,12785
1659521577.171731,12827
1659521577.213205,12886
1659521577.254679,12926
1659521577.294276,12952
1659521577.333872,12980
1659521577.373469,13012
1659521577.413919,13046
1659521577.454369,13098
1659521577.493283,13125
1659521577.532197,13081
1659521577.571111,12891
1659521577.612585,12718
1659521577.654059,12654
1659521577.693314,12612
1659521577.732569,12588
1659521577.771825,12618
1659521577.812787,12682
1659521577.853749,12728
1659521577.893004,12739
1659521577.932259,12774
1659521577.971515,12815
1659521578.01589,12864
1659521578.060266,12914
1659521578.104641,12957
1659521578.146116,13023
1659521578.187589,13068
1659521578.227186,13112
1659521578.266783,13151
1659521578.30638,13194
1659521578.347853,13231
1659521578.389328,13276
1659521578.427559,13310
1659521578.46579,13298
1659521578.504021,13160
1659521578.542935,13017
1659521578.581849,12970
1659521578.620763,12967
1659521578.662237,12979
1659521578.703711,13024
1659521578.742284,13052
1659521578.780857,13074
1659521578.819429,13080
1659521578.860391,13098
1659521578.901353,13141
1659521578.939926,13190
1659521578.978498,13244
1659521579.017071,13279
1659521579.055985,13307
1659521579.094899,13352
1659521579.133813,13381
1659521579.175799,13412
1659521579.217785,13441
1659521579.25704,13474
1659521579.296296,13514
1659521579.335551,13547
1659521579.377025,13497
1659521579.418499,13347
1659521579.462533,13194
1659521579.506567,13108
1659521579.550602,13076
1659521579.584907,13044
1659521579.619213,13058
1659521579.662906,13103
1659521579.706599,13138
1659521579.750292,13152
1659521579.783061,13170
1659521579.815831,13220
1659521579.860207,13259
1659521579.904582,13313
1659521579.948958,13357
1659521579.988213,13391
1659521580.027468,13435
1659521580.066724,13468
1659521580.108198,13505
1659521580.149672,13539
1659521580.188927,13576
1659521580.228182,13609
1659521580.267437,13647
1659521580.309424,13682
1659521580.35141,13662
1659521580.389982,13526
1659521580.428555,13413
1659521580.467128,13381
1659521580.506724,13377
1659521580.546321,13403
1659521580.585917,13424
1659521580.627903,13461
1659521580.66989,13485
1659521580.70778,13487
1659521580.745669,13504
1659521580.783559,13536
1659521580.825546,13556
1659521580.867532,13606
1659521580.908835,13628
1659521580.950138,13660
1659521580.991442,13695
1659521581.032745,13727
1659521581.074049,13752
1659521581.115352,13775
1659521581.154949,13807
1659521581.194545,13831
1659521581.234142,13854
1659521581.272714,13761
1659521581.311287,13593
1659521581.34986,13494
1659521581.390822,13443
1659521581.431784,13424
1659521581.47138,13415
1659521581.510977,13451
1659521581.550574,13489
1659521581.588805,13497
1659521581.627036,13504
1659521581.665267,13524
1659521581.707253,13570
1659521581.74924,13610
1659521581.788154,13631
1659521581.827068,13663
1659521581.865982,13690
1659521581.906944,13717
1659521581.947906,13750
1659521581.986137,13775
1659521582.024368,13803
1659521582.062599,13820
1659521582.105098,13851
1659521582.147596,13871
1659521582.185827,13886
1659521582.224058,13782
1659521582.262289,13619
1659521582.306324,13524
1659521582.350358,13480
1659521582.394392,13453
1659521582.427674,13433
1659521582.460955,13471
1659521582.505672,13494
1659521582.550389,13517
1659521582.595106,13524
1659521582.63658,13542
1659521582.678054,13585
1659521582.717309,13624
1659521582.756565,13668
1659521582.79582,13707
1659521582.834393,13726
1659521582.872965,13752
1659521582.911538,13787
1659521582.951988,13815
1659521582.992438,13838
1659521583.031352,13864
1659521583.070266,13893
1659521583.10918,13925
1659521583.151678,13931
1659521583.194176,13854
1659521583.232407,13708
1659521583.270638,13611
1659521583.30887,13585
1659521583.348125,13567
1659521583.38738,13575
1659521583.426636,13612
1659521583.468622,13638
1659521583.510608,13636
1659521583.549863,13641
1659521583.589118,13666
1659521583.628374,13689
1659521583.669848,13733
1659521583.711322,13773
1659521583.750577,13805
1659521583.789832,13819
1659521583.829088,13848
1659521583.87005,13882
1659521583.911012,13906
1659521583.950267,13926
1659521583.989522,13949
1659521584.028778,13966
1659521584.06974,13996
1659521584.110702,13991
1659521584.154736,13887
1659521584.19877,13713
1659521584.242804,13574
1659521584.281377,13498
1659521584.31995,13445
1659521584.358522,13414
1659521584.399996,13418
1659521584.44147,13466
1659521584.480384,13461
1659521584.519298,13467
1659521584.558212,13488
1659521584.599686,13519
1659521584.64116,13563
1659521584.680074,13605
1659521584.718988,13649
1659521584.757902,13680
1659521584.797158,13702
1659521584.836413,13729
1659521584.875668,13757
1659521584.917142,13794
1659521584.958616,13812
1659521584.99753,13834
1659521585.036444,13870
1659521585.075358,13884
1659521585.116832,13903
1659521585.158306,13830
1659521585.196537,13656
1659521585.234769,13535
1659521585.273,13488
1659521585.311573,13456
1659521585.350145,13437
1659521585.388718,13469
1659521585.431216,13503
1659521585.473714,13510
1659521585.514164,13518
1659521585.554614,13543
1659521585.593187,13573
1659521585.631759,13611
1659521585.670332,13651
1659521585.71539,13682
1659521585.760448,13714
1659521585.805506,13741
1659521585.838788,13767
1659521585.87207,13801
1659521585.916445,13819
1659521585.960821,13849
1659521586.005197,13871
1659521586.03899,13894
1659521586.072784,13903
1659521586.113161,13848
1659521586.153538,13679
1659521586.193915,13542
1659521586.234292,13489
1659521586.274668,13458
1659521586.315045,13459
1659521586.355422,13483
1659521586.396384,13543
1659521586.437346,13581
1659521586.47626,13589
1659521586.515174,13596
1659521586.554088,13611
1659521586.598805,13638
1659521586.643522,13659
1659521586.688239,13711
1659521586.72152,13736
1659521586.754802,13772
1659521586.798836,13820
1659521586.84287,13856
1659521586.886905,13884
1659521586.920698,13905
1659521586.954492,13923
1659521586.99955,13954
1659521587.044609,13992
1659521587.089667,14016
1659521587.128239,13918
1659521587.166812,13760
1659521587.205384,13655
1659521587.247371,13588
1659521587.289357,13606
1659521587.328271,13768
1659521587.367185,13769
1659521587.406099,13740
1659521587.447573,13749
1659521587.489047,13805
1659521587.527619,13857
1659521587.566192,13917
1659521587.604764,13967
1659521587.643678,14034
1659521587.682592,14067
1659521587.721506,14115
1659521587.761956,14162
1659521587.802407,14200
1659521587.841321,14219
1659521587.880234,14252
1659521587.919148,14270
1659521587.961646,14296
1659521588.004144,14327
1659521588.042717,14292
1659521588.08129,14185
1659521588.119862,14080
1659521588.160824,14062
1659521588.201787,14084
1659521588.2407,14077
1659521588.279614,14069
1659521588.318528,14070
1659521588.360514,14071
1659521588.4025,14084
1659521588.441073,14107
1659521588.479646,14185
1659521588.518218,14258
1659521588.562594,14342
1659521588.606969,14394
1659521588.651345,14434
1659521588.692307,14440
1659521588.733269,14393
1659521588.7715,14337
1659521588.809731,14311
1659521588.847963,14327
1659521588.887218,14343
1659521588.926473,14379
1659521588.965729,14394
1659521589.007715,14303
1659521589.049701,14127
1659521589.088615,14015
1659521589.127529,13949
1659521589.166443,13919
1659521589.208429,13903
1659521589.250415,13924
1659521589.290012,13938
1659521589.329608,13890
1659521589.369205,13805
1659521589.411191,13726
1659521589.453177,13702
1659521589.491408,13717
1659521589.529639,13741
1659521589.567871,13726
1659521589.607126,13760
1659521589.646381,13844
1659521589.685637,13930
1659521589.726087,14004
1659521589.766537,14068
1659521589.805451,14110
1659521589.844365,14149
1659521589.883279,14168
1659521589.925265,14052
1659521589.967251,13840
1659521590.011626,13683
1659521590.056002,13565
1659521590.100377,13441
1659521590.133147,13332
1659521590.165917,13293
1659521590.210975,13258
1659521590.256033,13193
1659521590.301091,13165
1659521590.334885,13183
1659521590.368679,13277
1659521590.413054,13326
1659521590.45743,13341
1659521590.501806,13343
1659521590.541061,13346
1659521590.580316,13384
1659521590.619571,13447
1659521590.660533,13511
1659521590.701495,13561
1659521590.740068,13587
1659521590.778641,13601
1659521590.817213,13518
1659521590.858687,13208
1659521590.900162,12747
1659521590.939075,12283
1659521590.977989,11880
1659521591.016903,11526
1659521591.054793,11302
1659521591.092683,11212
1659521591.130573,11126
1659521591.173071,11036
1659521591.215569,10932
1659521591.254483,10767
1659521591.293397,10421
